
##TITLE=Z345_2_b
##JCAMP-DX=5.01  $$ Nicolet v. 1
##DATATYPE=INFRARED SPECTRUM
##ORIGIN=UniL
##OWNER=Nicolet
##LONGDATE=2011/09/14
##TIME=09:48:29
##SPECTROMETER/DATA SYSTEM=Nicolet iS5
##DATA PROCESSING=
Ratio against background
%Transmittance->Absorbance
Truncated
ElementMultiply or ElementDivide
##COMMENTS=
Number of sample scans: 32
Collection length: 51.22 sec
Sample gain: 2.0
Background collected on: Mer Sep 14 09:43:49 2011 (GMT+02:00);
Number of background scans: 32
Background gain: 2.0
Sample spacing:  1.000
Number of scan points: 12415
Resolution points: 8192
Number of FFT points: 65536
Apodization: N-B fort;
Phase correction: Mertz;
Laser frequency: 15798.0 cm-1
Number of rejected sample scans: 0
Number of rejected background scans: 0
Bench serial number: ASB1000141;
##RESOLUTION=4.000
##XUNITS=1/CM
##YUNITS=ABSORBANCE
##FIRSTX=649.893372
##LASTX=4000.122314
##FIRSTY=0.120927
##MAXX=4000.122314
##MINX=649.893372
##MAXY=0.519848
##MINY=0.000051
##XFACTOR=1.000000
##YFACTOR=1.000000E-009
##NPOINTS=6950
##DELTAX=0.482117
##ZPD=6100
##XYDATA=(X++(Y..Y))
649.893 120926552 121182560 121564872 122090616 122737728 123453072 
652.786 124176752 124876008 125562016 126286464 127112864 128089832 
655.679 129231840 130517736 131912184 133391304 134957664 136638880 
658.571 138467840 140457056 142592768 144841840 147179136 149609840 
661.464 152178480 154947216 157967136 161240944 164716368 168297568 
664.357 171890688 175434176 178889088 182226208 185363072 188100256 
667.250 190129904 191122768 190908016 189587344 187454496 184810752 
670.142 181835168 178583968 175046624 171214208 167132656 162914096 
673.035 158697920 154623344 150773264 147164160 143769728 140553968 
675.928 137503280 134633504 131977200 129560080 127383784 125421880 
678.820 123632880 121978536 120439328 119014800 117713440 116537368 
681.713 115472136 114487312 113549256 112633824 111738240 110879568 
684.606 110086456 109383432 108778592 108264280 107821040 107430056 
687.498 107078216 106760000 106470008 106193960 105904464 105563248 
690.391 105128448 104571648 103882752 103071512 102159096 101167504 
693.284 100111352 98996416 97827136 96616464 95389296 94184200 93041624 
696.659 91991512 91047792 90206200 89450896 88763936 88132840 87553416 
700.034 87025448 86547736 86113544 85711304 85330080 84964776 84619352 
703.408 84304216 84030760 83803568 83616744 83455376 83302616 83147984 
706.783 82991520 82843856 82721016 82639128 82610952 82646056 82756976 
710.158 82960480 83275680 83715168 84272320 84910304 85555808 86115440 
713.533 86490800 86601168 86410504 85931328 85221320 84359576 83431888 
716.908 82511776 81648824 80875408 80208432 79654840 79215992 78887344 
720.282 78661432 78529088 78485136 78531872 78678152 78931848 79288480 
723.657 79717184 80156504 80517736 80695104 80599424 80174640 79415208 
727.032 78365824 77111648 75758384 74403112 73130112 71996992 71032288 
730.407 70243472 69619224 69137584 68769192 68483536 68254328 68060632 
733.782 67890672 67741160 67613888 67511888 67436256 67384440 67351784 
737.156 67333592 67327872 67335648 67359912 67402704 67463696 67538864 
740.531 67622560 67709600 67797784 67887152 67979088 68073960 68169816 
743.906 68262160 68347048 68423688 68495136 68568664 68651352 68747576 
747.281 68856040 68970976 69084712 69190856 69287576 69376864 69463088 
750.656 69549648 69637192 69724336 69809928 69895040 69984872 70086296 
754.031 70206432 70348648 70511656 70691440 70884448 71090664 71315008 
757.405 71565608 71848992 72168872 72522496 72905184 73311824 73742472 
760.780 74202320 74701344 75249992 75856304 76525832 77262688 78074792 
764.155 78977976 79997576 81173360 82560624 84228464 86268944 88787184 
767.530 91881944 95623384 100002248 104893696 110004704 114898904 119041992 
770.905 121860216 122918200 122009864 119232584 114955808 109744192 
773.797 104230872 98940112 94261624 90398616 87381552 85127640 83492640 
777.172 82330984 81510616 80932448 80528872 80247296 80050360 79913128 
780.547 79822128 79776424 79783752 79854312 79994352 80203616 80476544 
783.922 80807152 81192296 81633032 82132432 82690504 83301696 83955136 
787.297 84639200 85347008 86081344 86854920 87686192 88591624 89583600 
790.671 90667736 91847840 93132880 94541768 96103160 97853408 99823920 
794.046 102032600 104474240 107118072 109906288 112756024 115575384 
796.939 118266952 120741912 122942256 124848888 126494272 127953368 
799.832 129336296 130760488 132318944 134075672 136056160 138263344 
802.724 140699984 143391952 146396368 149805536 153722656 158238608 
805.617 163412592 169249776 175695248 182620688 189839456 197087456 
808.510 204013920 210225904 215278224 218732880 220253680 219629712 
811.402 216829648 211991088 205391536 197393008 188373184 178724096 
814.295 168801568 158904992 149297824 140176624 131674992 123881232 
817.188 116831824 110527832 104945976 100045424 95775080 92074984 88883496 
820.563 86135888 83767120 81720896 79947856 78410360 77083592 75950312 
823.938 74997176 74211288 73576408 73074680 72689536 72408104 72223264 
827.312 72133384 72138512 72236560 72420160 72674840 72981336 73316248 
830.687 73653504 73968232 74235656 74433152 74545216 74566264 74505688 
834.062 74386912 74246936 74128192 74066968 74090224 74208216 74415896 
837.437 74696344 75027032 75385400 75749432 76100152 76421312 76698200 
840.812 76921504 77088464 77204136 77279072 77326104 77355360 77369856 
844.186 77365776 77335248 77272376 77177264 77058424 76929696 76807256 
847.561 76704056 76626768 76576736 76553256 76556736 76590960 76662744 
850.936 76778896 76943816 77157352 77415232 77711576 78042064 78405800 
854.311 78804144 79239968 79714192 80225808 80772072 81351064 81963320 
857.686 82612712 83304744 84044352 84833840 85673032 86561048 87499960 
861.060 88497408 89566256 90721760 91979272 93348832 94835400 96440720 
864.435 98167408 100022736 102021456 104183232 106531952 109093304 111892080 
867.810 114954856 118309200 121978008 125972464 130274640 134826304 
870.703 139507504 144136576 148493264 152316688 155354336 157400064 
873.596 158301248 157993120 156500528 153939024 150494944 146405648 
876.488 141944816 137367280 132899360 128724648 124960208 121674344 
879.381 118891880 116606232 114792464 113416464 112441776 111828760 
882.274 111536952 111528256 111764216 112210944 112840440 113626296 
885.166 114543000 115562232 116648320 117761192 118860904 119909424 
888.059 120878976 121752312 122520336 123180584 123733448 124182080 
890.952 124533104 124799504 125001384 125162424 125307872 125458944 
893.844 125627544 125817104 126023080 126236912 126447408 126643536 
896.737 126815256 126952600 127048928 127103720 127126664 127139240 
899.630 127172976 127267408 127458600 127776312 128239784 128857840 
902.523 129633888 130571168 131676168 132959176 134431712 136102256 
905.415 137974480 140046752 142316064 144781296 147445712 150315616 
908.308 153396736 156687728 160177760 163844544 167659712 171593632 
911.201 175616144 179700064 183815968 187926512 191988576 195952768 
914.093 199770176 203403104 206825456 210021088 212977088 215671776 
916.986 218068128 220116160 221752608 222912688 223541760 223594128 
919.879 223041696 221875248 220108800 217783920 214971936 211777584 
922.771 208321632 204731088 201131936 197626992 194302704 191233248 
925.664 188478304 186094464 184130768 182616944 181555600 180908480 
928.557 180597200 180497296 180456304 180322688 179950816 179234640 
931.450 178121840 176616976 174783920 172732432 170613120 168583248 
934.342 166788192 165349136 164336272 163772080 163632272 163860240 
937.235 164377920 165098928 165946432 166848224 167740800 168571776 
940.128 169292096 169860736 170247408 170431520 170403952 170164880 
943.020 169722784 169094272 168305248 167397344 166425184 165454128 
945.913 164556336 163793568 163211344 162834208 162664416 162690288 
948.806 162893120 163256800 163769088 164420224 165200464 166095040 
951.698 167084560 168150176 169275408 170452672 171682480 172969904 
954.591 174318480 175726816 177186368 178686096 180217376 181777504 
957.484 183370672 185004704 186684992 188410864 190174832 191966560 
960.377 193778416 195609488 197465440 199353488 201277040 203231056 
963.269 205202880 207176976 209142000 211096544 213048944 215012448 
966.162 216996912 219004304 221027584 223055568 225079152 227097152 
969.055 229115920 231144368 233185488 235231392 237262688 239256288 
971.947 241192656 243064608 244878960 246653952 248412624 250175264 
974.840 251961648 253792368 255692608 257697312 259846384 262175024 
977.733 264707856 267450960 270394112 273516544 276798112 280225824 
980.625 283792352 287489952 291298784 295175648 299056160 302855424 
983.518 306475904 309826560 312820320 315380960 317450368 318989856 
986.411 319994944 320504448 320611712 320457024 320198432 320003520 
989.304 320010112 320309088 320951744 321952448 323305920 324998624 
992.196 327015712 329337440 331931712 334756032 337758368 340887744 
995.089 344110432 347412480 350798144 354278432 357857952 361525504 
997.982 365259104 369032704 372832608 376663840 380548640 384513920 
1000.874 388576672 392735712 396973856 401268832 405605440 409984544 
1003.767 414419040 418920864 423488096 428097856 432711200 437292384 
1006.660 441823616 446313728 450791104 455286560 459812032 464351168 
1009.552 468861536 473292928 477610336 481801056 485871328 489828608 
1012.445 493661376 497329664 500775584 503939200 506786112 509315904 
1015.338 511556576 513540576 515283648 516774656 517983680 518883360 
1018.231 519470944 519775168 519847936 519740096 519474976 519040928 
1021.123 518396864 517496896 516305696 514807392 512996448 510853472 
1024.016 508328128 505340512 501786176 497572384 492641312 486972512 
1026.909 480581536 473498752 465755680 457385184 448435360 438991296 
1029.802 429180320 419174656 409175648 399369440 389927392 380989984 
1032.695 372658272 365019520 358145184 352084480 346866080 342480032 
1035.588 338874688 335956480 333606560 331704096 330132512 328800864 
1038.481 327640352 326591936 325603712 324623776 323601312 322498688 
1041.374 321293280 319978848 318557664 317029760 315384704 313604160 
1044.267 311669216 309575104 307340384 305009888 302645792 300308672 
1047.160 298052160 295911712 293907680 292054688 290367008 288859744 
1050.053 287545696 286426592 285487904 284698624 284022048 283424576 
1052.947 282884160 282393760 281953376 281559136 281195104 280829312 
1055.840 280418432 279922112 279307008 278552992 277649696 276587392 
1058.733 275351840 273925472 272292992 270453504 268427312 266258864 
1061.626 264006880 261733360 259498480 257350736 255333328 253492112 
1064.519 251874272 250531680 249513056 248849424 248549216 248591952 
1067.412 248935216 249518704 250274272 251136864 252037760 252907696 
1070.305 253680464 254289536 254682304 254830064 254731360 254410896 
1073.198 253908656 253269552 252528992 251709904 250828416 249898240 
1076.091 248939536 247980144 247048480 246168912 245354448 244606000 
1078.984 243917680 243284576 242708224 242196752 241759584 241399808 
1081.877 241108352 240864624 240644528 240426320 240199728 239966304 
1084.770 239733808 239508880 239290464 239069040 238832656 238572944 
1087.663 238292240 238003056 237724080 237473536 237263456 237102336 
1090.556 237000176 236975152 237058896 237293248 237717248 238358112 
1093.449 239217744 240270896 241465552 242736064 244015664 245238544 
1096.343 246349120 247301408 248055920 248586256 248882384 248954304 
1099.236 248830144 248548016 248143568 247633296 247008816 246236304 
1102.129 245271392 244069264 242600448 240858496 238857408 236626656 
1105.022 234202688 231629536 228955088 226229440 223508176 220841680 
1107.915 218267184 215804928 213452896 211192032 208993200 206828896 
1110.808 204678096 202527744 200370288 198198608 196002336 193771104 
1113.701 191497696 189184080 186843552 184500176 182182720 179917264 
1116.594 177726128 175626176 173630544 171753936 170011008 168411968 
1119.487 166957088 165629248 164392880 163193216 161970672 160668992 
1122.380 159243472 157669504 155939248 154056640 152030416 149871312 
1125.273 147589184 145193712 142696912 140114592 137463936 134765696 
1128.166 132042232 129315496 126610400 123951752 121362216 118861160 
1131.059 116460592 114163760 111966720 109861264 107839096 105895760 
1133.952 104032776 102257000 100578656 99007312 97550304 96211616 94992976 
1137.328 93894872 92917912 92062528 91328080 90710576 90203096 89794408 
1140.703 89471624 89222320 89034608 88898008 88801496 88731016 88668984 
1144.078 88594752 88485056 88319192 88080896 87759224 87349984 86853904 
1147.453 86277072 85629896 84929640 84201232 83474248 82784400 82168176 
1150.829 81656512 81275544 81042800 80967096 81051792 81294840 81689736 
1154.204 82223904 82877656 83623608 84424000 85236568 86016032 86715320 
1157.579 87292496 87708168 87926216 87916840 87656032 87128016 86329816 
1160.954 85269952 83969408 82455520 80762096 78924608 76976528 74952408 
1164.330 72885312 70805200 68740544 66714832 64745328 62844560 61020140 
1167.705 59276908 57619796 56053716 54585268 53221120 51966696 50825568 
1171.080 49799004 48886648 48087972 47403796 46836164 46389264 46067844 
1174.455 45876276 45818352 45897888 46119316 46489816 47020112 47723544 
1177.831 48616372 49715328 51036104 52594000 54403156 56477544 58832696 
1181.206 61483312 64443396 67722808 71323136 75232416 79417200 83820128 
1184.581 88343840 92846888 97157304 101060432 104332360 106777416 108238136 
1187.956 108634920 107972352 106337848 103882376 100794784 97291840 93577088 
1191.332 89829888 86201744 82794104 79666904 76840152 74299896 72007200 
1194.707 69907848 67946936 66072292 64242780 62433452 60632504 58840324 
1198.082 57066280 55324892 53633496 52007744 50462736 49010076 47657092 
1201.457 46407884 45262200 44216880 43266780 42406064 41629452 40931520 
1204.833 40307776 39753000 39261244 38826596 38443928 38109744 37823708 
1208.208 37588044 37406604 37283940 37223976 37230040 37304880 37452000 
1211.583 37675376 37979180 38366684 38838372 39391504 40019636 40714616 
1214.958 41467896 42271280 43117568 43999060 44905824 45825860 46744644 
1218.333 47646920 48519768 49352908 50140564 50880512 51573808 52224456 
1221.709 52838736 53426640 54001456 54577680 55171064 55794840 56457584 
1225.084 57163248 57910920 58696928 59515752 60361936 61228812 62107780 
1228.459 62988416 63857980 64703212 65513612 66282556 67009336 67698920 
1231.834 68361360 69011416 69666952 70351568 71093904 71925312 72881984 
1235.210 73999192 75307920 76834896 78599168 80613192 82884840 85417592 
1238.585 88210904 91258944 94550496 98069096 101794496 105709792 109801912 
1241.960 114063656 118491456 123077064 127799080 132619128 137472848 
1244.853 142272480 146915328 151274864 155211248 158579040 161217520 
1247.746 162974992 163721680 163357472 161833712 159154784 155378880 
1250.639 150607312 144979904 138670704 131862552 124750752 117527648 
1253.532 110355248 103374336 96693080 90380416 84482040 79018680 73991376 
1256.908 69387240 65181500 61342632 57832552 54612996 51648256 48905488 
1260.283 46358476 43987804 41779140 39723992 37817456 36056580 34439200 
1263.658 32962066 31620778 30409758 29322932 28354142 27497984 26748688 
1267.033 26099682 25543356 25070964 24673566 24344376 24079240 23877346 
1270.409 23740070 23670014 23669420 23739544 23882350 24101024 24401396 
1273.784 24791282 25277770 25863296 26540862 27292694 28087254 28880828 
1277.159 29625730 30269620 30764242 31073176 31172094 31054134 30729744 
1280.534 30224966 29576958 28826476 28016920 27186574 26366160 25580782 
1283.910 24847414 24177596 23578280 23052284 22598962 22213968 21890886 
1287.285 21621986 21400168 21220426 21079814 20977358 20911326 20878680 
1290.660 20874300 20891440 20923948 20967446 21020620 21084788 21161766 
1294.035 21252402 21355338 21467456 21585212 21706480 21831266 21961944 
1297.411 22101866 22253830 22418754 22596518 22786574 22989256 23206712 
1300.786 23441868 23697832 23976178 24276710 24598206 24940222 25304076 
1304.161 25693716 26114990 26572704 27069550 27604566 28173582 28770322 
1307.536 29387770 30019378 30657238 31292014 31912134 32502856 33050082 
1310.912 33541012 33966460 34321672 34605052 34816268 34954144 35016204 
1314.287 34999216 34900968 34721684 34465564 34139336 33752756 33316210 
1317.662 32840260 32336772 31818568 31299740 30795614 30319822 29882490 
1321.037 29489144 29139772 28831220 28559226 28321604 28118822 27953698 
1324.413 27829400 27747944 27708952 27710824 27752042 27833532 27958644 
1327.788 28132292 28358422 28638252 28969688 29348064 29769208 30230650 
1331.163 30732696 31276486 31861174 32481644 33126388 33777464 34415024 
1334.538 35017104 35562008 36030764 36405580 36671392 36817940 36841780 
1337.914 36749312 36556868 36292136 35988576 35678864 35392412 35148900 
1341.289 34958600 34826288 34753880 34743724 34799972 34927536 35130216 
1344.664 35410492 35769124 36206916 36725908 37329792 38021888 38802428 
1348.039 39666340 40601052 41587808 42604368 43625072 44622516 45569072 
1351.415 46433176 47182308 47787084 48221504 48470716 48531812 48415112 
1354.790 48140244 47734232 47228332 46652884 46038116 45414064 44806848 
1358.165 44241352 43737924 43309064 42960872 42692756 42501060 42383520 
1361.540 42342792 42387028 42528172 42775928 43132680 43591700 44137644 
1364.916 44750316 45404868 46074956 46730660 47334916 47848528 48231652 
1368.291 48449048 48480052 48318372 47972912 47461636 46807712 46035464 
1371.666 45167260 44229424 43254044 42280188 41357492 40537936 39866048 
1375.041 39374308 39077872 38979776 39080480 39385808 39911924 40686264 
1378.417 41739088 43096564 44772100 46758704 49021832 51489644 54055864 
1381.792 56566760 58831108 60659860 61875184 62351400 62030872 60919368 
1385.167 59082080 56628624 53725800 50578052 47400916 44403612 41735768 
1388.542 39472452 37621064 36140292 34966428 34029952 33270992 32639928 
1391.917 32097642 31617642 31182670 30785904 30429374 30121254 29871488 
1395.293 29686820 29568126 29509926 29502444 29532480 29585826 29649250 
1398.668 29712400 29771160 29829536 29899102 29994134 30127290 30305930 
1402.043 30530956 30798566 31103146 31441384 31813576 32221846 32665826 
1405.418 33137440 33618800 34085680 34512380 34880248 35183176 35426600 
1408.794 35625376 35796792 35957224 36119084 36291484 36484028 36707920 
1412.169 36975864 37299392 37684232 38128228 38621420 39151540 39707652 
1415.544 40284108 40881132 41500960 42143364 42803500 43473392 44147808 
1418.919 44830544 45538860 46296032 47117044 48005700 48951068 49936928 
1422.295 50948536 51982832 53051188 54176644 55383496 56687028 58088100 
1425.670 59574924 61132568 62752052 64436556 66197960 68049696 69998816 
1429.045 72041032 74163720 76352776 78601392 80911888 83289288 85733944 
1432.420 88234008 90767816 93302904 95807600 98254064 100608360 102830400 
1435.796 104869152 106670240 108193888 109433904 110420912 111198496 
1438.689 111804592 112255304 112544296 112645720 112522960 112140416 
1441.582 111465032 110471720 109146256 107486792 105508528 103244616 
1444.475 100747688 98077696 95288896 92429016 89535184 86647032 83824024 
1447.850 81145280 78699200 76560368 74762424 73294992 72113080 71162248 
1451.225 70395328 69784520 69320032 68997744 68804792 68712760 68673048 
1454.601 68625856 68515856 68305128 67998272 67650552 67359824 67218896 
1457.976 67275184 67524728 67929576 68444320 69027528 69647664 70276776 
1461.351 70885776 71446936 71931104 72312048 72574736 72720440 72773608 
1464.726 72775832 72781440 72840248 72985496 73235720 73596584 74066536 
1468.102 74640784 75313000 76076936 76924352 77849384 78849712 79925920 
1471.477 81083776 82333240 83690776 85174480 86809920 88631320 90671904 
1474.852 92965192 95534400 98382328 101487872 104807224 108289416 111885304 
1478.227 115560200 119297680 123087096 126919224 130781976 134656176 
1481.120 138523360 142369408 146182768 149949072 153642288 157213760 
1484.013 160597792 163709616 166450512 168725856 170443248 171518768 
1486.906 171882272 171475696 170260160 168225568 165410960 161924288 
1489.800 157944832 153720176 149514272 145544864 141955936 138793520 
1492.693 136027520 133587136 131388696 129360888 127457544 125662056 
1495.586 123979928 122420352 120977112 119610552 118245504 116796704 
1498.479 115176832 113317568 111184552 108773312 106111336 103246640 
1501.372 100243384 97164560 94051440 90923760 87758776 84484656 80988136 
1504.747 77133968 72818584 68054664 63050740 58189092 53872932 50336704 
1508.122 47578152 45426900 43676184 42149312 40732844 39374964 38065036 
1511.498 36813972 35632964 34524828 33479736 32480504 31507466 30543540 
1514.873 29574332 28589448 27585536 26570554 25567534 24610092 23730832 
1518.248 22949782 22263560 21645354 21049624 20430814 19761596 19053524 
1521.623 18357526 17741018 17250486 16890870 16630761 16420392 16215181 
1524.999 15986413 15730659 15465339 15217407 15006828 14837184 14697424 
1528.374 14572066 14452088 14339232 14243764 14176490 14140340 14125861 
1531.749 14112991 14079175 14013193 13923065 13836855 13786950 13794578 
1535.124 13859261 13963575 14082358 14193367 14283243 14346424 14383446 
1538.500 14395160 14377726 14322383 14222330 14083385 13926350 13778605 
1541.875 13660282 13573475 13503195 13423732 13312646 13159988 12974267 
1545.250 12777638 12595457 12443425 12320727 12212683 12099215 11965544 
1548.625 11808456 11639035 11476349 11339197 11235409 11159794 11098299 
1552.000 11037492 10970985 10902585 10843572 10806646 10798936 10818739 
1555.376 10857059 10901702 10942577 10970169 10974043 10941014 10857467 
1558.751 10721494 10553923 10395648 10286419 10245436 10271050 10345594 
1562.126 10445945 10548084 10634220 10696839 10739835 10776245 10822102 
1565.501 10888315 10975131 11073214 11168939 11251186 11315798 11367189 
1568.877 11414979 11470940 11542525 11631547 11737200 11859087 11999469 
1572.252 12161363 12345339 12547332 12756174 12956857 13135808 13287501 
1575.627 13421169 13558878 13727441 13942225 14203261 14498746 14815173 
1579.002 15142845 15478592 15824014 16180752 16546594 16914158 17271310 
1582.378 17606118 17911492 18186570 18435408 18663878 18876132 19072080 
1585.753 19249344 19405510 19541942 19664894 19784690 19911494 20052840 
1589.128 20211204 20384868 20571704 20772518 20992172 21239282 21522640 
1592.503 21846876 22211700 22612226 23043164 23501744 23990150 24513566 
1595.879 25077912 25685808 26335178 27020112 27734098 28472858 29234780 
1599.254 30020230 30828482 31654668 32490358 33324402 34145536 34946712 
1602.629 35724872 36479956 37212856 37920488 38593536 39216564 39766220 
1606.004 40214384 40534408 40700420 40696164 40516440 40169424 39674872 
1609.380 39060864 38363788 37623344 36881384 36180516 35554204 35023280 
1612.755 34592316 34249748 33972300 33729332 33491798 33235900 32950520 
1616.130 32641928 32333594 32057830 31841282 31697686 31623840 31604600 
1619.505 31617000 31635318 31635460 31595226 31500664 31348564 31150060 
1622.881 30927132 30705918 30508100 30342774 30206318 30086630 29970028 
1626.256 29844548 29702678 29541810 29362812 29168792 28963668 28752268 
1629.631 28539306 28329702 28127094 27932778 27743882 27552138 27343928 
1633.006 27100972 26801760 26427322 25968562 25436154 24864184 24303866 
1636.382 23804606 23394380 23074996 22828374 22628770 22450784 22274232 
1639.757 22088096 21890014 21686312 21486918 21302614 21138704 20993146 
1643.132 20856048 20711594 20541304 20326706 20054158 19719814 19333032 
1646.507 18917176 18505350 18131774 17820966 17583450 17416246 17305686 
1649.883 17230558 17161374 17062008 16886876 16589623 16146671 15586628 
1653.258 14998631 14485043 14105084 13854814 13696220 13585098 13488258 
1656.633 13387270 13274929 13152543 13025649 12900840 12781357 12667501 
1660.008 12555585 12440288 12315955 12178776 12028389 11869371 11711125 
1663.384 11565256 11442874 11351169 11290939 11257341 11240645 11228982 
1666.759 11209126 11169721 11103262 11007721 10888009 10753930 10619178 
1670.134 10496214 10394528 10318889 10269489 10241806 10227253 10214531 
1673.509 10190311 10142316 10065806 9965882 9859642 9767729 9706769 9681731 
1677.367 9686508 9709176 9737875 9765561 9791689 9821716 9862931 9920048 
1681.224 9990598 10064280 10123391 10148929 10126273 10055871 9956322 
1684.599 9860727 9797314 9777082 9793688 9832460 9879302 9923539 9958966 
1688.457 9983716 9998227 10005042 10007822 10011823 10023182 10047019 
1691.832 10086119 10138992 10199097 10255512 10295818 10309966 10295614 
1695.207 10263213 10234308 10232884 10271728 10347460 10442924 10535286 
1698.583 10600063 10618296 10584139 10511184 10431758 10378782 10371554 
1701.958 10407967 10473438 10548865 10617006 10665325 10685564 10676430 
1705.333 10643355 10596939 10548424 10506432 10474185 10450052 10429857 
1708.708 10408645 10383193 10353127 10320314 10287437 10256530 10227625 
1712.083 10198147 10164091 10121186 10066383 9998803 9918827 9825952 9717172 
1715.941 9586366 9427156 9236559 9020369 8794785 8581080 8397171 8250992 
1719.798 8139634 8052708 7976870 7900268 7815617 7720829 7618004 7511561 
1723.656 7406056 7303810 7205631 7111482 7021900 6938463 6863357 6797789 
1727.513 6741182 6691178 6645620 6603801 6568378 6544226 6536422 6546244 
1731.371 6569690 6595794 6608511 6593002 6540559 6457787 6365851 6292390 
1735.228 6257060 6263178 6302072 6358891 6419820 6473156 6512137 6534404 
1739.085 6541938 6539887 6534202 6529560 6528248 6529930 6532318 6532453 
1742.943 6527038 6513382 6490275 6458123 6419047 6375770 6331389 6287886 
1746.800 6245866 6204086 6160058 6110994 6053637 5986074 5907035 5816827 
1750.658 5717876 5615423 5516316 5427733 5355873 5302741 5266719 5242338 
1754.515 5221009 5194450 5156124 5104357 5043177 4981570 4929656 4893565 
1758.373 4874197 4866590 4862603 4853590 4833419 4800150 4756901 4709770 
1762.230 4666061 4632068 4610703 4602297 4605043 4616161 4631800 4647339 
1766.087 4658626 4662276 4657421 4647038 4636522 4632202 4637293 4650253 
1769.945 4664286 4669143 4654440 4614621 4552203 4478580 4409287 4356639 
1773.802 4325983 4314404 4314203 4317650 4319658 4319056 4317550 4317349 
1777.660 4319256 4321365 4320060 4311593 4294259 4269731 4242360 4217233 
1781.517 4197327 4183108 4171834 4159556 4143031 4121054 4094897 4067537 
1785.375 4042287 4021685 4007171 3999547 3999346 4007339 4023023 4044928 
1789.232 4069109 4090014 4101118 4097405 4077404 4044460 4006202 3971391 
1793.089 3947584 3937619 3940629 3953201 3971659 3993193 4016201 4039410 
1796.947 4061851 4082354 4099345 4112357 4121522 4127978 4133430 4139485 
1800.804 4146644 4154873 4163905 4173674 4185082 4199401 4217568 4239617 
1804.662 4264511 4290143 4314538 4336692 4357375 4378092 4400685 4426158 
1808.519 4454109 4482564 4509716 4534156 4556020 4576580 4597542 4619945 
1812.376 4643087 4665860 4686391 4703976 4719384 4734223 4751206 4772411 
1816.234 4798844 4830370 4865954 4904824 4946412 4991155 5039154 5090176 
1820.091 5143215 5196764 5249447 5300124 5348393 5393815 5436020 5474673 
1823.949 5509537 5541921 5574811 5612637 5659530 5717439 5784927 5857193 
1827.806 5926684 5986309 6031797 6063716 6088010 6113178 6147288 6194137 
1831.664 6251648 6313503 6372273 6421871 6458997 6483347 6497439 6504199 
1835.521 6506150 6504670 6500062 6492394 6482203 6470836 6460040 6451902 
1839.378 6447597 6447765 6452103 6459636 6468717 6476519 6479345 6473358 
1843.236 6455433 6425638 6388548 6352469 6326110 6316192 6324833 6349040 
1847.093 6383033 6420055 6455298 6486811 6515702 6544663 6576418 6611471 
1850.951 6648076 6683371 6715001 6742427 6767735 6793986 6824042 6859183 
1854.808 6897660 6936813 6973311 7005669 7034157 7061098 7089219 7120105 
1858.666 7154529 7191718 7230730 7271092 7312874 7356109 7400360 7443468 
1862.523 7482772 7515574 7540791 7559402 7574136 7588061 7602695 7616824 
1866.380 7626299 7625119 7608158 7573529 7523597 7465176 7406258 7354053 
1870.238 7311897 7279415 7253134 7229382 7204351 7175784 7142301 7102725 
1874.095 7056484 7003009 6942705 6876587 6806439 6734350 6661736 6589537 
1877.953 6517451 6445445 6373988 6304796 6240286 6181870 6130148 6082802 
1881.810 6036501 5986947 5931957 5871635 5809204 5749201 5696423 5653521 
1885.667 5620760 5596325 5577126 5560681 5545042 5529336 5513195 5496518 
1889.525 5479069 5462157 5447797 5438838 5438000 5446354 5462023 5481082 
1893.382 5498061 5508228 5509571 5503698 5494437 5486652 5483565 5485209 
1897.240 5489068 5491819 5491215 5487491 5482424 5479136 5479673 5483296 
1901.097 5488095 5490880 5490276 5486954 5484270 5485813 5494303 5509806 
1904.955 5530310 5551989 5571857 5588404 5601426 5611798 5619350 5622572 
1908.812 5619216 5607635 5588202 5563970 5539740 5520343 5508900 5505443 
1912.669 5507624 5512390 5517457 5522356 5528095 5535377 5543364 5549673 
1916.527 5550613 5543196 5527994 5508564 5491685 5482793 5484337 5494303 
1920.384 5507792 5518665 5523296 5521349 5516450 5513497 5516651 5526954 
1924.242 5542995 5561655 5581422 5602433 5627339 5658187 5696087 5738625 
1928.099 5780964 5818003 5846950 5868343 5886076 5905926 5931622 5964238 
1931.957 6001158 6037543 6068824 6092277 6107264 6115396 6118488 6116875 
1935.814 6111800 6104307 6097116 6094865 6102459 6122688 6155084 6194137 
1939.671 6231513 6259009 6271212 6267413 6252421 6233429 6217127 6208019 
1943.529 6206405 6210573 6218304 6228185 6240757 6256791 6276288 6297400 
1947.386 6317268 6334414 6348569 6362825 6381150 6406436 6438517 6474098 
1951.244 6506722 6531006 6544226 6547993 6548228 6551021 6560675 6578200 
1955.101 6600639 6623145 6641784 6655074 6664024 6671325 6678627 6686770 
1958.958 6694946 6702719 6710257 6721025 6737076 6760869 6791058 6824109 
1962.816 6854706 6879818 6897929 6912506 6927016 6945163 6966442 6987957 
1966.673 7004793 7013886 7015805 7015367 7019711 7034898 7062412 7099862 
1970.531 7141527 7182252 7219107 7252865 7285311 7318030 7350111 7378723 
1974.388 7402045 7421897 7445424 7484660 7550602 7647814 7770683 7902394 
1978.246 8019901 8103444 8140445 8129101 8077889 8000494 7910255 7818754 
1982.103 7732500 7654862 7587623 7531756 7487290 7454019 7429548 7410167 
1985.960 7393787 7379498 7370196 7371342 7388125 7422672 7472120 7528688 
1989.818 7582228 7624107 7649635 7659819 7660595 7658639 7659684 7666260 
1993.675 7678064 7692937 7709969 7728587 7748555 7770143 7792036 7810624 
1997.533 7824287 7831574 7834374 7836803 7842471 7852660 7864941 7874321 
2001.390 7873781 7859104 7829955 7791429 7752603 7722381 7709160 7716984 
2005.248 7747509 7798412 7867674 7951930 8045924 8143618 8236471 8316071 
2009.105 8377106 8417001 8439804 8451764 8460110 8470111 8483795 8499269 
2012.962 8514238 8527146 8538499 8550969 8567561 8589123 8614741 8641780 
2016.820 8668652 8695830 8727944 8770070 8826706 8898228 8980385 9066008 
2020.677 9148128 9221870 9287569 9348029 9406670 9464777 9520826 9570988 
2024.535 9611942 9643447 9668585 9693353 9722457 9757021 9795484 9832527 
2028.392 9863744 9888827 9912115 9940896 9983139 10043459 10120949 10210732 
2032.250 10305080 10397310 10483281 10561358 10629739 10687228 10731106 
2035.625 10758549 10769928 10768196 10758854 10749413 10745099 10747137 
2039.000 10753387 10759398 10761096 10757836 10752061 10747612 10748937 
2042.375 10757258 10770607 10785722 10798018 10805729 10810417 10813983 
2045.750 10819929 10829847 10843708 10860219 10877817 10895518 10911759 
2049.126 10924160 10927524 10915904 10883695 10829576 10757225 10677074 
2052.501 10601387 10543738 10512134 10507348 10522624 10546930 10569405 
2055.876 10583460 10587535 10584785 10579556 10574768 10570049 10562615 
2059.251 10550121 10531654 10509928 10489459 10474185 10465834 10462305 
2062.627 10459012 10450934 10435525 10413160 10386790 10360220 10335754 
2066.002 10313122 10290219 10264807 10236514 10207407 10181085 10161038 
2069.377 10148489 10141977 10137974 10133193 10126172 10118269 10113216 
2072.752 10113691 10121695 10135261 10150761 10164125 10173148 10177523 
2076.128 10179694 10182374 10187326 10194008 10200623 10204897 10206525 
2079.503 10206831 10207679 10211444 10218229 10225624 10230068 10228270 
2082.878 10219043 10204660 10189158 10177489 10172707 10175624 10184273 
2086.253 10195332 10205983 10214904 10222164 10228474 10233494 10235835 
2089.629 10232477 10220535 10198690 10167754 10131055 10093716 10060991 
2093.004 10037288 10025759 10027929 10043798 10072079 10109316 10150286 
2096.379 10188038 10215650 10227456 10221825 10200589 10169756 10136856 
2099.754 10108299 10088086 10077133 10073267 10074081 10077472 10082931 
2103.130 10090155 10099413 10108739 10114912 10114674 10105891 10089070 
2106.505 10067773 10046715 10030473 10021046 10017723 10016503 10013722 
2109.880 10005788 9991615 9972053 9949100 9924285 9898725 9872048 9844729 
2113.738 9817750 9792841 9772203 9757088 9746889 9739298 9731234 9719815 
2117.595 9704703 9687456 9671059 9658692 9651748 9649410 9649545 9649342 
2121.452 9647242 9643887 9640940 9640432 9643210 9647580 9650392 9648088 
2125.310 9638229 9619936 9595478 9567905 9540537 9516220 9496035 9480050 
2129.167 9468367 9460680 9456920 9457226 9461933 9470771 9484791 9505280 
2133.025 9533594 9571021 9616651 9666891 9715613 9755564 9781488 9792299 
2136.882 9791113 9784944 9782165 9788198 9804804 9829070 9856050 9880454 
2140.740 9900318 9915539 9928251 9940252 9952151 9961237 9965950 9964966 
2144.597 9960288 9956457 9958424 9969205 9987920 10010060 10029794 10041832 
2148.454 10045155 10041628 10035084 10027896 10019181 10004839 9979342 
2151.830 9938625 9883810 9819038 9752344 9690302 9637823 9596088 9567127 
2155.687 9555339 9571970 9632844 9755055 9949202 10211173 10519398 10840855 
2159.544 11138751 11381644 11553721 11653228 11689987 11678891 11635972 
2162.920 11574478 11504485 11433315 11365556 11305425 11254893 11213546 
2166.295 11181246 11156394 11138649 11128927 11129164 11140247 11160984 
2169.670 11186856 11211030 11227555 11231771 11222556 11203040 11178221 
2173.045 11152315 11128756 11108395 11091535 11078652 11071752 11072330 
2176.421 11082051 11098707 11117266 11131170 11134162 11123997 11104927 
2179.796 11085960 11077463 11089495 11125425 11182334 11251900 11322838 
2183.171 11386134 11435729 11470327 11491829 11503805 11509998 11513433 
2186.546 11517143 11522926 11532250 11545554 11561853 11577880 11590710 
2189.922 11597039 11595916 11588940 11579139 11570598 11566242 11567195 
2193.297 11573559 11585027 11601531 11624707 11656256 11696489 11743328 
2196.672 11792216 11836920 11871584 11893446 11903220 11905399 11905740 
2200.047 11909383 11918851 11934449 11954169 11975592 11997970 12021099 
2203.423 12046102 12073493 12102588 12132707 12162488 12192168 12222805 
2206.798 12257397 12297923 12345305 12398010 12453041 12506646 12556574 
2210.173 12601051 12641370 12678145 12711682 12741434 12765729 12782859 
2213.548 12793130 12798317 12801797 12806848 12815516 12826915 12839610 
2216.924 12850736 12858381 12862818 12866708 12873023 12885276 12905209 
2220.299 12932313 12965152 13000657 13035756 13067783 13094315 13113132 
2223.674 13123718 13126484 13123821 13120337 13121191 13130788 13151244 
2227.049 13180993 13215251 13248079 13274075 13290508 13298638 13302090 
2230.425 13305711 13313876 13328260 13348213 13372235 13398068 13425407 
2233.800 13454524 13486822 13522746 13562741 13605270 13648760 13692425 
2237.175 13735821 13779802 13824712 13870413 13916085 13960085 14001181 
2240.550 14038892 14074520 14109739 14146400 14185014 14224761 14263280 
2243.926 14298720 14329437 14355979 14380158 14405127 14433556 14467605 
2247.301 14507551 14552776 14601911 14652973 14703766 14752232 14796215 
2250.676 14834202 14865848 14892354 14916803 14942865 14974829 15015403 
2254.051 15065518 15123529 15186592 15251140 15313364 15371236 15422903 
2257.427 15467124 15503246 15530581 15549022 15559874 15565678 15569902 
2260.802 15575740 15585529 15599507 15616680 15634747 15651476 15666006 
2264.177 15679197 15692491 15708225 15727431 15750347 15776081 15803156 
2267.552 15830614 15858278 15886389 15915398 15945610 15975997 16005218 
2270.927 16031861 16054966 16074426 16091205 16106645 16122153 16139416 
2274.303 16159706 16183985 16213495 16249061 16290992 16338192 16389148 
2277.678 16440764 16490320 16535167 16574476 16608659 16639575 16669322 
2281.053 16700689 16734745 16772350 16813266 16856632 16901136 16945716 
2284.428 16988920 17029372 17066314 17099332 17128800 17155926 17181710 
2287.804 17207288 17232834 17257690 17280860 17301342 17318582 17333376 
2291.179 17347204 17362308 17380446 17403072 17429800 17460050 17492510 
2294.554 17525764 17559024 17592040 17625028 17658984 17694666 17732978 
2297.929 17774916 17820930 17871026 17924750 17980900 18037714 18093292 
2301.305 18146078 18195000 18240126 18282182 18322754 18363298 18405332 
2304.680 18449478 18496188 18545460 18596918 18650352 18705142 18760770 
2308.055 18816718 18872568 18927870 18982730 19037356 19091988 19146940 
2311.430 19202414 19258454 19314950 19371902 19429002 19486214 19543086 
2314.806 19599446 19655326 19711006 19767318 19825544 19887422 19953886 
2318.181 20025600 20102220 20182462 20264940 20348442 20431960 20515044 
2321.556 20596786 20675312 20747044 20807764 20853268 20880906 20891092 
2324.931 20887338 20876316 20865956 20863732 20875412 20903400 20947106 
2328.307 21003438 21068510 21137764 21207934 21276896 21343368 21407200 
2331.682 21468570 21528280 21588066 21649742 21715886 21788482 21869002 
2335.057 21957134 22051664 22150400 22250796 22350692 22448902 22544654 
2338.432 22638126 22729136 22817688 22903570 22986322 23065772 23141566 
2341.808 23212934 23278862 23336686 23383470 23415676 23431238 23430958 
2345.183 23419242 23404870 23399836 23417038 23467188 23557570 23690064 
2348.558 23861626 24064460 24288764 24522472 24753748 24973106 25174004 
2351.933 25354020 25514014 25657720 25789344 25912216 26028226 26137650 
2355.309 26240346 26336270 26425314 26508142 26585386 26657462 26724690 
2358.684 26787628 26846768 26903062 26957068 27008192 27055692 27097906 
2362.059 27133384 27162624 27187670 27212116 27240938 27278264 27326074 
2365.434 27384474 27451286 27523084 27596552 27669046 27739326 27807144 
2368.810 27872924 27937372 28001686 28066932 28134340 28205546 28281676 
2372.185 28363160 28449970 28541252 28635986 28733716 28834370 28938592 
2375.560 29047052 29159686 29275822 29393904 29511770 29627468 29739862 
2378.935 29848986 29955508 30060886 30166360 30273066 30381542 30492352 
2382.311 30605896 30722740 30843314 30967838 31096132 31227528 31360996 
2385.686 31495926 31631682 31768228 31906106 32045238 32185734 32326810 
2389.061 32467436 32606602 32743674 32878320 33010684 33141158 33270348 
2392.436 33398610 33526550 33654496 33783124 33912936 34044000 34176076 
2395.812 34308012 34438304 34565544 34688808 34807836 34923120 35036068 
2399.187 35147572 35258960 35370988 35484340 35599736 35718684 35841880 
2402.562 35970868 36106084 36247324 36393872 36544684 36698580 36854908 
2405.937 37013384 37173692 37335752 37498744 37661968 37824540 37986264 
2409.313 38147180 38308524 38470972 38635472 38802500 38971728 39142948 
2412.688 39315576 39489472 39664888 39841716 40020108 40199480 40379552 
2416.063 40559728 40739540 40919284 41098924 41278744 41458892 41639152 
2419.438 41819820 42001472 42184912 42371576 42562156 42756880 42954836 
2422.813 43154420 43353948 43551880 43748332 43944028 44140360 44338436 
2426.189 44538252 44738892 44939372 45138104 45335236 45531500 45728740 
2429.564 45928572 46131844 46337944 46545544 46753020 46959304 47163836 
2432.939 47366992 47569240 47770696 47970732 48168228 48361960 48551484 
2436.314 48736904 48919132 49099108 49277480 49454224 49629180 49801608 
2439.690 49972276 50141788 50312112 50484624 50660108 50838044 51016988 
2443.065 51194628 51368680 51537432 51699908 51855684 52005352 52149956 
2446.440 52290456 52428760 52566248 52704080 52842776 52981480 53118696 
2449.815 53252884 53382540 53507248 53628136 53746688 53864416 53981948 
2453.191 54098312 54211516 54319304 54420056 54513324 54600184 54682740 
2456.566 54762564 54841280 54919672 54997696 55075664 55154132 55233596 
2459.941 55314692 55397272 55479752 55560328 55636780 55707740 55772988 
2463.316 55833268 55889720 55942972 55992384 56036112 56072188 56098656 
2466.692 56115656 56124484 56127648 56127912 56127348 56126596 56124860 
2470.067 56120900 56112716 56098992 56078900 56052172 56019336 55981188 
2473.442 55938936 55894544 55849548 55805276 55762360 55720248 55676968 
2476.817 55630640 55579120 55521696 55458632 55390908 55319960 55246240 
2480.193 55169184 55087360 54998788 54902376 54797448 54684880 54565844 
2483.568 54441728 54313412 54181372 54045360 53905380 53761500 53614000 
2486.943 53463140 53309108 53151464 52989868 52824256 52654812 52482636 
2490.318 52308916 52134748 51960944 51787288 51613512 51438988 51263372 
2493.694 51086568 50908824 50729516 50547788 50362564 50172364 49976180 
2497.069 49774480 49568340 49359368 49149268 48939160 48729448 48519880 
2500.444 48310668 48101852 47894548 47689484 47486772 47285888 47084952 
2503.819 46881636 46674244 46462016 46245572 46027212 45809148 45593544 
2507.195 45381656 45173620 44969136 44767800 44570080 44376160 44187204 
2510.570 44003536 43825552 43653028 43485476 43322828 43165328 43013440 
2513.945 42867676 42728396 42595708 42469160 42348528 42234024 42125804 
2517.320 42024608 41930560 41843748 41763456 41688788 41619172 41553900 
2520.696 41493380 41437788 41387304 41341312 41298968 41259356 41221976 
2524.071 41187292 41156328 41130428 41110212 41095460 41084644 41074884 
2527.446 41064068 41050520 41033692 41014796 40995240 40976556 40959556 
2530.821 40944080 40929808 40915972 40902176 40888048 40873416 40857468 
2534.197 40839304 40817832 40792568 40763596 40732264 40700348 40669856 
2537.572 40641948 40616732 40593524 40571404 40548956 40526188 40502836 
2540.947 40479156 40455080 40429804 40401876 40370168 40333772 40292940 
2544.322 40248884 40203628 40158412 40114436 40072140 40030680 39990064 
2547.698 39949956 39910328 39871824 39834892 39799300 39764804 39730600 
2551.073 39695964 39660748 39625208 39590000 39556172 39524564 39495892 
2554.448 39470600 39449268 39431848 39418424 39408772 39402060 39397236 
2557.823 39392848 39387988 39382000 39374924 39367416 39360304 39354536 
2561.198 39350656 39349096 39350292 39354536 39361828 39372820 39387260 
2564.574 39405000 39425500 39447852 39471872 39497528 39525180 39555880 
2567.949 39590072 39628260 39670440 39715968 39764328 39815024 39867792 
2571.324 39922604 39979240 40037660 40097684 40159392 40223072 40289416 
2574.699 40359480 40434348 40514876 40601600 40694232 40792676 40896276 
2578.075 41004452 41116552 41231304 41346924 41461408 41573116 41680512 
2581.450 41783772 41884032 41983000 42083272 42185936 42290964 42397332 
2584.825 42503324 42606928 42707632 42805180 42900408 42994268 43087164 
2588.200 43178864 43268576 43355704 43439776 43520892 43599760 43677024 
2591.576 43753168 43828152 43901724 43973872 44044972 44115676 44187272 
2594.951 44260684 44336308 44413812 44492692 44572028 44651524 44731000 
2598.326 44811000 44891460 44972848 45054660 45136636 45218992 45302244 
2601.701 45387760 45476824 45570544 45669656 45773580 45881760 45992696 
2605.077 46105388 46219000 46333080 46447300 46561552 46675612 46789736 
2608.452 46904372 47020516 47139352 47261764 47388348 47518376 47650696 
2611.827 47783644 47916044 48047444 48178260 48309668 48443044 48579424 
2615.202 48718996 48861400 49005588 49150380 49294556 49437216 49577960 
2618.578 49716292 49852224 49986144 50118508 50249948 50381204 50512464 
2621.953 50643984 50774988 50905024 51033684 51160892 51287388 51413508 
2625.328 51539708 51665796 51791168 51914416 52034708 52151488 52264892 
2628.703 52375864 52485476 52594484 52703332 52812432 52921256 53030036 
2632.079 53138804 53247824 53357212 53466812 53575728 53683544 53789664 
2635.454 53894124 53997596 54100788 54204120 54307400 54409428 54508404 
2638.829 54602852 54691760 54774820 54852932 54927264 54998788 55068256 
2642.204 55135928 55201652 55265620 55328504 55390460 55452268 55513824 
2645.580 55574296 55632600 55687700 55739196 55787376 55833268 55878300 
2648.955 55923712 55970220 56017716 56066080 56114640 56163432 56212684 
2652.330 56262880 56314368 56367180 56421472 56476448 56531964 56587896 
2655.705 56644216 56701036 56758692 56817032 56876480 56937372 57000536 
2659.081 57066996 57137816 57213748 57294796 57380252 57468856 57559264 
2662.456 57650364 57741752 57833272 57925192 58017244 58109464 58201408 
2665.831 58292984 58384620 58477528 58573188 58673528 58779432 58891624 
2669.206 59009540 59132228 59258376 59386840 59516436 59646268 59775908 
2672.582 59904824 60033020 60161104 60290020 60421416 60556620 60696708 
2675.957 60841448 60989864 61140196 61290964 61440752 61589256 61736552 
2679.332 61883440 62029956 62176288 62321372 62464784 62606288 62746040 
2682.707 62884612 63023084 63161968 63301100 63439964 63577572 63712612 
2686.083 63844852 63973912 64099780 64222916 64343444 64461464 64577364 
2689.458 64692140 64806676 64922400 65040192 65160440 65282920 65406704 
2692.833 65531024 65655380 65779812 65904892 66031164 66159024 66288232 
2696.208 66418096 66547768 66676468 66804164 66931092 67057432 67183112 
2699.583 67308336 67432424 67555000 67676152 67795776 67914696 68033224 
2702.959 68151480 68269104 68385752 68501080 68615616 68730256 68846448 
2706.334 68965888 69089296 69216848 69347904 69481056 69614824 69747680 
2709.709 69878656 70006208 70129160 70245848 70354848 70455032 70545992 
2713.084 70628128 70702360 70769704 70831136 70887264 70938480 70985304 
2716.460 71028456 71069120 71108656 71148504 71189408 71231456 71274240 
2719.835 71316808 71358632 71399320 71438536 71475952 71511184 71543296 
2723.210 71571352 71594560 71612264 71624536 71631760 71634256 71632384 
2726.585 71626056 71615224 71599952 71580728 71558256 71533264 71506072 
2729.961 71476496 71443840 71407168 71365616 71319344 71268856 71215064 
2733.336 71158304 71099016 71036024 70968408 70894984 70815224 70729536 
2736.711 70639048 70544592 70447032 70346512 70242416 70133920 70020264 
2740.086 69901192 69776896 69647776 69514344 69376904 69235664 69090464 
2743.462 68941544 68789496 68635056 68479120 68322576 68165824 68009048 
2746.837 67852360 67696016 67540136 67385296 67231664 67079356 66928460 
2750.212 66778816 66630424 66483460 66338292 66195108 66053732 65913416 
2753.587 65773024 65631488 65487600 65340608 65190584 65037608 64881920 
2756.963 64723060 64560564 64393280 64220460 64041296 63855484 63663156 
2760.338 63464276 63259124 63047520 62829396 62604988 62374996 62140808 
2763.713 61904112 61667004 61431516 61199512 60972516 60752380 60539896 
2767.088 60336620 60142988 59959488 59785756 59621408 59465404 59317512 
2770.464 59177680 59046016 58922780 58808268 58701784 58602080 58507892 
2773.839 58417256 58328760 58241148 58153708 58066060 57978012 57889340 
2777.214 57800116 57710568 57621080 57531836 57443292 57355104 57266672 
2780.589 57177424 57086308 56992940 56897516 56800492 56702396 56603788 
2783.965 56505016 56405588 56305464 56204232 56101520 55997436 55891788 
2787.340 55784364 55674104 55560104 55440640 55314620 55181072 55039480 
2790.715 54889744 54731632 54565428 54391328 54210016 54022772 53831784 
2794.090 53639384 53447924 53259360 53075036 52895280 52719752 52548224 
2797.466 52380460 52216948 52057904 51904144 51755856 51612992 51475092 
2800.841 51341456 51212184 51087200 50966832 50851604 50741584 50635904 
2804.216 50533640 50433040 50332540 50231056 50127660 50022320 49915776 
2807.591 49808444 49701808 49596304 49492916 49391664 49292960 49196356 
2810.967 49101664 49008668 48917764 48829584 48745060 48665624 48592580 
2814.342 48526920 48469384 48420708 48381220 48351408 48332184 48323852 
2817.717 48326704 48340408 48363780 48395668 48434524 48478904 48527736 
2821.092 48580536 48636568 48695384 48755916 48816720 48876932 48935156 
2824.468 48990492 49042384 49090500 49134056 49172680 49205484 49232128 
2827.843 49252800 49268240 49279452 49288432 49296560 49305132 49314712 
2831.218 49325548 49337392 49349900 49362856 49376368 49390664 49406848 
2834.593 49426004 49450104 49480960 49520136 49568860 49627324 49695084 
2837.969 49771284 49855640 49949080 50054144 50175000 50317360 50487152 
2841.344 50689932 50930360 51212556 51539744 51915312 52343008 52825452 
2844.719 53363920 53956060 54594396 55264568 55945116 56609712 57225620 
2848.094 57760412 58183484 58468580 58598740 58567800 58381096 58054016 
2851.469 57610788 57082040 56497620 55887044 55275968 54683116 54122444 
2854.845 53602680 53128248 52700336 52318116 51978460 51677252 51409744 
2858.220 51171324 50957556 50765232 50592124 50436504 50297452 50174148 
2861.595 50065968 49972316 49892804 49826948 49774664 49735388 49708716 
2864.970 49694000 49690772 49698572 49717332 49746872 49787224 49837840 
2868.346 49897600 49964660 50037304 50113456 50191404 50270148 50348388 
2871.721 50424556 50496980 50563308 50621348 50669940 50709408 50741396 
2875.096 50769512 50797560 50829032 50866280 50910460 50961060 51017320 
2878.471 51078480 51144080 51214424 51290556 51373004 51462524 51559408 
2881.847 51663368 51773664 51889584 52009496 52131984 52255140 52377432 
2885.222 52497256 52614008 52726972 52836376 52941920 53043064 53138768 
2888.597 53227600 53307648 53377820 53437096 53485324 53522916 53550692 
2891.972 53569392 53580040 53583412 53580488 53572056 53558936 53541316 
2895.348 53519508 53492860 53461040 53423568 53380100 53330048 53272472 
2898.723 53205840 53128132 53037260 52931436 52810672 52676288 52531320 
2902.098 52380164 52226364 52073296 51923192 51777432 51637620 51506244 
2905.473 51387180 51285560 51207040 51156900 51139232 51157460 51213896 
2908.849 51311252 51453572 51645380 51891864 52197216 52563556 52988708 
2912.224 53466924 53987388 54534620 55090824 55634480 56142092 56591744 
2915.599 56960640 57230192 57386944 57423360 57338884 57139440 56836708 
2918.974 56445204 55981452 55462396 54902636 54315324 53711704 53099560 
2922.350 52485552 51874424 51269712 50674516 50091736 49524372 48975100 
2925.725 48447048 47942388 47462784 47008960 46580732 46177172 45796924 
2929.100 45438340 45099912 44780436 44478820 44194432 43926760 43675340 
2932.475 43439444 43217916 43009304 42811836 42623596 42442852 42268684 
2935.851 42100864 41939792 41786328 41641816 41507084 41382748 41269268 
2939.226 41166928 41075940 40996368 40928240 40870940 40823180 40783252 
2942.601 40749116 40718872 40691104 40665380 40641768 40620772 40602656 
2945.976 40587556 40575004 40565036 40557616 40553904 40555688 40565220 
2949.352 40584608 40614988 40655992 40705260 40759232 40812880 40861180 
2952.727 40899808 40925440 40936688 40933960 40919140 40895332 40865916 
2956.102 40833808 40801704 40770696 40741508 40714468 40689832 40668072 
2959.477 40650208 40636888 40628448 40624300 40623212 40623356 40622736 
2962.853 40620372 40615752 40609892 40604400 40601128 40602396 40610332 
2966.228 40626812 40653336 40691468 40741836 40804656 40879056 40963012 
2969.603 41054016 41149044 41245148 41340180 41431920 41519152 41600464 
2972.978 41675000 41741896 41801212 41853968 41902020 41948512 41996908 
2976.354 42050380 42111232 42181080 42259776 42346884 42441244 42542060 
2979.729 42648888 42761632 42880696 43006744 43140512 43282708 43433696 
2983.104 43593384 43760864 43934312 44111016 44287176 44458628 44621488 
2986.479 44771656 44906048 45022204 45118400 45193180 45245504 45274444 
2989.854 45278860 45257640 45209580 45133916 45030216 44899504 44744144 
2993.230 44568244 44377296 44177260 43973764 43771604 43573236 43379540 
2996.605 43190212 43004660 42822476 42645016 42474456 42314008 42167168 
2999.980 42036292 41922892 41827368 41748936 41686164 41637948 41602796 
3003.355 41579240 41566076 41561844 41564692 41573368 41586752 41603996 
3006.731 41625440 41651224 41682152 41718440 41760356 41807012 41857324 
3010.106 41909500 41961508 42011432 42057788 42099404 42135912 42167460 
3013.481 42194372 42217048 42235560 42249696 42259080 42263168 42261744 
3016.856 42254552 42241696 42223256 42199264 42169800 42134708 42094660 
3020.232 42050564 42003768 41955848 41908260 41861192 41814052 41765096 
3023.607 41712060 41652464 41584892 41508468 41423608 41331508 41233668 
3026.982 41131776 41027212 40920996 40813896 40706496 40598944 40491084 
3030.357 40382640 40272696 40160884 40046816 39930232 39811792 39691680 
3033.733 39570364 39447996 39324316 39199336 39072684 38944872 38816484 
3037.108 38688572 38561852 38436980 38314132 38193276 38073536 37954444 
3040.483 37834840 37713576 37589128 37459800 37323980 37180728 37029624 
3043.858 36871428 36707772 36540684 36372436 36204648 36038576 35874948 
3047.234 35714440 35557872 35406360 35261044 35122672 34991496 34867072 
3050.609 34748316 34634332 34524040 34417072 34313356 34212424 34113812 
3053.984 34016084 33917804 33817432 33714652 33609600 33503644 33398576 
3057.359 33295784 33195592 33097782 33001352 32904982 32808524 32712948 
3060.735 32619602 32530640 32447654 32371144 32300398 32234016 32170210 
3064.110 32107666 32045736 31984634 31925182 31868130 31813756 31761744 
3067.485 31711270 31661082 31610266 31557884 31503546 31447404 31389556 
3070.860 31329974 31268760 31205596 31140414 31073210 31003920 30933002 
3074.236 30860958 30788570 30716338 30644722 30574360 30505434 30438010 
3077.611 30372374 30308452 30246210 30185646 30126580 30068946 30012526 
3080.986 29957390 29903432 29851044 29800188 29750792 29702324 29653862 
3084.361 29604270 29552982 29499714 29444960 29390004 29336508 29285534 
3087.737 29237650 29192182 29147708 29102462 29054952 29004720 28952546 
3091.112 28900236 28849774 28803072 28761364 28724548 28691840 28662284 
3094.487 28634854 28608772 28583820 28560218 28537748 28516588 28496528 
3097.862 28477388 28459096 28441654 28425312 28409854 28395384 28381378 
3101.238 28367442 28353434 28339146 28325282 28312372 28301128 28291932 
3104.613 28284930 28279554 28274922 28270148 28264030 28255684 28244688 
3107.988 28230508 28213360 28193808 28172452 28150498 28129004 28108748 
3111.363 28090190 28073330 28057812 28043178 28029254 28015930 28003772 
3114.739 27993064 27984052 27976630 27970304 27963804 27956206 27946488 
3118.114 27933874 27918042 27899106 27876988 27852432 27825938 27798562 
3121.489 27771502 27746214 27723538 27704078 27687552 27672754 27658170 
3124.864 27642420 27624446 27604392 27582784 27561212 27540876 27522800 
3128.240 27507162 27493288 27480546 27467628 27453968 27439426 27424214 
3131.615 27409320 27395274 27383134 27373218 27365808 27360866 27358008 
3134.990 27356844 27356984 27357902 27359066 27359914 27359914 27358220 
3138.365 27354268 27347704 27338458 27326920 27314218 27301550 27290506 
3141.740 27281898 27275970 27272548 27270572 27268738 27266232 27262598 
3145.116 27258222 27253530 27249262 27245488 27242170 27238504 27233916 
3148.491 27228484 27222698 27217794 27215502 27216808 27222170 27230776 
3151.866 27240866 27249932 27256106 27257730 27254802 27247888 27238748 
3155.241 27229364 27221780 27217652 27217936 27223580 27234550 27250428 
3158.617 27270254 27292376 27314924 27335918 27353772 27367606 27377698 
3161.992 27385180 27391568 27398980 27408828 27421710 27437626 27455768 
3165.367 27475006 27494208 27512740 27530214 27546842 27563152 27579782 
3168.742 27597328 27616608 27637900 27661418 27687446 27715520 27745330 
3172.118 27776058 27807144 27837984 27868508 27898892 27929492 27960446 
3175.493 27991756 28022786 28052862 28080930 28106520 28129532 28150744 
3178.868 28171392 28192710 28215480 28240268 28266470 28293312 28319694 
3182.243 28345158 28369598 28393334 28417246 28441866 28467798 28494900 
3185.619 28522782 28550664 28577594 28602720 28625298 28644552 28660302 
3188.994 28672230 28680478 28686176 28690212 28694246 28699662 28707592 
3192.369 28718176 28731662 28746956 28763030 28779280 28795140 28810720 
3195.744 28826616 28843578 28861884 28882388 28904912 28928994 28954246 
3199.120 28980138 29005782 29031040 29055554 29079078 29101506 29122942 
3202.495 29143386 29163336 29183072 29203344 29224892 29248212 29273732 
3205.870 29301556 29331296 29362422 29394080 29425814 29457088 29488258 
3209.245 29519856 29552342 29586286 29622006 29658580 29695156 29730958 
3212.621 29764842 29796746 29827548 29858354 29891188 29927428 29967970 
3215.996 30013058 30061808 30112944 30164938 30216334 30266316 30314562 
3219.371 30361322 30407126 30453008 30499818 30548482 30599318 30652828 
3222.746 30708550 30765950 30823750 30880774 30935848 30988084 31037300 
3226.122 31083460 31127422 31170102 31212752 31256154 31301554 31349062 
3229.497 31398748 31450324 31503014 31555816 31607698 31657592 31704568 
3232.872 31748198 31788338 31825520 31860854 31895156 31929712 31965696 
3236.247 32003290 32042418 32082372 32122220 32160972 32197830 32232910 
3239.623 32266560 32300078 32334630 32371040 32409594 32450118 32491286 
3242.998 32532282 32571674 32608672 32643322 32676224 32708090 32739956 
3246.373 32772828 32807168 32843438 32881606 32921568 32962888 33005428 
3249.748 33048726 33092454 33136472 33180178 33223846 33267238 33310164 
3253.124 33352562 33394710 33436290 33477806 33519502 33561664 33604768 
3256.499 33649052 33694492 33740648 33786920 33832332 33876324 33918524 
3259.874 33958540 33997168 34034756 34072136 34110088 34148868 34188516 
3263.249 34228848 34269428 34309556 34348820 34386976 34423992 34460256 
3266.625 34496020 34531856 34567700 34603976 34640112 34675960 34710524 
3270.000 34743580 34774268 34802308 34827616 34850340 34870624 34889260 
3273.375 34906928 34924484 34942944 34962908 34984672 35008700 35034524 
3276.750 35061784 35090020 35118292 35145776 35171712 35195176 35215332 
3280.125 35232368 35246488 35258564 35270136 35282896 35298312 35317252 
3283.501 35339608 35364408 35390292 35415240 35437776 35457048 35472544 
3286.876 35484552 35493864 35501812 35509648 35518568 35530112 35544928 
3290.251 35563376 35584736 35607932 35631348 35653284 35672424 35688500 
3293.626 35701956 35713756 35725304 35737532 35750956 35765596 35781140 
3297.002 35797368 35814168 35831840 35850836 35871564 35893912 35917668 
3300.377 35942396 35967192 35991780 36015968 36039764 36063200 36086820 
3303.752 36110728 36135144 36160240 36186100 36212532 36239256 36265732 
3307.127 36290944 36314468 36336012 36356584 36377804 36401472 36429504 
3310.503 36463128 36502480 36546380 36593204 36641256 36689312 36736800 
3313.878 36784328 36832760 36883332 36936540 36993000 37052648 37115220 
3317.253 37180552 37248560 37319504 37393712 37471108 37551808 37635340 
3320.628 37721092 37808420 37896448 37984640 38072884 38161400 38251020 
3324.004 38342144 38435492 38531036 38627796 38724428 38818768 38909212 
3327.379 38994780 39075512 39152452 39227004 39300924 39374816 39449156 
3330.754 39523292 39596500 39668516 39739096 39808308 39876112 39942036 
3334.129 40004628 40062800 40115604 40162740 40205444 40245792 40285780 
3337.505 40327008 40369692 40412712 40454356 40492940 40527244 40557616 
3340.880 40585336 40611860 40638128 40664216 40689068 40711120 40728808 
3344.255 40741032 40747368 40748528 40745000 40737760 40727604 40715048 
3347.630 40700568 40684516 40667052 40647988 40627028 40603380 40576132 
3351.006 40545248 40510692 40473120 40433440 40391984 40348860 40303596 
3354.381 40255132 40203080 40147400 40089144 40029884 39971320 39914468 
3357.756 39859912 39807216 39755432 39703732 39651852 39599620 39546992 
3361.131 39493824 39439216 39382324 39321888 39256928 39187660 39114776 
3364.507 39039148 38962232 38884284 38805508 38725336 38643224 38558772 
3367.882 38472528 38384780 38296364 38207384 38117448 38025756 37931300 
3371.257 37833432 37732372 37628764 37523484 37417800 37311992 37205996 
3374.632 37099160 36990764 36880192 36767812 36653836 36539316 36425148 
3378.008 36312124 36200036 36088732 35977924 35867212 35756748 35646816 
3381.383 35537480 35429040 35320952 35212176 35101624 34988228 34871524 
3384.758 34751908 34631068 34510868 34393612 34281120 34174248 34072420 
3388.133 33974376 33877900 33780688 33681028 33577812 33470970 33361078 
3391.509 33249174 33136830 33025630 32916420 32810096 32706800 32606140 
3394.884 32507070 32408380 32308430 32206110 32101032 31993554 31884674 
3398.259 31775824 31668424 31563122 31459872 31357504 31254552 31149454 
3401.634 31041358 30930156 30817026 30703644 30592172 30484142 30380404 
3405.010 30280598 30184082 30088724 29993174 29895588 29794970 29690828 
3408.385 29582632 29470916 29355616 29237722 29117874 28997140 28876722 
3411.760 28757720 28640694 28525860 28412576 28299994 28187194 28073400 
3415.135 27958822 27843778 27729118 27615726 27503702 27392380 27280804 
3418.510 27167492 27051566 26932920 26812580 26692344 26574218 26459824 
3421.886 26350070 26244464 26141732 26040188 25938032 25833826 25726938 
3425.261 25617652 25506706 25395262 25284582 25175230 25067558 24961174 
3428.636 24855238 24748764 24640812 24531202 24420462 24309578 24199632 
3432.011 24091778 23986088 23882350 23779476 23676418 23572194 23466874 
3435.387 23360918 23255264 23150792 23047848 22945974 22844336 22741846 
3438.762 22636972 22529508 22419138 22306250 22192278 22078230 21965568 
3442.137 21855900 21750510 21649568 21552374 21456944 21360038 21258454 
3445.512 21149348 21031608 20906356 20776968 20647688 20523032 20405880 
3448.888 20296916 20194784 20096596 19999438 19900186 19798008 19692700 
3452.263 19585060 19476476 19368404 19261884 19157328 19055116 18955146 
3455.638 18856752 18759006 18660764 18560744 18458120 18352446 18244066 
3459.013 18133742 18022586 17911180 17800116 17689422 17578998 17469226 
3462.389 17360652 17254210 17151134 17052290 16958118 16868204 16782338 
3465.764 16699312 16618265 16537922 16457042 16374078 16287999 16197776 
3469.139 16103687 16006524 15907871 15809411 15712932 15618810 15526666 
3472.514 15435778 15344873 15253851 15163431 15074883 14989782 14909019 
3475.890 14832316 14758438 14684915 14609587 14530711 14447258 14359471 
3479.265 14267903 14173716 14078148 13982429 13888237 13797007 13710172 
3482.640 13628723 13552383 13479816 13408525 13335401 13257780 13173888 
3486.015 13083695 12988469 12890976 12794290 12701310 12613978 12532837 
3489.391 12457473 12386452 12318136 12250649 12183172 12115160 12047261 
3492.766 11980156 11914424 11850574 11787959 11725218 11660886 11593739 
3496.141 11523437 11450562 11376984 11304134 11233301 11164520 11096667 
3499.516 11028112 10956985 10882472 10804879 10725570 10646785 10570321 
3502.892 10497198 10427481 10360389 10295003 10230238 10165990 10102431 
3506.267 10040001 9979206 9920149 9863066 9807448 9753260 9700739 9649477 
3510.124 9599713 9550869 9502673 9454720 9407077 9359845 9313600 9268850 
3513.982 9225594 9183357 9141292 9098151 9052373 9003320 8951092 8896098 
3517.839 8839622 8783121 8727606 8674128 8622650 8573070 8524679 8476530 
3521.697 8427777 8377916 8326642 8273922 8219789 8164280 8107697 8049333 
3525.554 7988985 7925912 7860183 7792812 7724641 7657829 7594333 7535194 
3529.411 7481458 7433053 7389204 7348527 7309639 7271025 7231134 7188618 
3533.269 7142369 7091611 7036144 6976678 6914425 6851306 6788937 6728764 
3537.126 6671931 6618435 6568613 6522127 6478739 6438012 6399375 6361648 
3540.984 6323790 6284289 6242135 6196389 6147321 6095033 6039693 5981841 
3544.841 5921713 5859880 5797620 5736812 5679806 5628681 5585148 5548801 
3548.698 5518363 5491048 5463499 5433168 5398008 5357550 5311965 5262627 
3552.556 5211250 5159846 5110123 5063793 5022294 4986429 4955930 4929958 
3556.413 4906600 4883880 4859856 4833754 4805242 4775091 4744373 4713254 
3560.271 4682506 4651895 4621921 4593055 4566769 4543933 4524380 4507238 
3564.128 4488958 4464654 4429806 4380502 4316379 4239851 4157516 4077002 
3567.986 4005065 3946012 3900775 3867878 3843976 3826192 3811752 3798983 
3571.843 3786583 3774283 3761749 3748748 3735514 3722346 3709580 3697984 
3575.700 3687926 3679271 3671519 3663365 3653140 3638940 3619527 3594269 
3579.558 3563934 3530495 3496190 3464126 3436772 3415365 3400104 3389885 
3583.415 3383039 3377463 3370985 3361468 3346743 3324372 3292353 3249821 
3587.273 3197847 3140673 3084774 3037324 3004092 2987878 2987644 2999154 
3591.130 3016170 3032920 3044598 3048702 3045132 3035656 3021876 3005727 
3594.988 2987978 2968861 2948778 2928763 2910149 2894806 2883398 2875493 
3598.845 2869256 2862418 2853080 2840906 2826732 2812792 2801453 2794684 
3602.702 2793183 2796818 2804988 2816827 2830734 2845309 2857282 2863186 
3606.560 2859183 2842641 2813526 2775175 2733694 2695918 2667580 2650511 
3610.417 2642944 2641377 2641677 2641610 2641343 2643777 2651944 2668680 
3614.275 2694051 2726259 2761704 2796518 2827099 2850912 2865821 2870023 
3618.132 2862852 2845075 2820029 2793183 2772441 2764538 2774375 2803087 
3621.990 2848077 2905012 2968595 3035055 3102494 3170444 3239606 3310115 
3625.847 3379366 3442550 3492616 3521910 3525718 3505643 3471841 3440246 
3629.704 3428390 3447693 3500232 3581273 3682212 3793268 3905623 4013559 
3633.562 4114130 4208099 4299212 4392150 4491302 4599082 4715934 4840187 
3637.419 4969939 5103083 5238917 5377276 5518497 5662115 5806988 5951373 
3641.277 6093722 6234505 6375871 6521151 6674286 6837068 7008632 7183936 
3645.134 7355267 7513786 7650882 7759787 7836904 7881541 7895814 7883667 
3648.991 7851513 7807925 7764105 7732466 7724202 7745148 7794600 7865481 
3652.849 7945384 8018618 8070193 8087780 8063847 7998334 7900571 7787482 
3656.706 7678739 7590759 7532396 7503201 7495448 7496661 7495009 7479739 
3660.564 7444884 7389473 7317221 7234941 7149240 7065645 6986712 6912641 
3664.421 6843161 6778369 6720352 6671931 6634955 6609520 6592700 6580959 
3668.279 6574736 6584525 6633239 6757840 7000719 7393552 7953111 8678184 
3672.136 9557948 10578129 11721269 12958768 14223529 15395369 16308261 
3675.511 16775554 16671801 15982872 14799026 13266491 11537218 9753598 
3678.886 8029250 6459569 5119981 4048039 3245214 2677581 2292687 2032685 
3682.744 1849864 1714687 1611045 1532499 1474446 1430430 1390673 1345335 
3686.601 1286377 1210547 1120015 1021131 922303 830071 748712 680708 627216 
3690.941 589589 568421 562715 569284 583385 599311 613080 622836 628742 
3695.281 632525 635379 638000 639825 639560 636407 630600 622471 611986 
3699.620 598149 578209 549610 511161 464887 415865 371889 339922 324503 
3703.960 325962 341016 364428 391456 418220 442996 465617 486116 503796 
3708.299 516966 522539 517364 498887 466446 420939 365821 306730 249968 
3712.639 202562 170342 156255 160365 179921 209689 243868 276525 304144 
3716.979 325730 343006 358658 375471 394606 414804 433244 446876 454472 
3721.318 456959 457225 458187 462167 469166 476397 480643 478520 469033 
3725.658 453643 436263 421968 415732 420674 437788 465550 500280 536771 
3729.997 568620 590385 597386 588295 565568 535278 504294 477193 454903 
3734.337 433476 407839 373846 331964 288262 252223 232165 232364 251261 
3738.677 284051 323807 365589 406214 445118 481372 512620 532160 530070 
3743.016 495603 423427 320988 210120 121353 78534 88046 139781 214894 292804 
3747.838 354977 389897 393114 367777 322646 268037 212374 160564 115122 
3752.177 78932 56232 51195 66107 99280 144753 194275 239625 274038 294131 
3756.999 300430 295855 283852 267706 248709 226994 203656 181347 163646 
3761.339 154829 157249 170375 191225 214761 236608 253847 265915 274801 
3765.678 283653 294429 307194 319198 326890 326327 315650 295722 269828 
3770.018 244034 223082 210452 206772 210551 218275 226231 231270 231701 
3774.358 227557 219767 210849 202893 197026 193313 189733 184065 174286 
3778.697 160066 143626 128943 120657 122314 134246 154365 178297 201203 
3783.037 219170 230408 235249 235845 235050 235547 238299 243106 249106 
3787.376 254974 259749 263362 265385 266346 266512 265982 265319 265319 
3791.716 266512 269463 274038 278945 282128 281697 276061 265783 253118 
3796.056 242244 238564 245625 265086 294827 329875 363002 386249 392484 
3800.395 377925 344100 298806 255074 225469 217745 232364 263097 300032 
3804.735 331400 346886 339823 309383 261672 208131 162420 133683 125894 
3809.074 136732 160928 192849 228154 264655 302320 341680 382402 422830 
3813.414 459414 487111 501342 499683 483628 460177 440110 432913 445450 
3817.754 477392 523302 573066 615370 639095 636341 606046 555582 499252 
3822.093 452216 424919 419580 431884 452979 473511 486613 489068 482202 
3826.433 471056 462067 460542 468337 483993 503398 522042 536240 544534 
3830.772 547553 548150 549809 555648 567526 585840 609231 635279 660631 
3835.112 681372 693518 693717 680011 653132 616564 576318 538961 509336 
3839.452 489566 478752 473810 470559 465782 457158 443825 426876 407872 
3843.791 389632 375338 367777 369535 382104 405915 439712 482003 530534 
3848.131 582920 638332 695476 753325 809655 859319 894047 903045 874259 
3852.470 800261 683662 541714 401206 288196 218176 191755 200341 231469 
3856.810 274337 320225 364395 404357 439181 468204 490959 506483 514545 
3861.150 515407 510497 501740 490594 478785 467640 457988 452349 453775 
3865.489 465152 488736 522838 563279 602197 631264 642612 632193 602396 
3869.829 562350 524961 501143 495802 505754 523137 537866 541615 531463 
3874.168 509734 483595 462565 454671 463527 487774 522009 558734 590020 
3878.508 608966 612052 598946 574493 545928 522573 512156 518459 540255 
3882.848 571971 605349 630799 640024 629373 601036 563777 529804 510630 
3887.187 512687 535212 571706 612881 648453 669657 671748 654393 622670 
3891.527 584878 550141 525658 515009 518691 534150 558767 588959 621807 
3895.866 655222 687014 715190 738290 754819 764345 766934 763947 757607 
3900.206 750239 743434 737792 732150 724483 712303 694082 670421 643674 
3904.546 617991 597884 586205 584115 590584 602396 616564 630069 641086 
3908.885 649150 654857 659105 663020 667434 672810 679713 688474 699392 
3913.225 712303 726209 739219 748579 752230 748479 737958 722956 707192 
3917.564 695012 689436 691560 701085 716318 734971 755317 776095 795779 
3921.904 812842 824925 829772 825158 810751 788643 762520 738057 720699 
3926.244 713398 717181 730092 748811 769324 787979 802551 811979 816261 
3930.583 816294 812676 806767 799431 792659 787481 785091 785887 789638 
3934.923 794983 800626 805140 808095 809589 810618 812178 814933 819249 
3939.262 824096 827614 828179 823764 813672 798302 779514 759997 743136 
3943.602 731785 727603 730689 739518 751433 763449 772975 778253 779083 
3947.942 776560 772510 768926 767332 768527 772577 778784 786153 793887 
3952.281 801124 806966 810751 812045 809987 804941 797771 789240 780709 
3956.621 773506 768129 764976 764013 764644 766237 768395 770087 770751 
3960.960 769888 767266 763316 759466 757342 759034 766005 778386 795116 
3965.300 814601 833988 851550 866092 877978 887872 896836 905270 913039 
3969.640 919315 923100 923963 921971 918120 913073 907959 903012 897832 
3973.979 891657 884253 875454 865926 857028 849824 845243 844014 846338 
3978.319 852214 861377 873628 887938 903377 918452 931567 941363 947174 
3982.658 948602 946410 941363 934323 926188 917522 908822 900488 893284 
3986.998 887540 883821 881995 881431 882028 883057 884585 886743 890329 
3991.338 895242 901717 909121 916659 923797 930405 936648 943322 951059 
3995.677 959859 969323 978356 985529 990179 991939 991108 988418 984898 
4000.017 980648 976164 
##END=
