
##TITLE=Z345_1_a
##JCAMP-DX=5.01  $$ Nicolet v. 1
##DATATYPE=INFRARED SPECTRUM
##ORIGIN=UniL
##OWNER=Nicolet
##LONGDATE=2011/09/14
##TIME=08:53:56
##SPECTROMETER/DATA SYSTEM=Nicolet iS5
##DATA PROCESSING=
Ratio against background
%Transmittance->Absorbance
Truncated
ElementMultiply or ElementDivide
##COMMENTS=
Number of sample scans: 32
Collection length: 51.24 sec
Sample gain: 2.0
Background collected on: Mer Sep 14 08:50:51 2011 (GMT+02:00);
Number of background scans: 32
Background gain: 2.0
Sample spacing:  1.000
Number of scan points: 12415
Resolution points: 8192
Number of FFT points: 65536
Apodization: N-B fort;
Phase correction: Mertz;
Laser frequency: 15798.0 cm-1
Number of rejected sample scans: 0
Number of rejected background scans: 0
Bench serial number: ASB1000141;
##RESOLUTION=4.000
##XUNITS=1/CM
##YUNITS=ABSORBANCE
##FIRSTX=649.893372
##LASTX=4000.122314
##FIRSTY=0.121964
##MAXX=4000.122314
##MINX=649.893372
##MAXY=0.406192
##MINY=-0.002688
##XFACTOR=1.000000
##YFACTOR=1.000000E-009
##NPOINTS=6950
##DELTAX=0.482117
##ZPD=6100
##XYDATA=(X++(Y..Y))
649.893 121963704 122170152 122560312 123153928 123924832 124814120 
652.786 125754688 126707672 127674672 128692296 129804656 131040648 
655.679 132395160 133839440 135340592 136887168 138499152 140220240 
658.571 142091760 144127296 146303600 148572000 150887168 153230208 
661.464 155620576 158100544 160710304 163458304 166314960 169219344 
664.357 172112144 174952080 177706592 180335440 182745984 184755328 
667.250 186119744 186610288 186129872 184775200 182772128 180353664 
670.142 177665024 174759744 171633184 168276336 164719136 161043488 
673.035 157356112 153767712 150347696 147116640 144061632 141162016 
675.928 138413424 135835088 133456944 131300536 129361960 127609400 
678.820 125994024 124467872 123002640 121593712 120255200 119003512 
681.713 117848288 116786088 115805328 114897480 114064088 113315376 
684.606 112665440 112118200 111661280 111264768 110892872 110515952 
687.498 110120696 109712408 109306256 108914400 108533832 108142840 
690.391 107706640 107192624 106581248 105873312 105086744 104247048 
693.284 103377400 102491072 101594328 100692032 99793648 98915680 98078272 
696.659 97296152 96575280 95909272 95286296 94694208 94128928 93595288 
700.034 93104144 92663960 92276136 91932144 91618200 91320560 91031048 
703.408 90749160 90479120 90223528 89979952 89740008 89494584 89239328 
706.783 88979952 88730688 88509592 88332880 88209728 88143768 88138808 
710.158 88205264 88361184 88628432 89018792 89519464 90080888 90620912 
713.533 91034928 91214056 91081064 90600872 89791504 88712360 87453272 
716.908 86113784 84781320 83531632 82420472 81480792 80729096 80164632 
720.282 79774232 79534848 79418984 79399136 79445600 79527568 79608992 
723.657 79643456 79579064 79363056 78950640 78320464 77480216 76469240 
727.032 75345632 74178344 73032960 71956632 70981128 70120800 69376320 
730.407 68740936 68202264 67745736 67354456 67012236 66705868 66426700 
733.782 66172340 65944464 65746732 65580808 65443800 65328212 65224848 
737.156 65125948 65026568 64926900 64828984 64735556 64647220 64563520 
740.531 64484252 64411304 64349324 64305016 64282924 64283772 64302480 
743.906 64330876 64359852 64384252 64403968 64422840 64445012 64472036 
747.281 64500056 64522192 64531072 64523540 64501980 64473568 64446664 
750.656 64425832 64410500 64396008 64376912 64352624 64328076 64313352 
754.031 64320616 64358124 64427948 64526120 64645224 64778672 64922512 
757.405 65076448 65241180 65416992 65602660 65797544 66004248 66231072 
760.780 66491224 66801072 67172824 67613000 68120160 68689344 69317000 
764.155 70007336 70775552 71651416 72678840 73912208 75422568 77289760 
767.530 79588616 82374848 85647736 89323648 93198416 96963488 100236872 
770.905 102605872 103751840 103514808 101946696 99291496 95932496 92302608 
774.279 88758200 85557544 82825656 80570112 78726808 77203424 75920744 
777.654 74821224 73875680 73071456 72401056 71855640 71425408 71101664 
781.029 70880432 70761552 70745720 70829968 71006808 71264136 71591752 
784.404 71983032 72437504 72957824 73546344 74200752 74914376 75678704 
787.779 76488440 77345504 78260712 79250704 80333000 81523888 82836960 
791.154 84284504 85884448 87660728 89643920 91868720 94365336 97152872 
794.528 100234080 103592400 107189952 110963536 114831656 118688848 
797.421 122410512 125874920 128967864 131603928 133740288 135370848 
800.314 136515536 137200288 137445712 137263328 136666144 135690912 
803.206 134414576 132956240 131483496 130177472 129210368 128732936 
806.099 128842992 129583928 130940704 132844016 135168352 137730032 
808.992 140314192 142665472 144513728 145622176 145788592 144879296 
811.885 142844432 139709152 135572128 130586136 124959944 118930960 
814.777 112736776 106615472 100762560 95318856 90377928 85976280 82110368 
818.152 78750000 75851936 73368976 71252768 69459592 67945880 66668896 
821.527 65591448 64680988 63913904 63276640 62762312 62367236 62086296 
824.902 61910492 61826588 61820320 61878316 61990932 62152240 62357020 
828.277 62598868 62867692 63149252 63427804 63687288 63912332 64089716 
831.651 64206704 64251460 64216076 64098968 63909336 63666604 63400628 
835.026 63144996 62927516 62767716 62672280 62636720 62649736 62699876 
838.401 62778852 62882052 63007256 63152352 63312680 63482032 63654408 
841.776 63825816 63994796 64160688 64320580 64467192 64588280 64668992 
845.151 64697980 64670600 64591892 64474992 64338372 64200336 64075312 
848.525 63974144 63904040 63870916 63881472 63941584 64055464 64223184 
851.900 64440744 64700676 64994820 65317884 65668524 66048876 66461996 
855.275 66909560 67390128 67900168 68435592 68994712 69579016 70192992 
858.650 70841936 71529504 72257456 73025952 73835928 74691384 75599440 
862.025 76567440 77601432 78701776 79862072 81070240 82312088 83574976 
865.400 84849384 86130672 87418096 88714264 90025688 91364432 92749112 
868.774 94201728 95743896 97387368 99124696 100921344 102713984 104421304 
872.149 105945400 107192664 108087880 108575560 108631552 108261816 
875.042 107503728 106420520 105096240 103633240 102131136 100682216 99364048 
878.417 98227760 97304240 96606984 96137432 95891632 95863616 96046032 
881.792 96427352 96990872 97714376 98569048 99523184 100547000 101609736 
885.166 102682800 103739720 104753624 105701896 106569176 107350672 
888.059 108053592 108695264 109299392 109888312 110480648 111089200 
890.952 111722640 112389112 113099336 113864816 114696360 115597424 
893.844 116559904 117559608 118556400 119500424 120330432 120984072 
896.737 121406336 121550056 121389032 120922656 120181048 119221768 
899.630 118123232 116976936 115865720 114858200 114003984 113329272 
902.523 112846320 112558848 112467536 112573408 112876568 113374776 
905.415 114061416 114926064 115957752 117146144 118485144 119970512 
908.308 121597176 123355080 125227856 127191992 129222512 131297048 
911.201 133398296 135514960 137638224 139757616 141859600 143927872 
914.093 145947840 147912320 149822736 151689328 153523120 155331008 
916.986 157107888 158836608 160487968 162026784 163418880 164630528 
919.879 165634192 166409008 166942928 167238176 167315088 167217520 
922.771 167006864 166758176 166556304 166480400 166605504 167002640 
925.664 167731376 168844176 170375552 172328048 174654416 177239232 
928.557 179906080 182401216 184430192 185712272 185994192 185118720 
931.450 183050560 179886288 175842832 171219120 166377360 161662928 
934.342 157372640 153740224 150898320 148898576 147724224 147315136 
937.235 147588256 148454880 149836816 151656288 153830064 156266608 
940.128 158843952 161413136 163813040 165864720 167401536 168293328 
943.020 168451520 167853712 166545856 164645296 162319136 159760272 
945.913 157172304 154723216 152537568 150692016 149213216 148095040 
948.806 147312384 146835504 146635008 146682208 146950464 147408896 
951.698 148024352 148767040 149611008 150540528 151548560 152632864 
954.591 153790464 155014960 156294496 157617040 158973904 160362992 
957.484 161788512 163256608 164769776 166324288 167909120 169511008 
960.377 171120752 172736528 174364176 176012048 177685872 179383744 
963.269 181096480 182811440 184519376 186218672 187916144 189622528 
966.162 191346224 193088944 194845808 196608512 198371456 200135584 
969.055 201908080 203698192 205510464 207341616 209181008 211017056 
971.947 212843440 214664688 216495104 218354288 220260720 222225456 
974.840 224254032 226350480 228523616 230790912 233177120 235704592 
977.733 238388288 241227584 244208576 247307520 250501392 253772224 
980.625 257105200 260483824 263880752 267249040 270527712 273645696 
983.518 276530592 279124000 281379328 283262592 284751936 285836736 
986.411 286526528 286856864 286901024 286764032 286563232 286420512 
989.304 286433280 286661792 287135968 287859136 288823392 290018976 
992.196 291437984 293069760 294893600 296877696 298980832 301160768 
995.089 303388672 305651072 307948896 310287520 312665632 315068256 
997.982 317470976 319847808 322184288 324484032 326766624 329057664 
1000.874 331375104 333724192 336097216 338483328 340878144 343288960 
1003.767 345731776 348220768 350757376 353325728 355897056 358445536 
1006.660 360958944 363446624 365932992 368445184 370996896 373580448 
1009.552 376168832 378728736 381235392 383678624 386059872 388380512 
1012.445 390628896 392775072 394778912 396602848 398229216 399665760 
1015.338 400939840 402080576 403103296 404002048 404756224 405344192 
1018.231 405760000 406019136 406152352 406191616 406152064 406028288 
1021.123 405799392 405446240 404963360 404365344 403676704 402918336 
1024.016 402090048 401167712 400107552 398865408 397410944 395731680 
1026.909 393828640 391702304 389341280 386723328 383824864 380639232 
1029.802 377190208 373535424 369757632 365939776 362156256 358462944 
1032.695 354896480 351488096 348268160 345263232 342489024 339934176 
1035.588 337553600 335265440 332968128 330565600 327977312 325160224 
1038.481 322105376 318829760 315365088 311752032 308040544 304286912 
1041.374 300556960 296921408 293437824 290145664 287056896 284159328 
1044.267 281427968 278839872 276386496 274076672 271930848 269968288 
1047.160 268199232 266619328 265213584 263963872 262857104 261888000 
1050.053 261054544 260351040 259762256 259262032 258821456 258416320 
1052.947 258034528 257678032 257354592 257067712 256806848 256542176 
1055.840 256228720 255818224 255263296 254523808 253568112 252363888 
1058.733 250878544 249082832 246956464 244500896 241744496 238745232 
1061.626 235577520 232320112 229050944 225833856 222723392 219771472 
1064.519 217025120 214529728 212324480 210431648 208854624 207575568 
1067.412 206562320 205772592 205162016 204690800 204317008 203997200 
1070.305 203686352 203335072 202899712 202350320 201673264 200872592 
1073.198 199963232 198962528 197882416 196726864 195496560 194193856 
1076.091 192829616 191424896 190005744 188599728 187229600 185910448 
1078.984 184653472 183469440 182370960 181373600 180491312 179730688 
1081.877 179088832 178552736 178105152 177729472 177415744 177162000 
1084.770 176970736 176843600 176778192 176766544 176799200 176869744 
1087.663 176978160 177130672 177336832 177603376 177930512 178313232 
1090.556 178744304 179221712 179752544 180353360 181044048 181841968 
1093.449 182754304 183775184 184887232 186067104 187291360 188536560 
1096.343 189781136 191002032 192172304 193264416 194253840 195122224 
1099.236 195860848 196465328 196928384 197232512 197344560 197218496 
1102.129 196809584 196082128 195023584 193647504 191992096 190112416 
1105.022 188067744 185922656 183739024 181572000 179474992 177489216 
1107.915 175640080 173934336 172358960 170885840 169477232 168098640 
1110.808 166721360 165325040 163896912 162427136 160906512 159328864 
1113.701 157693792 156010768 154299616 152588752 150909392 149286928 
1116.594 147739264 146274576 144894288 143596528 142377952 141233232 
1119.487 140150832 139111136 138085440 137038000 135936016 134755360 
1122.380 133485648 132130696 130704032 129221168 127692360 126120400 
1125.273 124500480 122825776 121091072 119297336 117452384 115570280 
1128.166 113668952 111766744 109882304 108030904 106223112 104463280 
1131.059 102747696 101065536 99400000 97734336 96056736 94364672 92667488 
1134.435 90985200 89345872 87777672 86307344 84957320 83742848 82675480 
1137.810 81762728 81008304 80412496 79970688 79673592 79507432 79455392 
1141.185 79501624 79630248 79827592 80080600 80373784 80688992 81004992 
1144.560 81298360 81547672 81735488 81849816 81885136 81841288 81722896 
1147.936 81539200 81305440 81043720 80780528 80547296 80375656 80291336 
1151.311 80314584 80457240 80723464 81112688 81620680 82240528 82960752 
1154.686 83764352 84627848 85518968 86401816 87238416 87989792 88621448 
1158.061 89100872 89397488 89485104 89341480 88951400 88310056 87423000 
1161.437 86305688 84978392 83465416 81791488 79979768 78055192 76044248 
1164.812 73973536 71872256 69766544 67678624 65626824 63623564 61678500 
1168.187 59799824 57995128 56272348 54639260 53101772 51664152 50328892 
1171.562 49096880 47969472 46948744 46037192 45238516 44555432 43989636 
1174.938 43541444 43210780 42998732 42908128 42944408 43114608 43426556 
1178.313 43887244 44502052 45275400 46211036 47313596 48588616 50041468 
1181.688 51675648 53490684 55479752 57627780 59909088 62288444 64714944 
1185.063 67121120 69429416 71546696 73378312 74843984 75881328 76461456 
1188.438 76590840 76310392 75687032 74802056 73749736 72618872 71488296 
1191.814 70423808 69465736 68629152 67900520 67243032 66599636 65903196 
1195.189 65094076 64123936 62967768 61626180 60124116 58505812 56823412 
1198.564 55135288 53494772 51943880 50514140 49223152 48075388 47065196 
1201.939 46179236 45400156 44708080 44085200 43515404 42984172 42479684 
1205.315 41990700 41506612 41018980 40522220 40014768 39500324 38987208 
1208.690 38487588 38014400 37581972 37203796 36891552 36656940 36510192 
1212.065 36460100 36513472 36674568 36944044 37320552 37800756 38380760 
1215.440 39055972 39820580 40666360 41580260 42545820 43542100 44545888 
1218.816 45536176 46493804 47403356 48255012 49043088 49767456 50433448 
1222.191 51052840 51642508 52221172 52808352 53418884 54061196 54737008 
1225.566 55442144 56169128 56909532 57655852 58401788 59141720 59870596 
1228.941 60583512 61277420 61951608 62609276 63257368 63905076 64564176 
1232.317 65247804 65970996 66752812 67616792 68589960 69704024 70990760 
1235.692 72478728 74193752 76156336 78382536 80885784 83675120 86753472 
1239.067 90113584 93735064 97580664 101595000 105714152 109863528 113963448 
1242.442 117938392 121710208 125203536 128353712 131105080 133420824 
1245.335 135285024 136699296 137676032 138229136 138368128 138093088 
1248.229 137396688 136266656 134689792 132654744 130151976 127177640 
1251.122 123737192 119852216 115564136 110939968 106070592 101055456 
1254.015 96002224 91013064 86169944 81540672 77171888 73088240 69298264 
1257.390 65794884 62560020 59567248 56787200 54192108 51755892 49459644 
1260.765 47291172 45244144 43317300 41512192 39831436 38276496 36847372 
1264.140 35541940 34356748 33287414 32329022 31476260 30723094 30062340 
1267.516 29486450 28987186 28557706 28193100 27891190 27651566 27475040 
1270.891 27362066 27311958 27323604 27395838 27528908 27724314 27984866 
1274.266 28311736 28703202 29151962 29645454 30165010 30687000 31186264 
1277.641 31634748 32003466 32266990 32402630 32394816 32238084 31937346 
1281.017 31508322 30973102 30360434 29699556 29017472 28339534 27686102 
1284.392 27073324 26513320 26013448 25576742 25202092 24886008 24623382 
1287.767 24409808 24242584 24120324 24042222 24006328 24007974 24040016 
1291.142 24094510 24164250 24244616 24334528 24435360 24549748 24679178 
1294.518 24823802 24982652 25155464 25343132 25549120 25777776 26033220 
1297.893 26317646 26630440 26969550 27332706 27719442 28131620 28572568 
1301.268 29046308 29555394 30100762 30681810 31298100 31950324 32640572 
1304.643 33371344 34143420 34954508 35798268 36665300 37542812 38417396 
1308.019 39274296 40097392 40870320 41575956 42198604 42727044 43155956 
1311.394 43487016 43727040 43885888 43972992 43994588 43953228 43848572 
1314.769 43679260 43444572 43145488 42784448 42365332 41892936 41373416 
1318.144 40815680 40231324 39634904 39042812 38469960 37928228 37424660 
1321.520 36961576 36538740 36155848 35814132 35517524 35270996 35079280 
1324.895 34945244 34869512 34851092 34889652 34986720 35144876 35366928 
1328.270 35652784 35998404 36394880 36830488 37293760 37774368 38265604 
1331.645 38762468 39260080 39752348 40231104 40686520 41109560 41491736 
1335.021 41825800 42105684 42324892 42476464 42554740 42556604 42484652 
1338.396 42347432 42160924 41944716 41717968 41497972 41296232 41119248 
1341.771 40970440 40852264 40767564 40720324 40714468 40752900 40837960 
1345.146 40970660 41152904 41386576 41673652 42014172 42404052 42834472 
1348.521 43291824 43759728 44223336 44669592 45088736 45473992 45818720 
1351.897 46116220 46360584 46547128 46675244 46748408 46774532 46763060 
1355.272 46723648 46664688 46592796 46514308 46437272 46370792 46326000 
1358.647 46313284 46340412 46412384 46531748 46701104 46926448 47218504 
1362.022 47590536 48056256 48621968 49282640 50019752 50803220 51595976 
1365.398 52353284 53029288 53577936 53953096 54119664 54056996 53765216 
1368.773 53264756 52592164 51791880 50902488 49956104 48974024 47968324 
1372.148 46950332 45934904 44943636 44008080 43163164 42438760 41855756 
1375.523 41420584 41129228 40973248 40947320 41052160 41295652 41688568 
1378.899 42240344 42954212 43823756 44829552 45935160 47088572 48215468 
1382.274 49223040 50018192 50510380 50631212 50344072 49641736 48548780 
1385.649 47116268 45431060 43606608 41768564 40042128 38520100 37249968 
1389.024 36236772 35452412 34851884 34383608 34001644 33667456 33352238 
1392.400 33039536 32724664 32415520 32129570 31891414 31725488 31647220 
1395.775 31660408 31754720 31909314 32093112 32270416 32406632 32471898 
1399.150 32452080 32352760 32198116 32022302 31858858 31736824 31675018 
1402.525 31686104 31779640 31962916 32240510 32609568 33055198 33546380 
1405.901 34037980 34482352 34835692 35070440 35181200 35183572 35109420 
1409.276 34996668 34885488 34808732 34789348 34842228 34974328 35186912 
1412.651 35476068 35833276 36245848 36698288 37177192 37673500 38184156 
1416.026 38711932 39261532 39836016 40435624 41058640 41705820 42382680 
1419.402 43101648 43875400 44707236 45590492 46508588 47442824 48377368 
1422.777 49307952 50243144 51201784 52204988 53266740 54389524 55564056 
1426.152 56777080 58018040 59284964 60582216 61916336 63290632 64702904 
1429.527 66148148 67623528 69135208 70698928 72331816 74047040 75844080 
1432.903 77709472 79615720 81530328 83420520 85246520 86965456 88532264 
1436.278 89910784 91090008 92097472 92997696 93863160 94760392 95735680 
1439.653 96806776 97961264 99151960 100303696 101307720 102037000 102372696 
1443.028 102209496 101482808 100180280 98342520 96054336 93421296 90563400 
1446.404 87591280 84605144 81705896 78985496 76521640 74363240 72517024 
1449.779 70950576 69606240 68426472 67369504 66421180 65591632 64902312 
1453.154 64367568 63981280 63713224 63513824 63329892 63114188 62848084 
1456.529 62550344 62274444 62078268 61994600 62023380 62142224 62325120 
1459.905 62552176 62812552 63098976 63401468 63704632 63984776 64211972 
1463.280 64359000 64407924 64359540 64235368 64072856 63912480 63783980 
1466.655 63706168 63687980 63734516 63852184 64049476 64334220 64711252 
1470.030 65178924 65728536 66342348 66998236 67673896 68354728 69040000 
1473.406 69745536 70501832 71343008 72306840 73429784 74739944 76256480 
1476.781 77982592 79905320 81997344 84223432 86550248 88944408 91381120 
1480.156 93846792 96339080 98871456 101469328 104166392 106991984 109963088 
1483.531 113076168 116305648 119598816 122870016 126012504 128888680 
1486.424 131337840 133199232 134312512 134539104 133783888 132008824 
1489.317 129258696 125670640 121477816 116967352 112412848 108039480 
1492.210 103980024 100282152 96950440 93968952 91335688 89085696 87282816 
1495.586 86001288 85283456 85101512 85334312 85777864 86207520 86403272 
1498.961 86191920 85479760 84243472 82533936 80450264 78123448 75680248 
1502.336 73209800 70763192 68332192 65851524 63208996 60268208 56916292 
1505.711 53134052 49067832 45018932 41323744 38196532 35662996 33608168 
1509.087 31878076 30338900 28905406 27540524 26241330 25022172 23896354 
1512.462 22869724 21936782 21084996 20299658 19566724 18873294 18206470 
1515.837 17555952 16917534 16297288 15711488 15179592 14715625 14318171 
1519.212 13968606 13633236 13276808 12876470 12438959 12001036 11613715 
1522.588 11313622 11106117 10968062 10862223 10755220 10626174 10474524 
1525.963 10314988 10169417 10052886 9967035 9901945 9845407 9790875 9741467 
1529.820 9707176 9698062 9716697 9755529 9797416 9823546 9823817 9804024 
1533.678 9785995 9795247 9848729 9946049 10073368 10210562 10339757 10450187 
1537.535 10536644 10598331 10633576 10636801 10598807 10513220 10386078 
1540.910 10237260 10092054 9969612 9873167 9790536 9700230 9583047 9430237 
1544.768 9248880 9057482 8878579 8726525 8601797 8493322 8384740 8263926 
1548.625 8127683 7984935 7850197 7738234 7654221 7593186 7543083 7492481 
1552.483 7436323 7378386 7329049 7300272 7299598 7326151 7372690 7428099 
1556.340 7482132 7524271 7542207 7522114 7451019 7328105 7174302 7028029 
1560.198 6925198 6882646 6898165 6956240 7036919 7120475 7192930 7248586 
1564.055 7291342 7332116 7383542 7454019 7543050 7642789 7741775 7831034 
1567.912 7906476 7971098 8032085 8098380 8177245 8272031 8384537 8516400 
1571.770 8670342 8848212 9049464 9269121 9496476 9718629 9924251 10109452 
1575.627 10282212 10460777 10667329 10914579 11203278 11525955 11873286 
1579.002 12239777 12624621 13030975 13461257 13914477 14384713 14861836 
1582.378 15334439 15793296 16231243 16642915 17022964 17364308 17658948 
1585.753 17899958 18084586 18215904 18303366 18361812 18407960 18457878 
1589.128 18525922 18623340 18759734 18944900 19187732 19496298 19875038 
1592.503 20323270 20834914 21400308 22010148 22657430 23339834 24058752 
1595.879 24817102 25617018 26458378 27336978 28244934 29170742 30096502 
1599.254 30999720 31852656 32622714 33278252 33790932 34138080 34307044 
1602.629 34294924 34111056 33773808 33311096 32754786 32133390 31471058 
1606.004 30784410 30082440 29369796 28649082 27921576 27188798 26452004 
1609.380 25713402 24977950 24255126 23559530 22910170 22324320 21813428 
1612.755 21379668 21014740 20702106 20419908 20146816 19865396 19566898 
1616.130 19256134 18951926 18680030 18463652 18315360 18233802 18207472 
1619.505 18217112 18241370 18259374 18252740 18209614 18127870 18016230 
1622.881 17891464 17772742 17675756 17606360 17562060 17534630 17515554 
1626.256 17496892 17473158 17441322 17399518 17347754 17287446 17222422 
1629.631 17157926 17099158 17049808 17009836 16975174 16936966 16882568 
1633.006 16797870 16667360 16479032 16228078 15922993 15587246 15255053 
1636.382 14959772 14720629 14540544 14408209 14307076 14219146 14130209 
1639.757 14032493 13924946 13813014 13705897 13612552 13537616 13478756 
1643.132 13427286 13369638 13290747 13176177 13017011 12811352 12567420 
1646.507 12302695 12040823 11806277 11616846 11481758 11400454 11365011 
1649.883 11360080 11363175 11344945 11266590 11088101 10786368 10381802 
1653.258 9945845 9563197 9285877 9113850 9017054 8958939 8911384 8858323 
1657.115 8792689 8715166 8629748 8541440 8453014 8365012 8275475 8181094 
1660.973 8078261 7963707 7836398 7698131 7554749 7415223 7289927 7187338 
1664.830 7111449 7060795 7028871 7005366 6977688 6934053 6866017 6770595 
1668.688 6651844 6519268 6386093 6264287 6162142 6083675 6028606 5992793 
1672.545 5968807 5946469 5913316 5856992 5770522 5656374 5528732 5406798 
1676.402 5307873 5238883 5196294 5169134 5145596 5118170 5085550 5053367 
1680.260 5030573 5023601 5032014 5046294 5047870 5015188 4930360 4790703 
1684.117 4614654 4437773 4293924 4198029 4146410 4124165 4115969 4109447 
1687.975 4097338 4076701 4047470 4011419 3971759 3933507 3902480 3884360 
1691.832 3883189 3898468 3924948 3951964 3966208 3955007 3912276 3844076 
1695.689 3769436 3713089 3691735 3707408 3747545 3792198 3818069 3805334 
1699.547 3745807 3649432 3544459 3462522 3423881 3429492 3467799 3522345 
1703.404 3577598 3621766 3646859 3650868 3637403 3615418 3595037 3584146 
1707.262 3586785 3602588 3628348 3660091 3694943 3731470 3770172 3812487 
1711.119 3859287 3910303 3963433 4015599 4063825 4106269 4142262 4172269 
1714.977 4195721 4210709 4213218 4199702 4169693 4128513 4087873 4061684 
1718.834 4059878 4085364 4133497 4195921 4262236 4323607 4373942 4409421 
1722.691 4428400 4430610 4416149 4385657 4340106 4281677 4213787 4139820 
1726.549 4063089 3984667 3904051 3819774 3731035 3640577 3554413 3480258 
1730.406 3424783 3389885 3370651 3354356 3322936 3259603 3154256 3013134 
1734.264 2858583 2721224 2623976 2573176 2561644 2575443 2600008 2623075 
1738.121 2636310 2635710 2621175 2596542 2567177 2538580 2514918 2497688 
1741.979 2486558 2479760 2474661 2468796 2460232 2448303 2434108 2418915 
1745.836 2404888 2392960 2383465 2375169 2366207 2354214 2336758 2311374 
1749.693 2276066 2229970 2173289 2110023 2046467 1990376 1948071 1923010 
1753.551 1913625 1914457 1916953 1912227 1893624 1858815 1811632 1760562 
1757.408 1715153 1681955 1662298 1652452 1646166 1636521 1618827 1591889 
1761.266 1557904 1521559 1488443 1463109 1448481 1445456 1453036 1468695 
1765.123 1488543 1506996 1518700 1519531 1508825 1490338 1472185 1462710 
1768.980 1467165 1484853 1508791 1528343 1531867 1512416 1470856 1416601 
1772.838 1363682 1324097 1302927 1298407 1304157 1313628 1322735 1330545 
1776.695 1338090 1346532 1355871 1363450 1365677 1359428 1344139 1322269 
1780.553 1298839 1278966 1265142 1256303 1249125 1238691 1221546 1196725 
1784.410 1165727 1132140 1099718 1070852 1046938 1028438 1015651 1009108 
1788.268 1009275 1015618 1025880 1035811 1040062 1033652 1013957 982308 
1792.125 943986 905635 873993 852679 842055 840064 844114 851849 861477 
1796.465 871537 880667 887407 890461 888768 882559 872566 860581 848164 
1800.804 837242 828610 823432 822568 826751 836379 851318 870043 890262 
1805.144 909487 925923 939238 950594 962217 975334 990511 1006252 1019670 
1809.483 1028172 1030198 1026179 1018109 1008909 1000507 993533 987223 
1813.341 979684 969954 958132 945813 935851 931302 934390 946045 965770 
1817.680 992503 1024087 1058762 1094968 1131177 1166192 1199716 1231680 
1821.538 1262749 1293489 1323898 1352880 1379205 1401442 1419792 1436580 
1825.395 1455995 1482326 1518367 1563457 1614238 1664460 1708234 1741932 
1829.253 1765985 1784949 1805543 1834092 1873490 1922444 1977028 2032618 
1833.110 2085918 2135229 2180915 2223442 2263276 2299216 2329495 2351915 
1836.968 2365474 2370671 2369572 2364708 2358845 2353614 2349450 2345552 
1840.825 2339889 2329762 2311807 2282461 2239462 2183845 2120245 2057852 
1844.682 2007885 1978759 1974332 1991940 2024529 2062780 2098104 2125839 
1848.540 2144951 2158304 2169693 2182513 2196966 2211053 2221610 2226306 
1852.397 2225141 2220844 2217481 2218180 2224308 2234666 2246523 2257514 
1856.255 2266707 2275100 2284793 2297450 2312940 2329495 2344420 2355513 
1860.112 2362409 2366540 2370738 2377634 2388495 2403055 2420481 2440373 
1863.969 2463631 2492389 2528349 2571810 2620009 2668180 2709388 2738363 
1867.827 2752034 2751233 2739996 2723692 2706820 2691517 2677115 2661746 
1871.684 2643310 2620642 2592842 2560044 2521350 2476361 2423879 2363908 
1875.542 2297084 2224908 2149447 2072201 1993938 1914923 1835223 1755306 
1879.399 1676966 1602831 1534627 1473848 1419759 1370596 1324131 1279232 
1883.257 1236299 1196925 1163302 1136359 1115065 1097260 1079954 1061087 
1887.114 1039963 1017743 996057 975666 956704 938175 919415 900621 883456 
1891.454 870375 863004 861510 863602 865561 864399 858190 848064 836611 
1895.793 827150 822071 820809 822004 823266 823930 824759 827880 835250 
1900.133 847201 862041 877148 889499 898198 904340 910815 920809 935120 
1904.472 952454 969489 982607 989282 990112 986625 981478 975699 968659 
1908.812 958099 942592 921706 897733 874093 854937 842122 836445 836179 
1913.152 840296 848297 860879 878310 899858 921506 937412 941031 928479 
1917.491 900821 865029 831133 808095 800394 806568 820709 835283 844379 
1921.831 846438 842952 837740 833955 832594 832395 831598 829507 827648 
1926.170 828743 835515 848098 863934 877579 884518 882194 871968 858091 
1930.510 845906 838337 836179 836810 837474 836511 835117 835847 840927 
1934.850 850355 860614 867387 867021 859020 848031 841657 847168 867519 
1939.189 900422 938308 971781 992835 998415 990477 974471 956372 940500 
1943.529 928214 919116 913405 912209 917787 931567 953018 978223 1000673 
1947.868 1015053 1019072 1014489 1007581 1005057 1011599 1028504 1052883 
1951.726 1079655 1105365 1128486 1149913 1171309 1192340 1210481 1221280 
1955.583 1221080 1208421 1185994 1159481 1134764 1116228 1104634 1097459 
1959.441 1091546 1085235 1079887 1079389 1086929 1104468 1128785 1155594 
1963.298 1179781 1199550 1215897 1232743 1252648 1276407 1300734 1319976 
1967.156 1329216 1328518 1320807 1313329 1311368 1318514 1332772 1349390 
1971.013 1363150 1371726 1375881 1379271 1385022 1393864 1403304 1409819 
1974.870 1413277 1418496 1435350 1475676 1546066 1645235 1760695 1873058 
1978.728 1963049 2017705 2032885 2013477 1970638 1916154 1858882 1804745 
1982.585 1756204 1715219 1683718 1664460 1658739 1666555 1684517 1707402 
1986.443 1729956 1748685 1762891 1773637 1783152 1793033 1803348 1813562 
1990.300 1823145 1832129 1842244 1854323 1868632 1883108 1894389 1899381 
1994.157 1897018 1889164 1880379 1875587 1878449 1889597 1906403 1924208 
1998.015 1938952 1948304 1952032 1951167 1946008 1935557 1917918 1891693 
2001.872 1857850 1819917 1784549 1758100 1745991 1748419 1763057 1784782 
2005.730 1808239 1829999 1850263 1869364 1889131 1908500 1927503 1944876 
2009.587 1962350 1981855 2007519 2039742 2077428 2115217 2147449 2169659 
2013.445 2182547 2190872 2202195 2222876 2255349 2296551 2340255 2378534 
2017.302 2408486 2430710 2451869 2477760 2513251 2557344 2606175 2654845 
2021.159 2700219 2743698 2789248 2840606 2898875 2959587 3014802 3056043 
2025.017 3078434 3081604 3070625 3053674 3038058 3028883 3027681 3033954 
2028.874 3047935 3071159 3107099 3157627 3222982 3300232 3384308 3470639 
2032.732 3556752 3643350 3732038 3822749 3912777 3995300 4063123 4111286 
2036.589 4139619 4153334 4161095 4172770 4193713 4225297 4264411 4306239 
2040.447 4346063 4382042 4413907 4442727 4468604 4490331 4506401 4516914 
2044.304 4523744 4531545 4545942 4570854 4607990 4655679 4709335 4764036 
2048.161 4815126 4858683 4890884 4907974 4905762 4881970 4837138 4776331 
2052.019 4709101 4646603 4599049 4571959 4563655 4566200 4568711 4561813 
2055.876 4539949 4505363 4463515 4422241 4387364 4361191 4342248 4328158 
2059.734 4317014 4308983 4305770 4309652 4320762 4336726 4352121 4362094 
2063.591 4362228 4351820 4332341 4306507 4277595 4247078 4215828 4184279 
2067.448 4153368 4125168 4100884 4081451 4065397 4050280 4032688 4011285 
2071.306 3986305 3960624 3938021 3921370 3911206 3905255 3900173 3892952 
2075.163 3882822 3871656 3862396 3858183 3859821 3866006 3873795 3880515 
2079.021 3885229 3888706 3892651 3898602 3905623 3911106 3911306 3903583 
2082.878 3887703 3866574 3845280 3828633 3820142 3819908 3825691 3833479 
2086.736 3839731 3842204 3839831 3832042 3818337 3797646 3769336 3733274 
2090.593 3691969 3649565 3610306 3579035 3558422 3548968 3549937 3559993 
2094.450 3578400 3604593 3638372 3677834 3719272 3757170 3786081 3802092 
2098.308 3805033 3797613 3785212 3772445 3762919 3757037 3753527 3749651 
2102.165 3743936 3735514 3724919 3713457 3701593 3689864 3679137 3670516 
2106.023 3666740 3670349 3683381 3704935 3731303 3755934 3772311 3776288 
2109.880 3767632 3749951 3729665 3712688 3702395 3698018 3695879 3691167 
2113.738 3680340 3662363 3639608 3615652 3594804 3579636 3570816 3567375 
2117.595 3567108 3567876 3567375 3564302 3557554 3546363 3531464 3514996 
2121.452 3500499 3491480 3491080 3499864 3515363 3532500 3545060 3548768 
2125.310 3541586 3524115 3500065 3473344 3446591 3421042 3396030 3370317 
2129.167 3343170 3315156 3287545 3262507 3241743 3226821 3219010 3220813 
2133.025 3234666 3263275 3307244 3363972 3426987 3487673 3537043 3568812 
2136.882 3582041 3579001 3565672 3548000 3529794 3512190 3493885 3473578 
2140.740 3450332 3424616 3397499 3370117 3341333 3309614 3272923 3231828 
2144.597 3189536 3151319 3122451 3106232 3102527 3107400 3114908 3120982 
2148.454 3122417 3119647 3113173 3103128 3086676 3060114 3018873 2961989 
2152.312 2890769 2810824 2727893 2646277 2566777 2489390 2414650 2349883 
2156.169 2309609 2314472 2386163 2537480 2767106 3054675 3366911 3668043 
2160.027 3925650 4122258 4253904 4326887 4352656 4345728 4319290 4285558 
2163.884 4255477 4237944 4238948 4258187 4290611 4326920 4356940 4372671 
2167.741 4371164 4354397 4327355 4295765 4263507 4232189 4201709 4171298 
2171.599 4141726 4115568 4096603 4087839 4090783 4104262 4125670 4151093 
2175.456 4177153 4200806 4219040 4229044 4227271 4212917 4187624 4156980 
2179.314 4130186 4117040 4124633 4154405 4201776 4256380 4306640 4343620 
2183.171 4363600 4369123 4366110 4361994 4362563 4370027 4384485 4404032 
2187.029 4427396 4452636 4478614 4502685 4521568 4531277 4530306 4518721 
2190.886 4500776 4481593 4467164 4460603 4462779 4470747 4482162 4494114 
2194.743 4506903 4522471 4543230 4570553 4604407 4641680 4679425 4715331 
2198.601 4748962 4781188 4813585 4845548 4876140 4901540 4919904 4930527 
2202.458 4936023 4940782 4949261 4964074 4984452 5007110 5027657 5042104 
2206.316 5050048 5053535 5056921 5064295 5078443 5099194 5124640 5151866 
2210.173 5178355 5202934 5225670 5247066 5268128 5289627 5312501 5337491 
2214.031 5365501 5396398 5429108 5460949 5488229 5507792 5518027 5519672 
2217.888 5515611 5510376 5507323 5507994 5511618 5515712 5517356 5515746 
2221.745 5511450 5507826 5507927 5513732 5525075 5539706 5554338 5566085 
2225.603 5573065 5575280 5573535 5569139 5563031 5556151 5549942 5545512 
2229.460 5545377 5551989 5567091 5590921 5622337 5659194 5698740 5739464 
2233.318 5780897 5823745 5868511 5915264 5963096 6010900 6056862 6100073 
2237.175 6139524 6174745 6204523 6227614 6242269 6248421 6246942 6241127 
2241.032 6235984 6236286 6245799 6265733 6294676 6329035 6364943 6399408 
2244.890 6430749 6459569 6486609 6513483 6540627 6568479 6596837 6625803 
2248.747 6654872 6684279 6712747 6739667 6764100 6785976 6806473 6828451 
2252.605 6854975 6889177 6932168 6982806 7037289 7091072 7139270 7178344 
2256.462 7206641 7223991 7231201 7229281 7219746 7204418 7185823 7167801 
2260.320 7154023 7147960 7151564 7164668 7185385 7210381 7235817 7259468 
2264.177 7279752 7296532 7310448 7322377 7333127 7343943 7355907 7370331 
2268.034 7388496 7410673 7435648 7461300 7484559 7503336 7516686 7525957 
2271.892 7533779 7543926 7559570 7582160 7611530 7646229 7683696 7721707 
2275.749 7758438 7792711 7823612 7850568 7873106 7891461 7907049 7921627 
2279.607 7937994 7958342 7984193 8015682 8052101 8091730 8132848 8174105 
2283.464 8214320 8252613 8288309 8320495 8349002 8374133 8397238 8420177 
2287.322 8445041 8472847 8503290 8534276 8562966 8586318 8602506 8611801 
2291.179 8616026 8618324 8622312 8630457 8644721 8665441 8691976 8723313 
2295.036 8757797 8793805 8829681 8863565 8894509 8921701 8945816 8968038 
2298.894 8990398 9014720 9042630 9074162 9109147 9146436 9184947 9223867 
2302.751 9262892 9301617 9340243 9378467 9416185 9453501 9491023 9529632 
2306.609 9570785 9615702 9665265 9719984 9779692 9843475 9910793 9980529 
2310.466 10051699 10123492 10194789 10264502 10332122 10397514 10461320 
2313.841 10524491 10588383 10654119 10722174 10793263 10867251 10944378 
2317.217 11024782 11108564 11195594 11285089 11376440 11468627 11561172 
2320.592 11653773 11746052 11837193 11924708 12004408 12071210 12120271 
2323.967 12148006 12154684 12143747 12122417 12098874 12081499 12076729 
2327.342 12088142 12115943 12157819 12209957 12268372 12329386 12390340 
2330.718 12449427 12505895 12559439 12610806 12661327 12712944 12767776 
2334.093 12827256 12891931 12961158 13032922 13105141 13175083 13241451 
2337.468 13302807 13359318 13411088 13458797 13503331 13545341 13585406 
2340.843 13623868 13660145 13693074 13720192 13737872 13741292 13725698 
2344.219 13686851 13622808 13534915 13429303 13316951 13212041 13130753 
2347.594 13088715 13097765 13164735 13290747 13470792 13694853 13948828 
2350.969 14218051 14488674 14749148 14993143 15217407 15421941 15607957 
2354.344 15776699 15929284 16066622 16190108 16301518 16402705 16495243 
2357.719 16579743 16655998 16723519 16782406 16833002 16877194 16915984 
2361.095 16950538 16980582 17005530 17024618 17038058 17047534 17055702 
2364.470 17065556 17078550 17095264 17114082 17132936 17149792 17163406 
2367.845 17173920 17181814 17187570 17190880 17190604 17185708 17175368 
2371.220 17160580 17143068 17125422 17109810 17097298 17087992 17081100 
2374.596 17075792 17072036 17070624 17073174 17081202 17096092 17117770 
2377.971 17145724 17179228 17217664 17260828 17309342 17363928 17425076 
2381.346 17492718 17566406 17645216 17728490 17815476 17905588 17998132 
2384.721 18092392 18187052 18280972 18372736 18461718 18547258 18629324 
2388.097 18708048 18783502 18855784 18925102 18991662 19056396 19119828 
2391.472 19182850 19245466 19307398 19367468 19424566 19477828 19526866 
2394.847 19572028 19614142 19654356 19693982 19733614 19773664 19814274 
2398.222 19855406 19896682 19937790 19978830 20019668 20060542 20102184 
2401.598 20145358 20191242 20240258 20292716 20348270 20406296 20466240 
2404.973 20527896 20591540 20657764 20727092 20799422 20873952 20949538 
2408.348 21025036 21100334 21175996 21253306 21333970 21418930 21507808 
2411.723 21599524 21691990 21783430 21873044 21961038 22048700 22137114 
2415.099 22227046 22318284 22409754 22500264 22589328 22676804 22763842 
2418.474 22851772 22941784 23034360 23129438 23226532 23324938 23424208 
2421.849 23524166 23624774 23726072 23827742 23929542 24031542 24133740 
2425.224 24237048 24342238 24450082 24561002 24675286 24792894 24914080 
2428.600 25039442 25169544 25305092 25445604 25590096 25736676 25883342 
2431.975 26028332 26170906 26311274 26450810 26590704 26732372 26876200 
2435.350 27022122 27169820 27318980 27469322 27620880 27773552 27927512 
2438.725 28082978 28241188 28403732 28572782 28750672 28938804 29137078 
2442.101 29343986 29556386 29771016 29984726 30195946 30404142 30609948 
2445.476 30814538 31018226 31220906 31422182 31621452 31818428 32013632 
2448.851 32206964 32398454 32586958 32770686 32947518 33115662 33274390 
2452.226 33424016 33566036 33702192 33833872 33961836 34086036 34205148 
2455.602 34318376 34424388 34522600 34612800 34695700 34772260 34844024 
2458.977 34912672 34979896 35046624 35112796 35177676 35239664 35297232 
2462.352 35349204 35395644 35436952 35473840 35506448 35533780 35553772 
2465.727 35563804 35561216 35544604 35514040 35470928 35417396 35355784 
2469.103 35287492 35213288 35133344 35047524 34955404 34857736 34754704 
2472.478 34647036 34535160 34419256 34299584 34176832 34051852 33926080 
2475.853 33800884 33677520 33557264 33440906 33328626 33220268 33115018 
2479.228 33011828 32908630 32803558 32694586 32580602 32461792 32339412 
2482.604 32216064 32094144 31975754 31861570 31751086 31642944 31535614 
2485.979 31428810 31322636 31218948 31119554 31026090 30939514 30859358 
2489.354 30784410 30712782 30642766 30572620 30501524 30428592 30353256 
2492.729 30275448 30195128 30112802 30029320 29945746 29862862 29781132 
2496.104 29700372 29619878 29538796 29455812 29369938 29279970 29185094 
2499.480 29084428 28977482 28863938 28744760 28620840 28493874 28365390 
2502.855 28236696 28108322 27979848 27850844 27720606 27589032 27456862 
2506.230 27325050 27195394 27068914 26946634 26828686 26715176 26605464 
2509.605 26498844 26394432 26291420 26188818 26086206 25983372 25880844 
2512.981 25779570 25681236 25587110 25498518 25415986 25339550 25268920 
2516.356 25204200 25145494 25093218 25047832 25009292 24976582 24948646 
2519.731 24923800 24900642 24878570 24857694 24838854 24822680 24810154 
2523.106 24800928 24794544 24789878 24785914 24781846 24777074 24771426 
2526.482 24764796 24756902 24747784 24737472 24725580 24712322 24697066 
2529.857 24679142 24657610 24631518 24600696 24565352 24526960 24487380 
2533.232 24448330 24411386 24376722 24344236 24312976 24282352 24251938 
2536.607 24222298 24194166 24168594 24145858 24126174 24109570 24096332 
2539.983 24086734 24081796 24081762 24086876 24096086 24107576 24119028 
2543.358 24128556 24134720 24137488 24137348 24135456 24132722 24129850 
2546.733 24127574 24126174 24126068 24128030 24132338 24138992 24146350 
2550.108 24152724 24155596 24153320 24145334 24132512 24116892 24101024 
2553.484 24087084 24076054 24067822 24061378 24055776 24049926 24044184 
2556.859 24038790 24034728 24032522 24032102 24033258 24034868 24036234 
2560.234 24036760 24036234 24034624 24032558 24030282 24028460 24027620 
2563.609 24028006 24029756 24032942 24037110 24042292 24048666 24056862 
2566.985 24067822 24082742 24102460 24127190 24156508 24188876 24222962 
2570.360 24257438 24291952 24326818 24363370 24402622 24445702 24493130 
2573.735 24544806 24600100 24658908 24720670 24785108 24852080 24920852 
2577.110 24990690 25060502 25129378 25196544 25261964 25326026 25389254 
2580.486 25452666 25517002 25582752 25650022 25719168 25789836 25861538 
2583.861 25933142 26003706 26071782 26136312 26197196 26254600 26309338 
2587.236 26362322 26414538 26466022 26517088 26567210 26616350 26664544 
2590.611 26712074 26759682 26807822 26856742 26906656 26957704 27010062 
2593.987 27064224 27120934 27180544 27243160 27308430 27375582 27443872 
2597.362 27513022 27583418 27655450 27730108 27807708 27888082 27970800 
2600.737 28054772 28139608 28225028 28311736 28400586 28492352 28587324 
2604.112 28684936 28784272 28884300 28984000 29083048 29181550 29279722 
2607.488 29378056 29476414 29574580 29672060 29768604 29863928 29958384 
2610.863 30051938 30144908 30237222 30328740 30419352 30508420 30596190 
2614.238 30682448 30767338 30851070 30933822 31015770 31097272 31178790 
2617.613 31260640 31343364 31426888 31511314 31596404 31681650 31766910 
2620.989 31851620 31935312 32017804 32098606 32177490 32254536 32330058 
2624.364 32405026 32480252 32556568 32634750 32714878 32796554 32879036 
2627.739 32961600 33043898 33125602 33206820 33287734 33368376 33448744 
2631.114 33528772 33608704 33688976 33770160 33852608 33936720 34022180 
2634.490 34108328 34194248 34278864 34361624 34441856 34519696 34595044 
2637.865 34668104 34738804 34807440 34874720 34941040 35008016 35076336 
2641.240 35146852 35219324 35293100 35367284 35440476 35512024 35581824 
2644.615 35650156 35717856 35785384 35852924 35920368 35987496 36053628 
2647.990 36118688 36182860 36246676 36310868 36376108 36442768 36511348 
2651.366 36582028 36654844 36729840 36806868 36885496 36965436 37046112 
2654.741 37127456 37209424 37292316 37376916 37463524 37552820 37644700 
2658.116 37739344 37836324 37935604 38037184 38141504 38249176 38361036 
2661.491 38477416 38598572 38724360 38853952 38986520 39121012 39256744 
2664.867 39393356 39531096 39670696 39812952 39958568 40107572 40259460 
2668.242 40413476 40567984 40722400 40876036 41029324 41183104 41338648 
2671.617 41496696 41658008 41822080 41988584 42156836 42326572 42498024 
2674.992 42671768 42848548 43028692 43212316 43399092 43588804 43780948 
2678.368 43975596 44172824 44373188 44576468 44783120 44993024 45206340 
2681.743 45423408 45644812 45871228 46103032 46340232 46582280 46828304 
2685.118 47077084 47327528 47579260 47831548 48084200 48336816 48588504 
2688.493 48838556 49086156 49330672 49571904 49809816 50044252 50275056 
2691.869 50502192 50725160 50944068 51159212 51371404 51581388 51789864 
2695.244 51996796 52201368 52402256 52598112 52787884 52971040 53147720 
2698.619 53318324 53483448 53643468 53798292 53947992 54093020 54234112 
2701.994 54372592 54510168 54648580 54789592 54934224 55083788 55238528 
2705.370 55398964 55565184 55736896 55913612 56094732 56279512 56467392 
2708.745 56657880 56850572 57044968 57240132 57434556 57626644 57814760 
2712.120 57997668 58174128 58343688 58505812 58659684 58804320 58938112 
2715.495 59059948 59168872 59264792 59348356 59420420 59481932 59533424 
2718.871 59574696 59605368 59625132 59634368 59633536 59624032 59607192 
2722.246 59584276 59556228 59523356 59486112 59444736 59399640 59351472 
2725.621 59300648 59247780 59193248 59137772 59082196 59027568 58975264 
2728.996 58925968 58880240 58837972 58798932 58763008 58730496 58702656 
2732.372 58680848 58666512 58659800 58660708 58667384 58677852 58689760 
2735.747 58701784 58712900 58723104 58732432 58741236 58749388 58757016 
2739.122 58764032 58770820 58777992 58785692 58794188 58802500 58809476 
2742.497 58813384 58812968 58807392 58796392 58780420 58760008 58735276 
2745.873 58706260 58672772 58634880 58593320 58549108 58503572 58457816 
2749.248 58412936 58368816 58325648 58283056 58241412 58200988 58162044 
2752.623 58124504 58087496 58049360 58008152 57962108 57909972 57851632 
2755.998 57787248 57717420 57642608 57562516 57476572 57383844 57283648 
2759.374 57175876 57060648 56938692 56810540 56676608 56537436 56393252 
2762.749 56244700 56092132 55936600 55778564 55619152 55458744 55298396 
2766.124 55139876 54985324 54837632 54699912 54574708 54464116 54368908 
2769.499 54289116 54223940 54172740 54134528 54108556 54093844 54089228 
2772.875 54092944 54103040 54116964 54132312 54147252 54159600 54167784 
2776.250 54170412 54166172 54154384 54134832 54107884 54074144 54034740 
2779.625 53990464 53941992 53889884 53834596 53776880 53717292 53657004 
2783.000 53596832 53536860 53477004 53416636 53354928 53291276 53225616 
2786.375 53158464 53090240 53021052 52949852 52875260 52794732 52705612 
2789.751 52605704 52493404 52367600 52228568 52076916 51913896 51741560 
2793.126 51562468 51379832 51197048 51017476 50844044 50678648 50522624 
2796.501 50376516 50240876 50116240 50003284 49902692 49814872 49739144 
2799.876 49674536 49619036 49570380 49526376 49484968 49444424 49403284 
2803.252 49359888 49312668 49259964 49200328 49132904 49057296 48973356 
2806.627 48881568 48782204 48675300 48560860 48438784 48309224 48172892 
2810.002 48030644 47883372 47732384 47578632 47423236 47267420 47112576 
2813.377 46960520 46813652 46674544 46545804 46429712 46328508 46243508 
2816.753 46176064 46126356 46094596 46080372 46082804 46101228 46134536 
2820.128 46182000 46242696 46316008 46400728 46495460 46598032 46705864 
2823.503 46816052 46925488 47031300 47131300 47223492 47306984 47380960 
2826.878 47445040 47499636 47545140 47582404 47612088 47635052 47651800 
2830.254 47663080 47669184 47670700 47668368 47663120 47656056 47648068 
2833.629 47640080 47632908 47627328 47624588 47625588 47631724 47643852 
2837.004 47662820 47688632 47721804 47762636 47812900 47875344 47953748 
2840.379 48053108 48178556 48334336 48523808 48749948 49014044 49317940 
2843.755 49663728 50053884 50491508 50979168 51517884 52105684 52736104 
2847.130 53397788 54072304 54735468 55359404 55911728 56362728 56686800 
2850.505 56865640 56892080 56769940 56513772 56145184 55691164 55180768 
2853.880 54640424 54094332 53562420 53058676 52592724 52169716 51790200 
2857.256 51452300 51152056 50884868 50645848 50431144 50237488 50062176 
2860.631 49903176 49758612 49626728 49506136 49395524 49294224 49201588 
2864.006 49117100 49040492 48971096 48908824 48853944 48807228 48769560 
2867.381 48741756 48724260 48716328 48716884 48724408 48737200 48754252 
2870.757 48774936 48798700 48824652 48851384 48876896 48899260 48916836 
2874.132 48929964 48940344 48950992 48965900 48988488 49021128 49065048 
2877.507 49120068 49185672 49260968 49345744 49440040 49544424 49659452 
2880.882 49785556 49922952 50071916 50232688 50404760 50587620 50779868 
2884.258 50979168 51182920 51388148 51592092 51792848 51988768 52179060 
2887.633 52362856 52539284 52707184 52865496 53012928 53148540 53271460 
2891.008 53381004 53476440 53557360 53623784 53676048 53715380 53743840 
2894.383 53763564 53776728 53784680 53787716 53785616 53777324 53762180 
2897.759 53739568 53709152 53670836 53624012 53568268 53502712 53426976 
2901.134 53341176 53246364 53144420 53037560 52928520 52819500 52712756 
2904.509 52610268 52514492 52428164 52354592 52296996 52258464 52241800 
2907.884 52249568 52284440 52349696 52448948 52586368 52765808 52990168 
2911.260 53260672 53576404 53933924 54327488 54748768 55187732 55631580 
2914.635 56065516 56474148 56840864 57150328 57390460 57551960 57630008 
2918.010 57623840 57535392 57368944 57129616 56823604 56456980 56036336 
2921.385 55568916 55061900 54523240 53961576 53385124 52802960 52224308 
2924.760 51657584 51111240 50591752 50104080 49650540 49231200 48844004 
2928.136 48485460 48151460 47838316 47542884 47262800 46996964 46744608 
2931.511 46505528 46279552 46066188 45864600 45673744 45491948 45317876 
2934.886 45150128 44987660 44830248 44677928 44531276 44391020 44257896 
2938.261 44132768 44016404 43909752 43813752 43729348 43656948 43596240 
2941.637 43545656 43502584 43463468 43424468 43381628 43332016 43273444 
2945.012 43204816 43125656 43036632 42938852 42834068 42724744 42614384 
2948.387 42506320 42404600 42313208 42234504 42170052 42120176 42083124 
2951.762 42056404 42036764 42020924 42005704 41988952 41969608 41947456 
2955.138 41923152 41897932 41873012 41849372 41827516 41807924 41790776 
2958.513 41776440 41765608 41758712 41756124 41757616 41762580 41769692 
2961.888 41777680 41785852 41793988 41803144 41815148 41832148 41856704 
2965.263 41890344 41934388 41989496 42055600 42132224 42218652 42313388 
2968.639 42414356 42518596 42622536 42721600 42811068 42886256 42942508 
2972.014 42976452 42985636 42968916 42926856 42861276 42775200 42672208 
2975.389 42556276 42430796 42298704 42161984 42021908 41879000 41733688 
2978.764 41585984 41435964 41283952 41130684 40977616 40826896 40681208 
2982.140 40543612 40416784 40302688 40202172 40114692 40038600 39971428 
2985.515 39910544 39853124 39796684 39738840 39677664 39611124 39537520 
2988.890 39455432 39363788 39261424 39146936 39018596 38874316 38712188 
2992.265 38531036 38331360 38115856 37889324 37657924 37427768 37203976 
2995.641 36989068 36783320 36585020 36391784 36201404 36013196 35827952 
2999.016 35647856 35475460 35312868 35161688 35022348 34894468 34777284 
3002.391 34670004 34571612 34481384 34398704 34322464 34251540 34184968 
3005.766 34121664 34060880 34002004 33944960 33889396 33835448 33782944 
3009.142 33732268 33683212 33636024 33590624 33546918 33505182 33465564 
3012.517 33428668 33395066 33365012 33338678 33315174 33293244 33271100 
3015.892 33246846 33219126 33187508 33152566 33115160 33076864 33038534 
3019.267 33000960 32963924 32927248 32890472 32853946 32817922 32783370 
3022.643 32750926 32720662 32691978 32663468 32633036 32598100 32556172 
3026.018 32505106 32443620 32371112 32287978 32195404 32095286 31989806 
3029.393 31881250 31771544 31662650 31555674 31451892 31351984 31256654 
3032.768 31166506 31081290 31000822 30924392 30851246 30780498 30712000 
3036.144 30645610 30581968 30521466 30464666 30411356 30361074 30312502 
3039.519 30264362 30215056 30162950 30106728 30045156 29977270 29902474 
3042.894 29820452 29731454 29636230 29535992 29431878 29324774 29215748 
3046.269 29105402 28994766 28884902 28777332 28673504 28574728 28481774 
3049.645 28394642 28312548 28234292 28158910 28085700 28014410 27945640 
3053.020 27879884 27817424 27758186 27702066 27648388 27597082 27547866 
3056.395 27501092 27457108 27416098 27378264 27343222 27310688 27280168 
3059.770 27251168 27223722 27197722 27173276 27150420 27129434 27110494 
3063.146 27093848 27079918 27069092 27061334 27056360 27053716 27052376 
3066.521 27051390 27049908 27047158 27042644 27035980 27026954 27015598 
3069.896 27001882 26986226 26968916 26950264 26930558 26909512 26887058 
3073.271 26862842 26836898 26809268 26780896 26752492 26724690 26697628 
3076.646 26670570 26642490 26612192 26578762 26542482 26504338 26466232 
3080.022 26430208 26397568 26369364 26345002 26323596 26303810 26284202 
3083.397 26263998 26242632 26220178 26196526 26172488 26148524 26125686 
3086.772 26105206 26087930 26074560 26065026 26058658 26054084 26050142 
3090.147 26045780 26040750 26035612 26031320 26029104 26029844 26033712 
3093.523 26040258 26048840 26058550 26069036 26080296 26092858 26107354 
3096.898 26124278 26143772 26165768 26189664 26214688 26240064 26265054 
3100.273 26288992 26311592 26332608 26352114 26370456 26388060 26405702 
3103.648 26423870 26442814 26462676 26483454 26504374 26525046 26544876 
3107.024 26563652 26581156 26597538 26613002 26628116 26643018 26658132 
3110.399 26673388 26689102 26705380 26722364 26740548 26760564 26782728 
3113.774 26807364 26834362 26862912 26891852 26919806 26945118 26967012 
3117.149 26985064 26999484 27011192 27021416 27031008 27040880 27051354 
3120.525 27062004 27072688 27082880 27092262 27100938 27109014 27116842 
3123.900 27125060 27133878 27143402 27153524 27163824 27174194 27184388 
3127.275 27194794 27206082 27218958 27234056 27251696 27271384 27292200 
3130.650 27312736 27331648 27347880 27361362 27373182 27384616 27397532 
3134.026 27413732 27433850 27458168 27485700 27515000 27544582 27572860 
3137.401 27598952 27622540 27643902 27663608 27682818 27702242 27722762 
3140.776 27744800 27768606 27793932 27820250 27847098 27874266 27901578 
3144.151 27929032 27957160 27986244 28016672 28048092 28080398 28113096 
3147.527 28145442 28177508 28209046 28240338 28271738 28303674 28336140 
3150.902 28368962 28401400 28432810 28462492 28490266 28516022 28540474 
3154.277 28564428 28589024 28614928 28642924 28673078 28705362 28739628 
3157.652 28775526 28813482 28853458 28895916 28940858 28987894 29036460 
3161.028 29085668 29134740 29183320 29231518 29279934 29328922 29379156 
3164.403 29430602 29482478 29534148 29584264 29632186 29677632 29720916 
3167.778 29762642 29803772 29845436 29888276 29933426 29981602 30033332 
3171.153 30088690 30147464 30208948 30272142 30335846 30399060 30460828 
3174.529 30520576 30578414 30634410 30688778 30741516 30792910 30842816 
3177.904 30891626 30939692 30987586 31035484 31083534 31131656 31179252 
3181.279 31225748 31270754 31313878 31354866 31393976 31431302 31467422 
3184.654 31502802 31538036 31573598 31609836 31646508 31683072 31718966 
3188.030 31753152 31785556 31816360 31846524 31877294 31909670 31944084 
3191.405 31980250 32017202 32054048 32090362 32126288 32163468 32203042 
3194.780 32246434 32294366 32346480 32401848 32458902 32516602 32574032 
3198.155 32630962 32687440 32743208 32797840 32850516 32901052 32949020 
3201.531 32995168 33040572 33086340 33133790 33183504 33235614 33289846 
3204.906 33345834 33403262 33462022 33522114 33583108 33644828 33706556 
3208.281 33768224 33829788 33891832 33955140 34020528 34088296 34158368 
3211.656 34229740 34301740 34373600 34445048 34516396 34588188 34660672 
3215.031 34734244 34808588 34883336 34957772 35031580 35103996 35175092 
3218.407 35244368 35311860 35377960 35443424 35509400 35577504 35649112 
3221.782 35725124 35805172 35888156 35972520 36056724 36140040 36222760 
3225.157 36305676 36390376 36477508 36567500 36659640 36753024 36846688 
3228.532 36939932 37032688 37125112 37217440 37309392 37400428 37489708 
3231.908 37576772 37661720 37745452 37828700 37912352 37997080 38082396 
3235.283 38167768 38252288 38335376 38417032 38497400 38577240 38657748 
3238.658 38739972 38825108 38914540 39008772 39107780 39210576 39315212 
3242.033 39418680 39518248 39611816 39699232 39781836 39863108 39946648 
3245.409 40035916 40132684 40237248 40348060 40463008 40579844 40696712 
3248.784 40813024 40928172 41042360 41155672 41268284 41380560 41492868 
3252.159 41606044 41720628 41837364 41955848 42075788 42196160 42316020 
3255.534 42435288 42554116 42673052 42793004 42913980 43036160 43158188 
3258.910 43279120 43397484 43512432 43623388 43730304 43833544 43933872 
3262.285 44032028 44128880 44225172 44321664 44418584 44515564 44611976 
3265.660 44707016 44799760 44890320 44979132 45066828 45154720 45243296 
3269.035 45332480 45421528 45509280 45594284 45675252 45751528 45822952 
3272.411 45889532 45951588 46009680 46064016 46115188 46163424 46209380 
3275.786 46253976 46297656 46341264 46385212 46429856 46475324 46521460 
3279.161 46567524 46612712 46655984 46696568 46734272 46769664 46803760 
3282.536 46837788 46872632 46908176 46943392 46977024 47007444 47034104 
3285.912 47057292 47078232 47098988 47121144 47145264 47171372 47198156 
3289.287 47224192 47248388 47270408 47290248 47308500 47325572 47341716 
3292.662 47357160 47372016 47386688 47401728 47417804 47435100 47453136 
3296.037 47471212 47487808 47502296 47514456 47524656 47534084 47543772 
3299.413 47554084 47565104 47576268 47586916 47596932 47606660 47616824 
3302.788 47628360 47641856 47657200 47674140 47692296 47711116 47730936 
3306.163 47751872 47774140 47797884 47822816 47848452 47874720 47901836 
3309.538 47931064 47963108 47999336 48039636 48083568 48130320 48179224 
3312.914 48230240 48283824 48341072 48403116 48469940 48541112 48615556 
3316.289 48691904 48769820 48849864 48933300 49021500 49115468 49215428 
3319.664 49320204 49428196 49537812 49648052 49758800 49870244 49982984 
3323.039 50097020 50212120 50327624 50442868 50557464 50671388 50784596 
3326.415 50897200 51008604 51118208 51224748 51327136 51424440 51516280 
3329.790 51602656 51684156 51760936 51834064 51903548 51969760 52032056 
3333.165 52089992 52141996 52185972 52220312 52243704 52256632 52260560 
3336.540 52258464 52253008 52246580 52240004 52232864 52223260 52209364 
3339.916 52189336 52162620 52128656 52087788 52039860 51984324 51921064 
3343.291 51849672 51770900 51686024 51596980 51505200 51411384 51315056 
3346.666 51214908 51109824 50999364 50883936 50765268 50645288 50525676 
3350.041 50406844 50288636 50169424 50048044 49923212 49794620 49662912 
3353.417 49528828 49393184 49256548 49119252 48982036 48845308 48709808 
3356.792 48576016 48444268 48314264 48185592 48057292 47928624 47799476 
3360.167 47669996 47540484 47411448 47283228 47155712 47028532 46901532 
3363.542 46774496 46647096 46519432 46391552 46263188 46134460 46005404 
3366.917 45876572 45748580 45622472 45498424 45376724 45256608 45137072 
3370.293 45017208 44896232 44773384 44648552 44521844 44392744 44261528 
3373.668 44127668 43991544 43853556 43714804 43576424 43439812 43305916 
3377.043 43175168 43047208 42921696 42797868 42675244 42553056 42430904 
3380.418 42308056 42184072 42058264 41930852 41802084 41672376 41542376 
3383.794 41412852 41284060 41156292 41029580 40904504 40781904 40662688 
3387.169 40547760 40437660 40331988 40229760 40128720 40026904 39922712 
3390.544 39814988 39703804 39590040 39475280 39361176 39249600 39141608 
3393.919 39037376 38936320 38836884 38736852 38634348 38527744 38416488 
3397.295 38301248 38183616 38065324 37948332 37833580 37721164 37610700 
3400.670 37501160 37392012 37283108 37174632 37066752 36959628 36852528 
3404.045 36745020 36636244 36525796 36413760 36300564 36186600 36071988 
3407.420 35956068 35837884 35716420 35591104 35461756 35329292 35194924 
3410.796 35059700 34924376 34788844 34652708 34515712 34377512 34238888 
3414.171 34100556 33963844 33829540 33698536 33570688 33445630 33322114 
3417.546 33198774 33074148 32946732 32815456 32679900 32540530 32398634 
3420.921 32256104 32114730 31976004 31840534 31707808 31576696 31445694 
3424.297 31313878 31180888 31047052 30912936 30779290 30646358 30514426 
3427.672 30383460 30253102 30123988 29996156 29869996 29745042 29621012 
3431.047 29496874 29371710 29245412 29118334 28991402 28865922 28742780 
3434.422 28622254 28503462 28385234 28266010 28144840 28021514 27896914 
3437.798 27772034 27648176 27525942 27405298 27284966 27164106 27041622 
3441.173 26917268 26791328 26665424 26540440 26417286 26295046 26172066 
3444.548 26045288 25912180 25770288 25619830 25462890 25303618 25146720 
3447.923 24996550 24855272 24722424 24595050 24469538 24341712 24209264 
3451.299 24071674 23930418 23787842 23646046 23506782 23370042 23234920 
3454.674 23100434 22965326 22829388 22693212 22557532 22422976 22289718 
3458.049 22157128 22024580 21891234 21756606 21620662 21483750 21346846 
3461.424 21211066 21077762 20948426 20824136 20705548 20592304 20483190 
3464.800 20376048 20268552 20158408 20044440 19926480 19805602 19683580 
3468.175 19562078 19442204 19323888 19206468 19088770 18970098 18850076 
3471.550 18728736 18606808 18484846 18363332 18242648 18122516 18003072 
3474.925 17884456 17766770 17650186 17535010 17421488 17309618 17199532 
3478.301 17090818 16983098 16875748 16767943 16658958 16548384 16436530 
3481.676 16324637 16215146 16110428 16012300 15921481 15836833 15756050 
3485.051 15675487 15591642 15502147 15406355 15305161 15200214 15094196 
3488.426 14988684 14884570 14781474 14678608 14575150 14470655 14365055 
3491.802 14259240 14153485 14048339 13943388 13838053 13731477 13623219 
3495.177 13513346 13403092 13293787 13187243 13084959 12987343 12894116 
3498.552 12804084 12715640 12626804 12536146 12442641 12345442 12244753 
3501.927 12140715 12034486 11927433 11821121 11717831 11619602 11527826 
3505.302 11443179 11364842 11290531 11217286 11142320 11063119 10978664 
3508.678 10889436 10797441 10705227 10615409 10530058 10449814 10374302 
3512.053 10302671 10233393 10165550 10098192 10030744 9963034 9894386 
3515.428 9824528 9752717 9678783 9602592 9524450 9445509 9367056 9290582 
3519.286 9217132 9147283 9080624 9015904 8951498 8885580 8817102 8746133 
3523.143 8673317 8600039 8528058 8458049 8390044 8322893 8255145 8185078 
3527.000 8112254 8036642 7959692 7882756 7807149 7733613 7661876 7592040 
3530.858 7523664 7456412 7390586 7326488 7263747 7201521 7139000 7074940 
3534.715 7008969 6941190 6872614 6804486 6738221 6673984 6611371 6549036 
3538.573 6486206 6422409 6357882 6294071 6231883 6172526 6116102 6062204 
3542.430 6009321 5956311 5901963 5845070 5785464 5722677 5656609 5587162 
3546.288 5515276 5442093 5369627 5300124 5235664 5177114 5123869 5074453 
3550.145 5026350 4977246 4924931 4868768 4809397 4748024 4687028 4628518 
3554.002 4573834 4523610 4477576 4434560 4393255 4351786 4308916 4263273 
3557.860 4214624 4162902 4108711 4053055 3996939 3941531 3887970 3837558 
3561.717 3791663 3751756 3718603 3692337 3671619 3653842 3634997 3610840 
3565.575 3577030 3530762 3471206 3400438 3322502 3242510 3165538 3095119 
3569.432 3032920 2978970 2931932 2890002 2850678 2812158 2772941 2732327 
3573.290 2690450 2648044 2606042 2565477 2527049 2490823 2456567 2424246 
3577.147 2393293 2363242 2333526 2302946 2270270 2234832 2195568 2153409 
3581.004 2109723 2067041 2028424 1996201 1971670 1954894 1943345 1934425 
3584.862 1924208 1908599 1884139 1848433 1800253 1740768 1673074 1602565 
3588.719 1534594 1474646 1426042 1390107 1365876 1350686 1341147 1333370 
3592.577 1323765 1310105 1291096 1266471 1236897 1203969 1169515 1135827 
3596.434 1105033 1078559 1056304 1036973 1017843 995691 967862 932962 891657 
3600.774 847068 802618 762586 729760 705167 688739 679547 675930 677025 
3605.113 680775 685089 686881 682135 667368 640256 601733 555283 506351 
3609.453 460873 422830 392981 370099 350434 331035 309980 287267 264854 
3613.792 245658 232000 224640 223513 226364 230309 232033 228022 215325 
3618.132 192253 158774 117575 73199 31379 -2915 -26870 -40222 -44828 -43072 
3622.954 -36843 -26042 -9012 17130 54508 102661 157415 211048 252488 270126 
3627.776 255936 208794 137461 58750 -8382 -49996 -62320 -48803 -17925 21703 
3632.597 62296 99512 131661 159901 186253 213037 240951 269794 298441 325962 
3637.419 352158 378622 407209 440176 478387 521312 566895 613280 658872 
3641.759 704404 752296 806302 869013 941629 1022725 1108753 1194466 1274912 
3646.098 1345867 1403869 1446154 1470224 1473150 1452437 1408224 1345136 
3649.956 1272951 1205563 1157056 1136027 1145295 1180080 1230384 1284051 
3653.813 1328983 1355705 1357201 1331974 1283718 1221114 1155362 1097525 
3657.671 1054577 1029368 1019338 1018740 1020467 1017279 1003994 979120 
3661.528 944584 904672 864797 828909 799331 776294 759831 751799 755914 
3665.868 777722 822104 892287 987821 1108056 1254708 1438641 1681390 2015941 
3670.207 2478160 3092316 3868012 4798576 5869552 7062816 8355048 9709176 
3674.065 11045037 12229655 13090730 13448646 13201179 12364054 11057103 
3677.440 9444426 7684741 5917346 4246744 2755468 1503538 515573 -216311 
3681.297 -730884 -1079853 -1317298 -1486001 -1610538 -1702960 -1767941 
3684.673 -1808198 -1829843 -1842018 -1854325 -1875374 -1909221 -1955766 
3688.048 -2011342 -2071067 -2131607 -2190886 -2248180 -2301675 -2349068 
3691.423 -2387459 -2414907 -2431284 -2438170 -2438960 -2437050 -2435139 
3694.798 -2434677 -2435797 -2438038 -2440443 -2442190 -2442387 -2440608 
3698.174 -2436621 -2431185 -2426605 -2426077 -2433293 -2451316 -2480078 
3701.549 -2516778 -2555220 -2588850 -2612466 -2624355 -2625837 -2620337 
3704.924 -2611214 -2600115 -2586874 -2569384 -2545602 -2514670 -2477871 
3708.299 -2439158 -2403836 -2377375 -2363897 -2365875 -2383867 -2416259 
3711.675 -2459783 -2509827 -2560985 -2607262 -2643555 -2666970 -2677080 
3715.050 -2675993 -2666904 -2654028 -2640460 -2627187 -2614013 -2599653 
3718.425 -2582724 -2563356 -2543131 -2524750 -2511112 -2503568 -2501657 
3721.800 -2503140 -2505215 -2505610 -2503337 -2499384 -2495529 -2493553 
3725.176 -2495068 -2500010 -2507784 -2516251 -2523169 -2525541 -2521093 
3728.551 -2508279 -2487326 -2460311 -2431218 -2405220 -2387525 -2381165 
3731.926 -2385976 -2397971 -2411184 -2420839 -2425913 -2429438 -2437181 
3735.301 -2455105 -2484954 -2523202 -2561676 -2591551 -2607558 -2608184 
3738.677 -2595899 -2574984 -2548336 -2516778 -2479518 -2435534 -2386635 
3742.052 -2338456 -2301774 -2290074 -2314925 -2378133 -2467427 -2557921 
3745.427 -2624487 -2653468 -2645334 -2610094 -2561775 -2514307 -2477146 
3748.802 -2455467 -2449504 -2456555 -2473028 -2496748 -2527023 -2562895 
3752.177 -2601959 -2639077 -2668353 -2685181 -2688243 -2679615 -2663315 
3755.553 -2643951 -2625211 -2609172 -2595932 -2585787 -2579463 -2578706 
3758.928 -2585425 -2600576 -2621621 -2643490 -2659066 -2662952 -2652381 
3762.303 -2629130 -2598666 -2567902 -2543493 -2529230 -2525079 -2528143 
3765.678 -2533447 -2537070 -2537070 -2534962 -2533414 -2535720 -2543955 
3769.054 -2558218 -2576598 -2595734 -2612466 -2624553 -2631074 -2632588 
3772.429 -2630316 -2626002 -2620963 -2616220 -2612136 -2608184 -2603145 
3775.804 -2595932 -2585590 -2573106 -2560161 -2550082 -2546063 -2550279 
3779.179 -2562236 -2578640 -2594087 -2603869 -2604429 -2595734 -2580253 
3782.555 -2562039 -2545437 -2533513 -2527220 -2526035 -2528044 -2530877 
3785.930 -2533348 -2535324 -2537630 -2540924 -2546030 -2552816 -2560853 
3789.305 -2569120 -2577059 -2584272 -2589773 -2592868 -2592704 -2588719 
3792.680 -2580847 -2570208 -2558844 -2549785 -2545602 -2548435 -2557756 
3796.056 -2570833 -2582263 -2585853 -2576993 -2553804 -2517766 -2475202 
3799.431 -2434480 -2405648 -2396949 -2412370 -2447758 -2491312 -2527583 
3802.806 -2544515 -2536642 -2506862 -2463605 -2419488 -2386635 -2374245 
3806.181 -2386174 -2419026 -2463078 -2505577 -2537564 -2554825 -2558679 
3809.557 -2553573 -2543658 -2530745 -2514406 -2492037 -2461035 -2421135 
3812.932 -2374904 -2328305 -2288953 -2264760 -2260376 -2275472 -2303027 
3816.307 -2331338 -2349002 -2347980 -2327152 -2291129 -2249202 -2211392 
3819.682 -2188150 -2187029 -2209546 -2250520 -2298478 -2340598 -2367325 
3823.058 -2375003 -2366303 -2347651 -2326757 -2309520 -2299961 -2298182 
3826.433 -2301873 -2306356 -2307443 -2302862 -2292348 -2277846 -2262123 
3829.808 -2248015 -2237236 -2230182 -2226028 -2223094 -2219435 -2213073 
3833.183 -2202524 -2186864 -2165995 -2141070 -2114395 -2089962 -2071825 
3836.559 -2063746 -2067604 -2082279 -2103877 -2126793 -2146181 -2158907 
3839.934 -2164776 -2165699 -2164875 -2165138 -2168567 -2176018 -2187425 
3843.309 -2201897 -2219007 -2237302 -2255597 -2272275 -2285262 -2292447 
3846.684 -2291985 -2282559 -2263376 -2234005 -2194249 -2144169 -2084719 
3850.060 -2017840 -1948575 -1884611 -1836442 -1817569 -1838653 -1903679 
3853.435 -2004020 -2120562 -2229621 -2313837 -2366764 -2390853 -2393390 
3856.810 -2381528 -2361986 -2338555 -2313738 -2289151 -2265881 -2245708 
3860.185 -2229325 -2217325 -2209183 -2203513 -2198667 -2194282 -2191447 
3863.561 -2191875 -2197447 -2207568 -2218875 -2225237 -2220391 -2200876 
3866.936 -2167710 -2127156 -2088676 -2063548 -2060349 -2081091 -2119968 
3870.311 -2163688 -2198832 -2216435 -2215348 -2201502 -2184557 -2173842 
3873.686 -2174468 -2186304 -2204139 -2220029 -2226127 -2218710 -2198007 
3877.062 -2168237 -2134937 -2104339 -2080992 -2068000 -2064966 -2069418 
3880.437 -2077035 -2082542 -2081421 -2071528 -2052962 -2029218 -2005505 
3883.812 -1989211 -1986606 -2001184 -2031790 -2071166 -2108724 -2133487 
3887.187 -2138564 -2123364 -2092699 -2054479 -2017773 -1991454 -1980504 
3890.563 -1986870 -2007319 -2036374 -2066681 -2092072 -2109186 -2116605 
3893.938 -2114758 -2104866 -2088577 -2067538 -2043168 -2017015 -1991026 
3897.313 -1965892 -1943264 -1923769 -1908100 -1896487 -1889692 -1887382 
3900.688 -1889692 -1896455 -1906813 -1919646 -1934226 -1949762 -1965826 
3904.063 -1982384 -1999535 -2016487 -2032582 -2046334 -2055897 -2060250 
3907.439 -2058272 -2049928 -2035912 -2017741 -1997094 -1976150 -1956590 
3910.814 -1939372 -1924858 -1912520 -1902063 -1892958 -1885205 -1879135 
3914.189 -1875637 -1875572 -1879596 -1887184 -1897279 -1908001 -1917633 
3917.564 -1924495 -1928321 -1929344 -1928420 -1925847 -1921295 -1913873 
3920.940 -1903151 -1888867 -1872536 -1856337 -1843833 -1837729 -1839478 
3924.315 -1848452 -1861748 -1875275 -1884743 -1887580 -1883258 -1872833 
3927.690 -1858977 -1843932 -1829480 -1816183 -1804338 -1793811 -1784935 
3931.065 -1779028 -1777147 -1780513 -1788961 -1801170 -1814896 -1827468 
3934.441 -1836409 -1840533 -1840104 -1835815 -1829348 -1821792 -1813973 
3937.816 -1806119 -1797870 -1789126 -1779853 -1770647 -1762562 -1756886 
3941.191 -1754873 -1756985 -1762760 -1771241 -1779886 -1786816 -1790512 
3944.566 -1789984 -1786189 -1780546 -1775102 -1771802 -1771736 -1775036 
3947.942 -1780612 -1786684 -1791337 -1793185 -1791502 -1786948 -1780678 
3951.317 -1774310 -1769129 -1766423 -1766951 -1771109 -1778434 -1788301 
3954.692 -1799388 -1809782 -1817932 -1822386 -1821924 -1816975 -1808033 
3958.067 -1796847 -1785199 -1774838 -1766852 -1761935 -1760153 -1761110 
3961.443 -1764377 -1769063 -1774013 -1778434 -1781239 -1781734 -1779853 
3964.818 -1775828 -1770185 -1763651 -1756688 -1749527 -1741903 -1733521 
3968.193 -1724313 -1714313 -1704049 -1694082 -1685005 -1677480 -1671506 
3971.568 -1667314 -1664904 -1664277 -1665465 -1668304 -1672100 -1675764 
3974.944 -1677777 -1677183 -1673090 -1666456 -1658138 -1649721 -1642987 
3978.319 -1638696 -1636583 -1636055 -1636022 -1635461 -1634041 -1632292 
3981.694 -1630806 -1630509 -1631698 -1634107 -1637144 -1639950 -1641898 
3985.069 -1642525 -1642063 -1640808 -1639257 -1638234 -1637970 -1638861 
3988.445 -1641270 -1644835 -1649259 -1653484 -1656388 -1656454 -1653154 
3991.820 -1645958 -1635230 -1622752 -1609812 -1598159 -1589014 -1582973 
3995.195 -1579671 -1578450 -1578384 -1578285 -1577921 -1577096 -1576271 
3998.570 -1576337 -1578186 -1582477 -1589278 -1597729 
##END=
