
##TITLE=Z345_2_e
##JCAMP-DX=5.01  $$ Nicolet v. 1
##DATATYPE=INFRARED SPECTRUM
##ORIGIN=UniL
##OWNER=Nicolet
##LONGDATE=2011/09/14
##TIME=09:59:59
##SPECTROMETER/DATA SYSTEM=Nicolet iS5
##DATA PROCESSING=
Ratio against background
%Transmittance->Absorbance
Truncated
ElementMultiply or ElementDivide
##COMMENTS=
Number of sample scans: 32
Collection length: 51.21 sec
Sample gain: 2.0
Background collected on: Mer Sep 14 09:43:49 2011 (GMT+02:00);
Number of background scans: 32
Background gain: 2.0
Sample spacing:  1.000
Number of scan points: 12415
Resolution points: 8192
Number of FFT points: 65536
Apodization: N-B fort;
Phase correction: Mertz;
Laser frequency: 15798.0 cm-1
Number of rejected sample scans: 0
Number of rejected background scans: 0
Bench serial number: ASB1000141;
##RESOLUTION=4.000
##XUNITS=1/CM
##YUNITS=ABSORBANCE
##FIRSTX=649.893372
##LASTX=4000.122314
##FIRSTY=0.124269
##MAXX=4000.122314
##MINX=649.893372
##MAXY=0.625901
##MINY=-0.001015
##XFACTOR=1.000000
##YFACTOR=1.000000E-009
##NPOINTS=6950
##DELTAX=0.482117
##ZPD=6100
##XYDATA=(X++(Y..Y))
649.893 124268752 124456792 124718912 125089408 125570952 126133960 
652.786 126735360 127350552 127990648 128703744 129550200 130574272 
655.679 131784616 133153576 134639408 136215872 137891904 139709120 
658.571 141720112 143955520 146412016 149058592 151866160 154838352 
661.464 158027216 161510736 165357680 169576272 174097520 178782016 
664.357 183478736 188071328 192474896 196638512 200480944 203821456 
667.250 206374880 207823552 207980560 206904992 204841264 202051232 
670.142 198697008 194835920 190480000 185661424 180488800 175146000 
673.035 169836320 164748512 159988992 155576768 151478592 147650432 
675.928 144073056 140760144 137739904 135027616 132608832 130440112 
678.820 128464504 126633960 124925968 123340688 121888552 120571832 
681.713 119374920 118265520 117210888 116191024 115209536 114289656 
684.606 113463584 112754688 112166928 111687336 111292984 110965416 
687.498 110695128 110480312 110316888 110186320 110051360 109858664 
690.391 109549744 109080912 108431016 107604064 106620592 105506464 
693.284 104283488 102965904 101569120 100117528 98646176 97202104 95831024 
696.659 94563760 93412992 92372320 91425200 90554992 89753704 89021560 
700.034 88361952 87775080 87252392 86778600 86338512 85923096 85533896 
703.408 85180400 84873440 84617504 84406504 84224720 84054848 83886320 
706.783 83719504 83566256 83444256 83372224 83366768 83442440 83617832 
710.158 83915216 84357328 84955952 85697816 86534312 87374776 88107848 
713.533 88618928 88815968 88659680 88167224 87408040 86474832 85468504 
716.908 84476200 83556768 82749952 82077504 81549152 81167488 80927976 
720.282 80820680 80832616 80953168 81178632 81512008 81956120 82502080 
723.657 83114152 83725456 84239488 84541168 84531672 84147344 83379208 
727.032 82274848 80927736 79457464 77975648 76580608 75340472 74289240 
730.407 73435512 72765928 72255776 71873784 71589400 71377608 71218888 
733.782 71100968 71017336 70963848 70936496 70929632 70936808 70952768 
737.156 70975672 71008400 71056672 71126608 71221424 71339104 71473416 
740.531 71616320 71761552 71906544 72052456 72200832 72351968 72502808 
743.906 72648248 72783392 72908752 73029400 73155680 73297696 73460784 
747.281 73643416 73837312 74031248 74214944 74383960 74538696 74683752 
750.656 74823672 74960912 75096192 75230088 75365416 75508984 75668888 
754.031 75853432 76066552 76307624 76572424 76856800 77160280 77486720 
757.405 77842720 78234288 78664016 79129584 79627104 80153752 80712096 
760.780 81309992 81959360 82671792 83455976 84318256 85264704 86307104 
764.155 87467456 88778688 90290216 92068632 94194320 96773648 99926216 
767.530 103762232 108356768 113690984 119609944 125760840 131622640 
770.423 136559648 139892528 141111392 139983712 136643280 131544664 
773.315 125367296 118861640 112640352 107151280 102622160 99079944 96421936 
776.690 94475824 93069496 92047536 91293776 90730696 90300088 89963232 
780.065 89696784 89490672 89348032 89279000 89294792 89400136 89592032 
783.440 89862208 90203184 90612744 91094912 91655560 92297488 93015840 
786.815 93798760 94632032 95507152 96426280 97402792 98457096 99606992 
790.189 100864664 102234688 103718936 105325312 107074056 108997688 
793.082 111138880 113535696 116210904 119160080 122347448 125703576 
795.975 129127176 132504520 135713872 138644704 141225360 143433520 
798.867 145313376 146962688 148524000 150148960 151958384 154036368 
801.760 156417632 159106320 162103280 165434112 169160016 173382928 
804.653 178217968 183765824 190088800 197186688 204987216 213331952 
807.546 221993376 230652288 238885680 246219360 252117456 256055264 
810.438 257635264 256618736 252990784 246941520 238828432 229102768 
813.331 218224288 206659568 194823952 183060624 171667568 160863936 
816.224 150796336 141560080 133192080 125689896 119025080 113150376 
819.116 108008000 103531840 99653960 96303048 93407416 90903208 88733448 
822.491 86852456 85228096 83836560 82659208 81678744 80875880 80230520 
825.866 79724824 79345280 79084824 78942136 78917544 79008744 79207112 
829.241 79495416 79849968 80241872 80638248 81007624 81319136 81545032 
832.616 81666944 81678744 81591568 81432712 81244624 81075832 80967824 
835.990 80951648 81039768 81227648 81496984 81822696 82179344 82541264 
839.365 82886320 83195608 83452640 83647392 83777288 83848544 83873896 
842.740 83867952 83842672 83802280 83743736 83659768 83544720 83399080 
846.115 83231776 83056784 82890936 82747512 82633960 82553408 82506608 
849.490 82495904 82526840 82606904 82742944 82938176 83191280 83496696 
852.865 83848016 84241176 84675520 85152872 85675256 86242072 86849896 
856.239 87494080 88171448 88883048 89634472 90434312 91290880 92208648 
859.614 93189224 94232768 95341920 96525456 97798336 99178232 100683256 
862.989 102326144 104113624 106048808 108135144 110380712 112801512 
865.882 115418760 118258728 121350296 124722320 128406568 132436824 
868.774 136841616 141635360 146797264 152258304 157875472 163431616 
871.667 168663360 173258416 176914208 179382896 180480464 180127904 
874.560 178352640 175290096 171160400 166243824 160864608 155324720 
877.452 149893712 144791792 140161104 136087344 132605328 129711480 
880.345 127379968 125572008 124244712 123350376 122839584 122665864 
883.238 122782696 123149480 123733008 124502600 125429184 126480344 
886.131 127615320 128788160 129952696 131063936 132089424 133007672 
889.023 133807752 134486112 135043392 135483152 135813008 136047088 
891.916 136207296 136319216 136410928 136506560 136621632 136763888 
894.809 136933392 137126224 137335424 137552624 137767904 137968656 
897.701 138143040 138284208 138395744 138494992 138612784 138791328 
900.594 139072416 139492976 140080144 140849904 141811552 142973872 
903.487 144347280 145946176 147785696 149877248 152227072 154835504 
906.379 157700944 160823440 164207232 167859520 171785904 175983680 
909.272 180439392 185125872 190009440 195054368 200223872 205484144 
912.165 210796912 216112672 221373872 226513360 231463424 236169248 
915.058 240589440 244695248 248462320 251857344 254829888 257316384 
917.950 259239824 260524928 261110000 260947024 260009264 258293632 
920.843 255825216 252663168 248903184 244682096 240155056 235483072 
923.736 230823024 226299984 222016384 218056736 214487504 211371232 
926.628 208762880 206696592 205176960 204161872 203562304 203234512 
929.521 203000112 202679264 202096576 201121632 199687040 197792144 
932.414 195507232 192958672 190322000 187782096 185511152 183654096 
935.306 182296480 181467872 181142880 181256928 181718144 182423152 
938.199 183278032 184193552 185090912 185905728 186579888 187066768 
941.092 187334800 187365472 187154544 186708608 186043568 185182816 
943.985 184158720 183019200 181825360 180648384 179567024 178648464 
946.877 177942048 177474624 177249312 177253552 177467840 177875216 
949.770 178462752 179220720 180138752 181200864 182385680 183671600 
952.663 185039248 186478320 187987440 189569712 191227488 192958096 
955.555 194751824 196597104 198485680 200416272 202395520 204432800 
958.448 206534544 208698848 210915424 213169920 215451088 217755920 
961.341 220089344 222459376 224870464 227317792 229787696 232262384 
964.233 234728064 237181536 239630336 242087216 244562064 247056000 
967.126 249560736 252063872 254556144 257037664 259516832 262004464 
970.019 264503536 267003504 269479968 271904288 274253024 276518624 
972.912 278711264 280855552 282982080 285117600 287286688 289513696 
975.804 291826944 294265792 296875776 299698240 302764480 306086112 
978.697 309657696 313463648 317489856 321730912 326187488 330857344 
981.590 335720640 340724928 345786656 350791904 355605248 360096096 
984.482 364138112 367619648 370458464 372603392 374055392 374875584 
987.375 375198112 375216032 375140096 375187776 375531968 376281824 
990.268 377493024 379173504 381307680 383871488 386841888 390192320 
993.160 393882976 397861664 402066016 406434944 410929536 415536032 
996.053 420263840 425129664 430141248 435285376 440533952 445854240 
998.946 451229152 456666208 462194272 467845600 473636608 479555936 
1001.839 485568928 491634912 497724160 503833120 509977888 516177120 
1004.731 522430368 528708800 534959968 541134208 547205568 553185152 
1007.624 559109440 565016256 570913472 576765248 582495744 588017088 
1010.517 593264832 598208576 602849856 607193984 611222592 614877312 
1013.409 618076096 620736704 622815744 624321344 625303680 625819136 
1016.302 625900992 625546752 624731072 623437312 621689088 619555328 
1019.195 617137088 614530752 611789312 608914048 605863424 602586112 
1022.087 599042176 595215872 591101824 586675200 581869632 576581824 
1024.980 570679104 564048000 556623488 548392896 539391552 529675360 
1027.873 519303392 508334688 496844000 484947488 472805376 460624896 
1030.766 448640640 437062944 426078272 415831840 406418880 397914464 
1033.659 390372672 383822976 378271136 373682624 369979488 367039808 
1036.552 364716736 362865344 361347648 360057696 358915808 357853856 
1039.446 356812064 355730048 354547968 353220480 351720512 350039904 
1042.339 348182048 346149728 343935552 341524288 338900992 336066976 
1045.232 333049312 329903648 326703392 323518784 320410880 317419808 
1048.125 314568256 311873216 309352320 307025312 304911680 303020032 
1051.018 301342784 299855680 298527136 297327904 296239776 295257792 
1053.911 294383232 293612416 292928768 292298720 291678112 291025856 
1056.804 290308928 289508032 288613792 287616416 286500480 285246016 
1059.697 283833984 282258976 280536864 278707872 276826240 274950080 
1062.590 273134656 271424032 269857440 268478368 267333216 266475264 
1065.483 265955632 265807008 266037040 266621856 267512944 268641728 
1068.376 269931200 271308448 272697440 274022784 275212928 276196544 
1071.269 276918048 277347968 277487328 277366656 277032832 276539072 
1074.162 275927744 275227712 274460128 273644000 272805376 271978912 
1077.055 271199008 270494432 269879584 269353824 268906816 268528128 
1079.948 268213808 267966752 267791056 267684016 267629200 267598336 
1082.842 267560752 267490800 267378960 267231440 267063856 266890560 
1085.735 266716416 266535248 266334768 266105504 265847952 265573792 
1088.628 265302064 265051424 264834432 264659520 264537904 264489408 
1091.521 264550560 264769760 265193696 265856864 266765632 267895664 
1094.414 269191552 270580160 271984640 273325696 274533856 275549088 
1097.307 276318848 276807264 277000000 276908832 276568800 276028768 
1100.200 275336192 274517216 273570016 272464256 271156576 269602240 
1103.093 267772144 265659904 263279744 260660432 257837360 254853392 
1105.986 251756752 248600048 245443888 242344208 239343808 236467488 
1108.879 233715584 231070528 228504576 225992848 223517488 221069280 
1111.772 218642960 216231296 213820912 211396016 208942560 206456448 
1114.665 203946528 201434064 198946944 196510912 194148720 191878064 
1117.558 189713744 187673408 185775648 184034288 182451904 181011312 
1120.451 179672800 178375120 177050624 175636160 174081600 172360784 
1123.344 170466896 168406800 166192960 163839088 161357344 158759280 
1126.238 156058112 153270432 150414368 147510720 144581744 141649360 
1129.131 138738208 135873760 133079600 130377472 127781240 125296336 
1132.024 122920584 120647240 118469296 116383520 114392448 112503768 
1134.917 110727120 109070816 107539464 106134008 104853032 103694824 
1137.810 102659088 101745992 100954784 100281112 99716192 99246064 98854112 
1141.185 98525072 98244296 98000288 97782152 97576480 97366632 97132528 
1144.560 96851248 96502248 96069392 95542032 94916072 94192512 93377624 
1147.936 92482552 91525904 90535112 89543448 88591504 87720864 86967400 
1151.311 86361552 85923936 85665488 85590704 85697736 85979632 86422520 
1154.686 87003952 87693160 88447080 89218040 89954920 90604872 91121432 
1158.061 91461560 91586200 91463976 91069744 90388488 89418824 88173112 
1161.437 86677736 84966344 83079896 81060456 78946864 76778072 74589680 
1164.812 72412600 70275608 68201056 66204564 64296028 62479936 60757636 
1168.187 59130068 57598908 56167880 54841920 53625584 52522196 51533816 
1171.562 50660704 49903436 49264084 48745652 48353700 48094084 47972472 
1174.938 47993932 48164120 48489388 48979736 49649052 50514100 51595380 
1178.313 52913844 54489508 56343188 58494588 60964316 63775808 66951848 
1181.688 70515360 74485192 78871248 83668400 88846248 94344832 100053608 
1185.063 105804104 111384048 116520560 120920640 124320760 126500384 
1187.956 127336744 126817256 125038240 122182440 118485008 114219272 
1190.849 109643312 104985552 100439712 96136816 92157192 88533040 85254544 
1194.225 82282536 79559008 77023768 74618752 72297104 70028752 67797632 
1197.600 65600804 63444792 61342476 59309344 57360548 55510700 53770916 
1200.975 52148420 50646888 49265940 48002256 46851332 45808408 44869780 
1204.350 44032172 43292772 42647644 42091304 41617456 41219608 40893108 
1207.726 40635980 40448864 40334168 40294504 40331624 40446168 40638056 
1211.101 40908148 41258228 41690832 42208100 42809788 43492732 44250372 
1214.476 45074952 45958292 46892892 47871980 48887764 49929196 50983080 
1217.851 52033104 53062568 54058496 55011048 55916136 56773228 57585252 
1221.227 58357636 59097608 59815796 60526492 61244912 61987912 62769472 
1224.602 63598588 64479144 65409936 66386432 67402472 68451192 69524176 
1227.977 70609608 71693384 72757776 73784520 74759312 75673032 76524408 
1231.352 77319296 78070344 78795640 79517104 80263400 81068720 81970488 
1234.728 83011736 84234176 85674248 87364000 89326744 91579040 94133168 
1238.103 96997080 100174896 103665000 107459840 111545688 115904968 
1240.996 120523640 125392912 130510760 135878896 141492144 147327584 
1243.889 153339328 159446992 165538768 171482240 177113088 182248448 
1246.782 186696096 190242960 192685280 193847904 193594832 191860224 
1249.675 188651808 184051584 178200928 171291616 163557616 155239488 
1252.568 146587360 137841472 129198328 120823864 112840744 105322864 
1255.461 98315056 91833064 85870320 80405008 75403256 70824264 66621460 
1258.836 62748260 59162188 55824340 52704192 49779460 47034440 44460684 
1262.212 42054212 39814228 37740756 35833060 34089084 32504998 31076024 
1265.587 29796496 28660940 27662654 26793372 26043282 25400670 24853974 
1268.962 24393756 24013752 23711620 23487824 23344028 23281762 23301970 
1272.337 23406444 23598920 23886620 24279092 24784686 25406256 26135188 
1275.713 26950018 27813646 28674886 29478754 30165898 30682306 30988226 
1279.088 31058156 30886930 30488550 29894594 29148134 28295362 27384262 
1282.463 26456020 25542478 24669078 23852700 23104838 22433374 21842104 
1285.838 21331570 20898010 20534566 20232204 19981848 19776714 19612478 
1289.214 19487392 19399516 19346196 19322292 19321184 19336912 19365216 
1292.589 19405200 19458110 19525376 19606584 19698352 19795374 19892382 
1295.964 19986186 20077304 20169550 20268100 20377160 20498404 20631462 
1299.339 20774952 20928538 21094108 21274706 21474282 21694706 21935598 
1302.715 22195590 22473638 22771140 23092852 23445506 23835550 24266302 
1306.090 24737016 25242758 25776582 26331096 26900170 27477158 28054276 
1309.465 28620840 29161954 29662376 30107440 30486274 30793302 31027620 
1312.840 31190182 31282078 31302660 31250492 31124430 30926028 30660722 
1316.216 30336628 29964348 29554258 29115924 28658992 28193878 27732650 
1319.591 27289730 26878774 26510642 26190930 25919250 25690554 25497992 
1322.966 25336634 25204726 25103400 25035124 25001568 25002378 25036176 
1326.341 25102240 25202936 25343800 25532462 25775422 26075826 26432216 
1329.717 26840002 27294494 27793332 28337590 28930020 29571992 30260064 
1333.092 30983778 31725098 32462794 33172738 33830364 34413484 34900604 
1336.467 35272616 35515836 35624192 35602936 35469416 35253676 34992860 
1339.842 34723012 34476076 34273088 34125032 34037444 34013616 34058408 
1343.218 34178944 34382496 34674132 35055572 35525760 36082680 36726452 
1346.593 37459584 38285544 39205500 40215004 41301444 42444788 43620788 
1349.968 44800972 45954276 47049468 48050040 48918428 49619784 50123792 
1353.343 50412612 50483096 50347608 50030196 49562436 48980996 48320112 
1356.719 47613164 46892488 46186272 45521012 44918976 44394212 43953964 
1360.094 43598404 43324476 43130960 43022476 43010000 43108312 43329564 
1363.469 43676844 44142600 44709364 45354656 46051488 46771508 47482336 
1366.844 48142980 48708728 49132904 49373624 49405400 49220512 48830140 
1370.219 48256936 47530204 46680332 45734668 44723836 43684132 42658612 
1373.595 41701884 40870244 40211552 39760008 39531060 39528044 39753220 
1376.970 40216712 40941168 41962052 43316972 45037460 47139312 49614584 
1380.345 52424684 55488600 58685816 61839576 64726600 67121976 68810768 
1383.720 69636184 69521920 68465536 66535288 63851720 60602104 57018596 
1387.096 53349940 49841628 46674872 43947180 41678904 39831912 38339828 
1390.471 37127528 36128448 35286880 34558408 33911820 33326336 32791264 
1393.846 32305642 31874832 31506754 31207412 30978228 30815000 30709758 
1397.221 30650802 30624846 30619014 30622464 30630428 30646962 30684048 
1400.597 30757058 30879424 31058796 31295180 31582754 31913414 32281480 
1403.972 32685510 33127390 33606844 34116288 34637168 35144624 35611784 
1407.347 36019316 36361444 36644640 36884664 37098836 37301992 37504120 
1410.722 37711984 37934412 38183904 38476400 38827392 39245248 39728600 
1414.098 40266040 40843276 41447628 42073452 42722952 43401176 44109812 
1417.473 44843952 45592624 46345576 47102160 47878156 48698760 49583232 
1420.848 50539748 51559896 52628368 53730752 54865188 56045988 57300052 
1424.223 58655552 60129516 61722800 63422440 65213568 67090260 69061712 
1427.599 71148000 73370032 75738544 78248688 80883192 83622688 86457040 
1430.974 89388080 92421304 95556528 98778640 102061560 105368304 108666920 
1434.349 111934480 115142192 118249720 121190976 123876832 126219424 
1437.242 128167448 129726440 130936936 131849256 132495168 132878480 
1440.135 132977528 132755488 132176880 131211520 129842016 128064960 
1443.028 125891744 123351600 120490048 117372488 114069296 110641648 
1445.921 107141480 103608672 100086232 96641424 93366328 90364792 87726008 
1449.297 85491336 83650808 82153720 80937560 79947544 79150896 78534960 
1452.672 78093744 77811448 77655152 77570288 77490552 77355400 77123128 
1456.047 76797680 76435928 76139424 76004184 76079384 76361184 76810528 
1459.422 77380424 78027120 78716480 79417440 80097568 80727184 81275912 
1462.798 81717736 82038720 82241808 82352376 82412544 82476920 82595480 
1466.173 82802152 83116568 83545128 84086408 84735360 85485528 86331880 
1469.548 87271232 88307176 89451304 90723304 92147360 93747152 95543192 
1472.923 97546984 99773104 102248024 105004200 108080960 111508504 115292136 
1476.299 119405800 123794336 128394856 133150296 138025872 143012368 
1479.192 148107664 153307264 158596976 163944288 169311424 174661296 
1482.085 179959424 185170128 190245936 195113088 199677552 203822832 
1484.978 207417328 210339104 212474672 213727056 214019376 213292144 
1487.871 211509680 208672224 204842752 200172128 194900208 189349824 
1490.764 183858464 178697856 174042320 169941232 166349024 163171120 
1493.657 160299008 157640768 155137136 152766768 150537776 148466176 
1496.550 146552944 144760352 143007216 141196000 139221648 136995520 
1499.443 134465024 131609712 128447592 125024992 121411640 117681424 
1502.336 113886784 110056696 106169968 102146056 97854568 93137240 87873560 
1505.711 82080384 76007176 70107872 64858572 60534908 57133052 54451532 
1509.087 52246208 50309100 48506912 46778076 45110276 43516608 42010596 
1512.462 40597124 39266320 37999576 36775384 35573696 34376652 33169628 
1515.837 31945512 30710614 29490032 28322984 27249544 26295784 25460150 
1519.212 24712882 24000692 23268620 22480932 21646536 20821218 20081814 
1522.588 19483788 19035800 18704278 18433784 18173508 17889774 17576930 
1525.963 17253002 16946508 16678791 16453221 16257832 16076317 15900377 
1529.338 15734438 15592295 15487657 15424619 15392348 15367288 15322459 
1532.713 15243075 15135812 15029946 14960356 14950650 15001203 15094162 
1536.089 15203955 15308558 15396056 15463484 15513754 15548094 15559496 
1539.464 15533053 15455073 15327745 15173553 15024321 14904903 14819219 
1542.839 14750039 14667607 14545615 14372075 14156566 13924913 13707505 
1546.214 13524079 13375413 13246610 13115966 12967030 12795382 12611659 
1549.590 12435038 12284016 12166168 12075979 11999571 11924334 11845773 
1552.965 11769474 11707449 11671573 11666842 11688829 11726886 11769678 
1556.340 11810021 11842947 11861947 11855103 11804541 11698633 11548446 
1559.715 11390964 11269923 11212390 11223203 11287980 11383276 11483596 
1563.091 11569169 11631446 11674364 11712078 11762153 11836001 11933257 
1566.466 12043207 12150323 12242878 12316943 12378066 12437288 12506646 
1569.841 12592660 12695340 12812581 12944021 13093257 13265911 13464880 
1573.216 13687706 13923715 14157524 14374335 14566893 14742670 14922050 
1576.592 15130734 15383011 15678750 16006628 16354294 16714016 17084890 
1579.967 17470330 17872786 18288850 18708604 19116364 19497442 19843058 
1583.342 20152474 20431162 20686746 20924574 21145208 21346360 21525876 
1586.717 21685860 21833880 21981776 22140774 22317762 22513804 22725262 
1590.093 22948384 23183890 23437986 23721522 24045446 24415766 24831942 
1593.468 25287814 25776756 26295258 26846062 27436074 28073504 28763030 
1596.843 29504004 30291044 31118236 31981852 32881248 33817828 34791320 
1600.218 35796720 36824360 37861416 38894792 39915884 40920376 41906472 
1603.594 42872320 43811148 44708444 45543092 46285456 46900868 47356240 
1606.969 47620412 47672804 47507136 47133292 46575936 45870012 45060540 
1610.344 44195896 43325684 42499488 41755796 41118664 40593960 40169640 
1613.719 39820944 39515088 39220808 38911824 38574924 38215196 37855776 
1617.094 37529952 37266792 37082052 36973840 36927052 36917456 36916988 
1620.470 36898732 36837380 36716392 36531856 36295520 36031520 35768944 
1623.845 35531660 35329544 35158168 35003852 34851276 34687016 34502584 
1627.220 34294748 34064032 33813456 33547278 33271064 32991022 32713554 
1630.595 32444048 32184768 31933244 31680510 31411358 31105530 30739348 
1633.971 30291968 29753240 29134456 28472470 27821838 27235680 26744424 
1637.346 26350738 26036142 25774190 25538156 25306954 25068646 24820540 
1640.721 24568576 24323208 24095630 23891696 23709554 23538646 23361790 
1644.096 23158550 22907584 22592714 22208038 21762214 21279926 20797822 
1647.472 20354450 19978658 19684344 19470550 19324234 19224166 19140084 
1650.847 19034102 18856962 18555904 18098956 17506550 16865656 16284801 
1654.222 15833465 15515986 15297713 15134508 14991806 14849322 14698487 
1657.597 14539516 14377589 14219113 14067709 13923817 13784214 13643733 
1660.973 13496632 13338510 13168116 12988742 12808657 12639153 12491880 
1664.348 12375066 12291140 12236437 12202051 12176288 12145553 12097784 
1667.723 12024472 11922495 11795245 11651526 11503805 11364365 11243059 
1671.098 11146162 11075219 11027432 10995520 10967961 10930311 10867862 
1674.474 10772577 10647464 10509215 10380954 10282924 10224029 10200419 
1677.849 10200419 10211376 10224301 10236989 10253951 10282653 10328934 
1681.224 10392118 10463119 10524524 10556266 10540480 10472488 10366870 
1684.599 10254459 10165923 10116336 10103584 10116031 10140654 10166364 
1687.975 10186139 10196417 10196179 10186376 10170502 10154052 10144758 
1691.350 10149743 10174030 10217414 10274918 10335347 10385568 10413635 
1694.725 10414178 10393951 10371893 10371383 10407186 10479751 10575889 
1698.100 10675852 10756918 10799071 10792447 10743978 10678976 10627871 
1701.476 10612354 10635850 10689402 10757700 10825364 10879380 10909448 
1704.851 10911045 10886548 10844387 10795538 10749820 10712698 10684104 
1708.226 10660910 10638465 10613509 10585396 10556063 10528768 10506160 
1711.601 10488848 10474422 10458503 10436238 10403827 10359745 10303757 
1714.977 10235190 10150592 10043324 9905674 9733267 9530546 9313194 9103294 
1718.834 8920077 8773349 8661790 8575706 8501871 8428250 8347043 8255348 
1722.691 8154725 8049198 7943224 7839705 7740122 7645183 7556232 7475255 
1726.549 7404539 7345056 7295554 7252966 7214828 7179995 7151329 7134386 
1730.406 7134790 7154764 7190640 7231437 7260210 7259872 7218972 7140920 
1734.264 7045001 6959876 6908231 6897188 6921091 6966812 7020923 7070797 
1738.121 7108384 7129367 7134049 7126672 7113469 7099963 7089657 7082955 
1741.979 7077668 7070225 7056989 7034898 7003245 6963378 6918634 6872480 
1745.836 6828014 6786278 6746365 6705445 6659953 6606896 6543620 6468784 
1749.693 6381453 6281431 6169872 6050814 5930749 5818036 5720864 5643988 
1753.551 5587934 5548130 5516316 5482726 5439073 5381301 5311730 5238581 
1757.408 5172252 5119981 5084309 5061580 5045021 5026953 5001277 4965984 
1761.266 4922820 4876207 4831610 4793718 4765175 4746818 4738845 4740051 
1765.123 4748258 4759715 4769999 4774421 4770334 4758877 4744875 4734859 
1768.980 4733988 4742832 4756432 4765611 4759614 4731074 4679525 4612712 
1772.838 4543766 4484271 4440418 4411429 4391882 4376051 4360889 4346297 
1776.695 4334618 4328259 4327790 4330836 4332911 4329464 4317817 4298743 
1780.553 4275654 4253168 4233862 4218137 4203683 4187022 4165311 4137244 
1784.410 4104128 4068641 4033758 4002490 3976942 3959320 3951629 3956243 
1788.268 3973832 4003426 4040313 4078006 4107641 4121522 4115468 4090682 
1792.125 4053390 4013091 3978447 3955408 3945310 3946881 3957414 3974635 
1795.982 3996471 4021217 4047370 4073156 4097305 4119047 4138616 4156679 
1799.840 4173640 4189464 4203215 4213520 4219776 4222887 4225263 4230014 
1803.697 4239784 4255912 4277862 4303662 4331137 4358848 4386828 4416484 
1807.555 4448652 4484037 4521132 4557628 4590744 4618840 4641780 4661071 
1811.412 4678990 4697143 4715833 4734926 4753015 4769765 4785744 4802227 
1815.270 4821257 4844443 4872454 4905494 4943061 4984854 5030808 5081057 
1819.127 5135269 5192807 5252566 5313306 5374726 5436926 5500141 5563668 
1822.984 5626063 5684572 5736610 5781334 5821058 5861190 5907975 5965851 
1826.842 6035393 6113078 6191415 6262640 6321202 6366086 6401897 6436365 
1830.699 6477528 6529459 6591287 6658001 6722976 6780456 6826499 6859419 
1834.557 6879751 6888773 6888167 6880121 6866892 6851239 6836226 6824513 
1838.414 6817815 6816671 6820609 6828418 6839458 6853124 6869315 6886248 
1842.271 6900892 6908735 6904999 6887897 6860294 6829865 6806304 6797048 
1846.129 6805261 6828418 6860328 6893688 6923582 6948362 6970213 6993379 
1849.986 7021967 7057495 7098616 7142167 7184677 7224463 7262198 7299766 
1853.844 7338923 7380543 7422975 7464098 7501684 7534621 7563818 7591265 
1857.701 7618678 7646701 7675400 7703999 7732635 7762587 7795511 7832856 
1861.559 7874793 7918691 7961211 7998638 8029182 8053755 8074953 8095882 
1865.416 8117791 8139364 8155907 8160837 8148986 8117419 8067898 8006029 
1869.273 7938871 7873579 7814436 7763363 7719615 7681909 7647712 7614025 
1873.131 7577035 7532160 7475356 7404438 7320355 7226922 7130007 7035302 
1876.988 6946341 6863896 6785403 6707766 6628764 6548531 6469692 6395575 
1880.846 6328262 6267817 6211581 6155555 6096747 6034418 5970453 5907942 
1884.703 5850275 5799164 5754170 5714048 5677154 5643115 5612436 5586256 
1888.561 5564541 5546485 5529806 5513396 5497323 5483934 5476317 5476384 
1892.418 5483632 5494806 5504403 5507692 5502625 5490645 5476115 5463902 
1896.275 5457292 5456017 5457191 5457191 5454205 5449642 5446488 5448803 
1900.133 5458802 5474706 5492893 5507725 5515376 5515577 5511081 5505242 
1903.990 5501819 5501786 5504369 5507524 5510544 5513967 5519571 5529202 
1907.848 5541988 5555010 5563568 5563702 5554338 5538632 5521886 5509806 
1911.705 5506014 5509739 5517255 5524538 5528833 5530981 5533967 5540746 
1915.563 5552090 5565279 5574207 5572159 5556587 5529336 5498296 5472827 
1919.420 5460412 5463768 5480712 5505074 5530880 5554171 5574005 5591525 
1923.277 5609381 5628614 5649459 5671145 5693771 5718144 5746548 5780058 
1927.135 5818439 5859040 5897563 5930278 5956042 5976500 5995816 6018829 
1930.992 6047723 6081760 6117345 6149472 6174375 6190574 6198843 6200523 
1934.850 6197263 6188424 6174140 6155152 6134719 6118723 6113783 6124436 
1938.707 6151018 6188289 6227984 6261261 6282238 6289970 6288491 6284289 
1942.564 6283986 6291651 6307283 6329674 6356369 6385353 6415751 6446016 
1946.422 6473594 6495455 6509177 6514861 6516140 6519537 6530468 6551895 
1950.279 6580824 6609789 6629033 6631556 6615340 6585534 6552702 6526903 
1954.137 6515500 6520815 6538743 6563433 6589873 6615610 6640943 6668095 
1957.994 6697167 6726981 6754912 6778336 6796813 6814012 6832356 6855346 
1961.852 6882713 6912203 6940214 6966307 6991628 7021294 7059751 7108619 
1965.709 7163489 7217725 7261793 7290130 7304012 7309403 7314896 7327600 
1969.566 7347920 7372050 7393922 7409426 7419402 7429885 7447480 7476435 
1973.424 7515439 7557278 7593895 7621882 7645183 7675299 7726327 7806710 
1977.281 7914169 8034043 8142706 8218979 8248526 8229109 8168197 8080624 
1981.139 7980379 7879247 7784581 7700728 7629840 7574271 7535464 7513281 
1984.996 7505156 7506370 7512741 7521777 7534284 7554614 7586679 7632436 
1988.854 7689126 7749061 7804079 7847464 7876278 7893114 7903473 7912853 
1992.711 7924630 7939714 7956014 7972516 7989526 8008054 8029419 8053045 
1996.568 8075358 8091055 8096523 8090076 8075662 8060135 8049232 8046262 
2000.426 8048590 8049063 8039274 8014028 7973461 7924428 7878471 7845035 
2004.283 7832248 7842943 7875805 7928106 7998570 8085619 8187880 8302122 
2008.141 8420717 8533600 8632924 8711955 8770002 8810339 8837357 8854603 
2011.998 8864512 8866507 8862414 8857038 8857748 8872898 8908983 8965231 
2015.855 9033767 9103158 9160378 9197875 9217403 9226135 9234902 9253483 
2019.713 9286249 9331780 9387168 9447710 9512461 9582877 9661504 9748312 
2023.570 9841373 9935065 10024063 10104840 10177591 10243740 10305725 
2026.946 10363104 10413261 10453004 10481482 10501442 10520485 10548016 
2030.321 10590828 10651538 10726283 10808413 10891101 10971019 11049489 
2033.696 11130218 11215484 11303555 11386372 11455358 11502546 11525241 
2037.071 11527145 11516904 11503635 11493462 11488733 11486963 11485535 
2040.447 11482711 11478595 11475736 11475907 11478527 11479922 11476621 
2043.822 11465462 11447976 11430899 11421748 11428926 11457467 11505778 
2047.197 11568114 11635598 11698395 11746733 11773116 11770767 11735804 
2050.572 11668067 11572197 11459032 11344639 11244760 11174617 11141811 
2053.948 11144836 11173291 11212832 11249724 11275500 11288830 11293795 
2057.323 11296039 11300324 11306446 11310935 11309982 11300631 11283219 
2060.698 11261592 11239047 11218307 11200048 11182029 11161936 11139465 
2064.073 11115193 11091263 11069679 11050136 11029709 11005919 10976184 
2067.448 10941150 10904487 10871192 10844761 10826280 10812999 10800227 
2070.824 10784194 10764255 10742620 10725060 10716264 10719219 10732702 
2074.199 10752945 10775396 10797068 10817381 10837627 10859845 10884476 
2077.574 10909448 10931330 10946348 10953077 10952567 10947334 10940640 
2080.949 10934014 10927422 10919063 10907274 10892155 10876118 10862256 
2084.325 10854172 10853050 10857568 10865280 10872721 10878122 10882029 
2087.700 10886209 10892392 10900954 10909788 10914817 10912166 10899629 
2091.075 10876968 10847411 10815886 10786741 10764493 10752028 10750873 
2094.450 10761640 10784091 10815512 10851488 10885699 10910910 10921136 
2097.826 10913934 10890320 10855700 10817313 10781171 10751043 10728321 
2101.201 10710661 10695956 10682678 10670520 10660198 10652998 10648176 
2104.576 10643966 10638804 10631470 10622337 10614289 10609129 10608076 
2107.951 10610113 10611437 10607023 10594223 10571510 10540955 10506907 
2111.327 10473506 10442924 10415874 10389913 10362289 10331682 10297344 
2114.702 10260566 10223317 10187597 10154424 10125256 10101685 10085237 
2118.077 10078014 10080693 10092258 10109214 10126748 10140484 10148251 
2121.452 10151032 10152932 10158698 10172164 10193873 10220773 10247539 
2124.828 10268675 10280143 10280957 10272848 10258599 10241467 10224064 
2128.203 10207950 10194789 10186580 10184918 10191261 10205643 10226607 
2131.578 10252458 10281737 10314580 10353331 10400501 10457077 10520553 
2134.953 10584614 10640740 10682575 10708453 10721834 10731446 10747511 
2138.329 10775294 10815682 10863004 10908497 10944174 10967485 10979412 
2141.704 10986242 10994739 11008570 11028009 11050645 11071956 11089733 
2145.079 11103976 11116349 11128451 11141267 11153505 11163704 11171591 
2148.454 11178221 11186074 11197396 11210622 11221162 11223508 11211846 
2151.830 11185871 11151363 11116825 11093099 11086504 11097177 11119646 
2155.205 11149731 11185020 11232825 11308759 11430695 11611299 11850642 
2158.580 12131378 12424536 12698035 12924700 13090320 13193562 13241314 
2161.955 13244013 13213373 13159953 13092130 13019947 12951531 12893604 
2165.331 12850122 12820021 12798590 12779719 12758870 12734439 12708987 
2168.706 12687050 12672345 12666580 12667637 12671834 12674972 12674632 
2172.081 12670810 12664841 12658699 12653821 12650410 12649114 12651502 
2175.456 12659757 12676337 12702299 12734201 12767025 12793437 12806029 
2178.832 12803197 12788011 12767981 12752831 12751534 12768117 12802173 
2182.207 12849405 12902547 12956105 13005232 13045589 13075056 13090901 
2185.582 13091516 13077515 13052486 13020288 12987820 12959929 12938149 
2188.957 12921628 12907189 12890566 12870600 12849098 12829269 12815892 
2192.333 12812513 12819543 12835037 12856914 12882136 12909885 12940505 
2195.708 12973618 13007998 13042242 13073110 13098857 13120542 13140657 
2199.083 13162788 13190692 13224577 13262290 13300962 13336426 13367007 
2202.458 13394583 13421545 13451107 13486002 13525480 13568279 13612961 
2205.833 13659017 13706616 13757435 13811064 13865282 13916017 13958717 
2209.209 13989102 14007648 14016512 14020516 14024178 14029996 14037832 
2212.584 14046285 14053780 14060693 14069831 14084651 14107481 14137670 
2215.959 14170670 14200419 14220619 14228768 14226199 14218496 14212779 
2219.334 14215689 14230513 14257048 14292351 14331766 14371527 14408655 
2222.710 14440373 14465859 14483569 14493264 14495697 14493505 14489941 
2226.085 14488708 14492408 14500459 14510908 14520227 14525537 14525880 
2229.460 14523653 14521872 14524544 14534377 14551508 14574328 14601535 
2232.835 14630903 14662877 14698350 14737767 14781474 14828853 14877334 
2236.211 14925410 14972393 15018319 15063974 15109978 15155197 15198156 
2239.586 15237550 15272899 15305984 15341029 15381775 15431314 15490130 
2242.961 15554860 15619944 15680468 15731586 15772026 15803741 15830029 
2246.336 15855286 15883435 15916223 15954513 15997965 16044857 16092408 
2249.712 16138660 16180202 16215421 16244106 16268598 16292918 16322127 
2253.087 16360557 16409932 16469086 16533790 16598711 16659165 16711812 
2256.462 16756095 16792738 16823012 16847434 16866138 16878298 16883980 
2259.837 16884462 16882464 16881018 16883672 16892662 16908612 16931212 
2263.213 16959876 16993606 17031648 17073140 17116324 17158718 17197946 
2266.588 17232214 17260966 17286204 17310618 17336824 17366824 17400242 
2269.963 17434526 17467120 17495580 17519176 17539082 17557920 17577758 
2273.338 17600564 17626720 17655912 17687800 17722692 17761074 17804188 
2276.714 17852312 17904552 17958902 18013364 18065622 18115226 18162972 
2280.089 18210514 18259476 18311800 18366548 18423066 18479592 18534152 
2283.464 18585056 18631366 18671866 18705490 18731918 18750876 18763020 
2286.839 18770458 18774678 18777898 18781738 18786340 18791286 18796510 
2290.215 18801390 18806338 18812428 18820766 18831736 18846026 18862670 
2293.590 18881048 18900600 18921088 18942546 18965632 18989966 19014786 
2296.965 19039642 19063460 19086310 19108884 19132292 19157776 19186034 
2300.340 19216372 19247164 19276258 19301024 19319904 19331648 19336358 
2303.716 19333932 19325274 19311172 19292710 19271374 19249066 19227420 
2307.091 19208096 19191612 19177828 19165708 19154072 19141710 19128172 
2310.466 19113768 19099086 19085202 19072910 19062698 19054804 19048920 
2313.841 19044212 19039364 19032822 19022402 19006408 18983874 18955008 
2317.217 18921538 18885960 18851322 18820004 18793500 18772672 18757070 
2320.592 18746760 18742124 18742816 18748386 18756792 18764232 18765926 
2323.967 18757276 18735102 18699090 18652150 18599096 18545876 18497984 
2327.342 18458882 18429980 18411728 18403672 18405712 18418918 18443982 
2330.718 18481356 18530488 18589032 18653466 18721022 18788728 18855680 
2334.093 18922126 18988616 19055670 19124016 19193100 19262574 19332824 
2337.468 19403846 19475852 19549636 19624472 19700084 19776958 19855580 
2340.843 19937684 20025600 20120752 20224254 20336116 20457418 20591228 
2344.219 20743950 20925444 21145938 21412492 21725186 22074846 22443912 
2347.594 22807668 23141426 23422740 23633732 23765198 23815422 23791446 
2350.969 23706020 23577756 23427286 23271870 23126084 22998340 22891938 
2354.344 22806690 22740518 22691082 22656068 22633622 22621964 22619764 
2357.719 22626256 22641476 22666716 22703684 22754136 22818422 22896130 
2361.095 22985450 23084396 23191682 23307738 23434594 23575482 23733560 
2364.470 23910812 24107190 24320722 24547892 24785072 25029298 25277804 
2367.845 25530320 25786390 26046238 26310570 26580346 26856742 27141462 
2371.220 27436848 27744164 28064246 28396870 28740338 29092718 29452230 
2374.596 29817540 30188274 30564514 30945600 31330078 31715828 32099356 
2377.971 32476790 32845118 33201884 33545454 33875460 34191776 34494692 
2381.346 34785004 35063656 35331484 35590200 35840512 36083184 36318648 
2384.721 36546416 36766408 36979364 37185816 37387280 37585516 37781308 
2388.097 37974984 38165960 38353184 38535888 38714252 38888628 39060140 
2391.472 39230052 39399268 39567748 39735644 39902768 40068944 40234632 
2394.847 40399948 40564784 40728512 40889904 41047640 41200736 41348928 
2398.222 41492792 41633976 41773852 41914136 42056108 42200796 42348892 
2401.598 42501348 42658756 42821528 42989768 43163312 43341828 43525216 
2404.973 43713628 43907220 44106176 44310108 44517396 44725964 44933496 
2408.348 45138508 45340680 45541292 45742876 45947904 46158084 46374112 
2411.723 46595008 46819264 47045404 47271816 47498044 47723800 47948788 
2415.099 48172708 48395408 48616480 48836408 49056296 49276924 49499676 
2418.474 49724952 49952168 50180692 50409820 50639184 50869448 51101476 
2421.849 51335752 51572356 51811180 52050956 52291316 52532816 52776544 
2425.224 53024232 53277152 53535172 53796568 54059172 54319680 54575840 
2428.600 54826992 55073632 55317476 55560668 55804748 56050848 56299584 
2431.975 56551096 56804948 57060836 57317560 57573596 57827784 58078708 
2435.350 58325688 58569280 58810200 59048712 59284964 59517996 59746212 
2438.725 59969144 60186564 60400508 60613568 60828832 61047976 61271388 
2442.101 61497172 61722188 61943848 62160192 62370140 62573916 62771620 
2445.476 62963284 63148408 63326360 63497604 63663424 63826388 63988804 
2448.851 64152396 64317620 64483256 64647144 64807676 64963684 65115168 
2452.226 65262780 65407088 65547860 65684132 65814584 65938404 66055624 
2455.602 66167244 66274920 66379948 66483080 66584224 66683188 66780164 
2458.977 66875740 66970980 67066824 67163240 67258704 67350856 67436720 
2462.352 67514672 67584272 67646176 67702480 67754952 67803952 67849032 
2465.727 67889320 67923336 67950456 67970760 67984168 67991064 67991296 
2469.103 67984320 67970104 67949720 67924464 67896256 67866968 67836984 
2472.478 67805456 67770872 67731328 67685824 67635032 67579704 67521712 
2475.853 67462184 67400272 67334872 67264544 67188264 67105928 67018808 
2479.228 66927648 66832876 66733496 66627176 66511348 66384308 66245312 
2482.604 66095056 65935476 65768204 65594608 65415220 65230244 65039916 
2485.979 64844912 64646304 64444780 64241088 64035072 63825928 63613316 
2489.354 63397444 63178560 62958224 62736624 62513724 62288252 62058540 
2492.729 61823072 61581660 61335076 61085272 60834016 60582368 60330296 
2496.104 60076548 59819596 59558240 59292444 59023128 58751400 58478436 
2499.480 58205080 57931440 57658084 57385428 57114384 56845964 56580572 
2502.855 56317724 56055336 55791184 55523128 55249892 54972240 54692660 
2506.230 54413864 54138804 53869480 53606804 53350844 53101584 52858716 
2509.605 52622460 52393432 52171212 51955832 51746228 51541464 51340932 
2512.981 51144636 50952788 50766236 50585832 50412424 50246456 50089056 
2516.356 49940568 49801900 49673684 49555416 49446428 49345408 49250280 
2519.731 49160104 49074584 48993828 48918652 48849864 48787024 48729192 
2523.106 48675372 48624484 48576424 48532068 48492464 48458564 48430600 
2526.482 48407780 48388148 48370368 48353072 48335592 48318188 48300928 
2529.857 48283044 48263936 48241796 48215324 48184480 48149716 48112404 
2533.232 48074352 48036788 48000112 47964108 47928288 47892104 47856144 
2536.607 47820704 47786492 47753796 47722140 47690668 47658680 47625328 
2539.983 47590944 47555564 47519668 47482964 47445008 47404464 47360600 
2543.358 47312824 47261580 47207496 47151428 47093892 47035252 46975584 
2546.733 46915448 46855576 46797300 46741692 46689516 46640084 46592420 
2550.108 46545136 46496748 46447484 46398408 46351032 46307312 46268164 
2553.484 46233296 46201932 46172788 46145036 46118728 46094520 46073148 
2556.859 46055172 46040440 46028316 46017968 46008940 46001352 45995460 
2560.234 45991776 45990336 45990816 45992844 45995936 46000396 46007244 
2563.609 46017636 46032220 46051712 46074884 46100640 46128048 46156720 
2566.985 46187192 46221468 46261124 46306980 46359732 46417580 46478756 
2570.360 46541560 46604632 46667200 46729996 46793760 46859784 46929436 
2573.735 47003792 47084028 47171224 47265976 47368396 47478420 47594676 
2577.110 47715852 47840868 47968400 48097228 48226428 48354556 48480088 
2580.486 48602324 48720964 48836816 48952104 49069168 49190640 49317232 
2583.861 49448504 49582196 49715664 49846088 49971940 50092780 50209144 
2587.236 50321784 50431440 50537740 50640448 50739460 50835328 50928980 
2590.611 51022092 51115936 51210956 51307000 51403664 51500164 51596572 
2593.987 51693112 51790536 51889024 51988168 52087004 52184216 52279320 
2597.362 52372688 52465508 52559592 52656348 52756344 52858756 52962468 
2600.737 53065904 53168764 53271760 53376320 53484164 53596944 53715116 
2604.112 53838684 53966604 54098048 54232236 54368496 54506372 54645272 
2607.488 54784668 54924408 55064908 55207372 55353308 55504264 55661484 
2610.863 55824192 55990992 56159812 56328476 56495544 56661240 56826020 
2614.238 56991316 57158564 57327992 57499608 57673108 57847472 58022052 
2617.613 58196404 58370256 58543080 58714528 58884568 59053080 59220516 
2620.989 59387176 59553260 59719028 59883680 60046832 60208372 60368484 
2624.364 60528240 60688668 60850328 61013008 61175444 61335304 61490564 
2627.739 61640116 61783764 61922680 62059040 62194604 62330784 62467996 
2631.114 62606096 62744664 62883316 63022048 63160592 63298956 63436164 
2634.490 63571624 63704244 63833796 63960320 64084456 64206788 64327344 
2637.865 64445896 64561404 64672836 64779788 64882272 64981116 65077288 
2641.240 65171452 65263704 65353624 65440640 65524204 65604700 65682552 
2644.615 65758608 65833168 65906168 65977088 66045328 66110992 66174576 
2647.990 66237212 66300236 66364660 66430448 66496984 66563404 66628680 
2651.366 66692612 66755632 66818504 66881844 66946440 67012116 67078544 
2654.741 67145760 67213752 67282912 67354264 67428280 67505384 67585816 
2658.116 67669408 67756232 67846704 67941040 68039272 68141248 68246264 
2661.491 68353368 68461736 68571072 68681472 68793576 68907720 69024072 
2664.867 69142168 69261072 69379816 69498048 69616120 69735264 69856896 
2668.242 69982040 70111408 70244720 70381536 70521088 70663176 70807536 
2671.617 70954360 71104168 71256792 71412208 71570568 71732152 71897320 
2674.992 72066616 72240432 72417776 72597608 72778072 72957272 73133920 
2678.368 73307704 73478648 73647608 73815232 73981704 74146904 74310512 
2681.743 74472488 74633304 74793760 74954576 75116288 75278328 75439520 
2685.118 75598648 75753928 75904848 76051192 76193168 76331520 76466592 
2688.493 76599264 76729752 76859296 76988872 77119920 77253464 77390088 
2691.869 77529688 77671512 77814816 77959192 78104496 78251192 78399800 
2695.244 78550648 78703408 78857504 79011808 79165768 79318952 79471264 
2698.619 79622808 79773400 79922896 80070640 80216360 80360104 80502312 
2701.994 80643784 80785200 80926856 81068680 81210152 81351064 81491504 
2705.370 81632200 81773896 81917664 82063816 82211816 82360824 82509448 
2708.745 82656520 82801512 82944152 83083984 83220296 83351712 83476256 
2712.120 83592240 83697976 83792880 83877032 83951000 84015848 84072824 
2715.495 84122760 84167248 84207464 84245240 84282328 84320232 84360064 
2718.871 84402432 84447344 84494160 84542344 84591376 84640248 84687640 
2722.246 84732584 84773464 84809112 84838752 84862360 84880208 84892448 
2725.621 84899304 84900312 84894712 84881816 84861432 84834288 84801616 
2728.996 84764648 84724648 84681928 84635984 84586096 84531392 84471856 
2732.372 84407512 84339144 84267008 84190936 84110056 84023080 83929208 
2735.747 83827560 83718704 83603408 83482200 83355880 83224384 83087600 
2739.122 82945072 82796904 82643136 82484288 82320736 82152560 81979456 
2742.497 81800888 81616600 81426920 81232680 81034696 80834176 80631536 
2745.873 80427136 80221192 80014112 79806640 79600152 79396032 79195352 
2749.248 78998648 78805264 78614616 78425720 78237776 78050912 77865440 
2752.623 77681456 77498952 77317552 77135952 76952992 76767232 76577920 
2755.998 76384216 76186104 75982832 75774440 75560672 75341336 75116320 
2759.374 74885712 74649480 74407000 74157944 73901600 73638040 73367992 
2762.749 73092872 72814464 72535152 72256632 71980144 71706592 71436736 
2766.124 71171576 70912272 70660960 70418984 70187584 69967080 69756856 
2769.499 69555992 69363368 69178656 69001776 68833328 68673824 68523304 
2772.875 68381176 68246536 68117800 67993856 67873200 67755032 67638280 
2776.250 67521792 67404520 67285664 67164512 67041112 66915588 66788824 
2779.625 66661172 66533008 66404424 66275032 66144944 66014120 65882832 
2783.000 65751320 65619536 65487140 65353744 65218768 65081796 64942636 
2786.375 64801560 64658492 64513236 64365036 64212888 64055344 63891484 
2789.751 63720436 63541784 63355608 63161664 62960028 62750944 62534496 
2793.126 62311772 62084688 61854856 61624160 61394224 61165980 60939648 
2796.501 60716064 60495220 60278180 60066692 59861772 59664360 59474940 
2799.876 59292860 59117196 58947104 58781976 58621912 58466988 58317464 
2803.252 58172876 58032432 57894752 57758368 57622520 57486636 57350604 
2806.627 57215108 57080488 56947192 56815408 56684912 56555816 56427848 
2810.002 56301240 56176028 56052320 55930420 55811076 55695384 55584808 
2813.377 55481148 55386020 55300768 55226376 55163016 55110836 55069572 
2816.753 55039144 55019772 55010748 55011988 55022144 55040424 55065812 
2820.128 55097144 55133932 55175992 55222532 55273108 55325832 55378792 
2823.503 55429832 55477040 55519212 55555736 55586916 55612752 55633612 
2826.878 55649316 55659752 55664836 55665364 55661748 55655608 55647852 
2830.254 55639528 55630712 55621108 55610340 55598100 55584656 55570796 
2833.629 55557768 55547112 55540296 55539052 55544360 55557356 55578668 
2837.004 55608572 55646908 55693876 55749444 55814468 55890888 55981376 
2840.379 56089680 56220036 56376724 56563700 56784856 57043192 57342136 
2843.755 57684988 58074240 58511156 58994548 59519096 60074036 60642904 
2847.130 61204740 61732884 62200068 62579812 62848196 62989028 62994196 
2850.505 62865316 62612564 62253832 61812760 61313476 60780732 60236956 
2853.880 59699676 59182728 58695716 58244408 57831380 57456832 57119184 
2857.256 56815636 56543020 56298148 56077920 55879808 55701524 55540936 
2860.631 55396292 55266108 55149248 55045648 54955504 54879400 54818124 
2864.006 54771848 54740428 54723104 54718968 54727160 54746892 54777900 
2867.381 54819816 54871844 54933132 55002288 55077996 55159064 55244436 
2870.757 55333324 55424224 55515108 55603220 55685400 55758596 55821100 
2874.132 55872952 55915872 55953072 55988124 56024388 56064080 56108536 
2877.507 56158040 56212684 56272728 56338476 56410268 56488636 56573176 
2880.882 56663320 56758272 56857180 56959204 57063708 57169864 57276768 
2884.258 57383160 57487728 57589000 57686124 57778276 57865300 57946320 
2887.633 58020652 58087080 58144164 58190532 58225956 58250280 58264336 
2891.008 58269452 58266460 58256116 58238992 58215500 58186172 58152232 
2894.383 58114580 58074428 58032844 57989904 57945372 57898308 57847244 
2897.759 57789552 57722528 57642268 57544772 57426652 57284968 57119108 
2901.134 56930572 56722628 56500676 56269784 56035132 55801360 55572188 
2904.509 55351312 55142584 54950500 54779704 54634452 54518468 54434216 
2907.884 54383516 54367708 54388808 54450068 54555324 54709456 54916476 
2911.260 55178812 55496056 55864996 56278720 56726592 57195756 57669740 
2914.635 58129428 58556008 58928588 59228564 59441088 59555236 59566184 
2918.010 59474904 59287848 59015080 58669544 58265628 57816656 57334988 
2921.385 56831196 56313272 55787152 55257300 54726708 54198264 53674696 
2924.760 53159104 52654664 52164784 51692700 51241040 50811600 50405540 
2928.136 50023060 49663204 49324360 49004512 48701652 48413892 48140688 
2931.511 47881708 47637308 47408012 47193496 46992900 46804312 46625476 
2934.886 46453900 46288144 46127312 45971552 45821592 45678308 45542540 
2938.261 45415316 45297392 45190276 45095644 45014968 44949444 44899136 
2941.637 44862872 44838220 44822424 44812320 44805376 44800236 44795828 
2945.012 44791788 44787708 44783228 44777976 44772504 44767728 44765632 
2948.387 44768536 44778784 44797996 44826392 44863240 44906008 44951792 
2951.762 44996516 45036432 45068116 45088884 45097336 45093844 45080060 
2955.138 45059328 45035328 45011288 44989752 44971196 44955208 44940732 
2958.513 44926772 44913172 44900940 44891532 44886388 44886056 44890280 
2961.888 44897812 44907220 44917584 44928608 44941284 44956976 44977408 
2965.263 45004344 45039296 45083808 45139464 45208220 45291472 45390044 
2968.639 45503540 45630052 45766728 45910192 46057348 46205768 46353648 
2972.014 46499960 46643404 46782872 46916740 47043928 47164356 47278684 
2975.389 47389572 47500116 47613496 47732564 47858732 47992304 48132764 
2978.764 48278900 48429964 48585648 48745800 48911088 49082520 49261080 
2982.140 49447912 49643740 49848804 50062324 50281904 50504164 50723928 
2985.515 50935312 51132748 51310580 51464540 51592056 51691548 51762688 
2988.890 51806028 51821932 51810844 51772580 51706400 51611648 51487664 
2992.265 51334892 51155560 50953496 50734392 50504388 50269520 50034700 
2995.641 49802572 49574208 49349272 49127712 48909828 48697908 48495240 
2999.016 48306264 48135244 47984904 47856776 47750540 47664524 47596452 
3002.391 47543880 47504996 47478048 47461824 47455208 47456904 47465736 
3005.766 47480560 47500372 47524588 47552828 47585136 47621556 47662008 
3009.142 47706048 47753092 47801728 47850672 47898468 47943720 47985312 
3012.517 48022392 48054332 48080572 48100524 48113440 48119068 48117180 
3015.892 48108444 48093972 48074796 48052148 48026092 47996116 47960888 
3019.267 47918780 47869132 47811792 47748288 47680792 47611464 47541552 
3022.643 47471136 47398992 47322648 47239968 47149396 47050392 46943800 
3026.018 46830812 46712988 46591464 46466804 46339124 46208236 46074220 
3029.393 45937224 45797548 45655856 45512440 45367932 45222668 45076532 
3032.768 44929708 44781540 44631584 44478964 44323244 44164424 44002688 
3036.144 43839148 43675192 43511956 43350176 43189956 43030780 42872032 
3039.519 42712608 42552144 42389840 42225188 42057244 41884616 41705820 
3042.894 41519956 41326260 41125660 40919760 40711012 40501744 40293960 
3046.269 40089000 39887512 39690120 39497492 39310388 39130116 38957488 
3049.645 38792612 38634928 38483100 38335412 38190452 38047060 37905124 
3053.020 37764648 37625984 37489276 37354276 37220508 37087828 36955984 
3056.395 36825296 36696344 36569376 36444680 36321636 36199604 36077856 
3059.770 35956068 35834396 35713504 35594628 35478908 35367356 35260144 
3063.146 35157448 35058804 34963844 34872096 34783244 34697172 34613448 
3066.521 34531532 34450604 34369800 34288328 34205796 34122024 34037264 
3069.896 33952160 33866936 33781440 33695244 33607128 33516314 33422120 
3073.271 33324618 33224742 33124100 33024200 32925964 32829858 32735206 
3076.646 32640856 32545924 32449902 32353260 32257390 32163646 32073702 
3080.022 31988130 31906496 31827804 31750656 31673916 31597008 31519722 
3083.397 31442170 31364660 31286992 31209014 31130410 31051252 30972036 
3086.772 30893510 30816494 30741590 30668688 30597468 30527438 30458444 
3090.147 30390496 30324440 30260988 30200564 30143024 30087980 30034112 
3093.523 29980642 29927570 29875498 29825668 29779250 29737308 29699628 
3096.898 29665286 29632754 29600368 29567026 29532516 29497124 29461876 
3100.273 29427800 29395536 29365436 29337286 29310490 29284542 29258846 
3103.648 29232936 29206816 29180594 29154442 29128718 29103738 29079716 
3107.024 29056226 29033094 29009644 28985096 28959100 28931296 28902008 
3110.399 28871516 28840284 28808950 28778076 28747664 28718352 28690460 
3113.774 28664160 28639528 28616238 28593518 28570516 28546098 28519456 
3117.149 28490336 28458778 28425312 28390328 28353964 28316016 28276406 
3120.525 28234822 28191544 28147422 28103904 28062018 28023034 27987198 
3123.900 27953804 27921754 27890024 27857590 27824490 27791178 27758964 
3127.275 27728976 27702030 27678156 27656862 27636876 27616644 27595210 
3130.650 27571838 27546242 27519412 27492160 27465864 27441616 27420226 
3134.026 27402016 27386910 27374170 27363090 27352680 27341918 27330026 
3137.401 27316334 27300314 27281756 27260518 27236740 27210986 27184036 
3140.776 27156734 27130456 27105770 27083340 27063838 27047334 27033792 
3144.151 27023250 27015740 27010908 27008404 27007240 27006182 27004034 
3147.527 26999484 26991940 26981644 26969550 26957174 26945892 26936974 
3150.902 26930944 26927244 26924846 26922238 26918396 26912508 26904752 
3154.277 26895482 26885542 26875600 26866084 26856956 26848178 26839860 
3157.652 26832494 26826500 26822624 26821392 26822730 26826148 26830484 
3161.028 26834572 26837850 26840002 26841658 26844020 26848142 26854768 
3164.403 26864252 26875988 26889206 26903026 26916810 26929994 26942756 
3167.778 26955342 26967788 26980304 26993384 27007382 27022828 27040810 
3171.153 27061792 27086232 27113774 27143612 27174370 27204848 27234022 
3174.529 27261504 27287156 27311112 27333730 27354832 27374276 27391850 
3177.904 27407486 27421814 27435436 27449626 27465016 27482522 27502220 
3181.279 27523896 27546984 27571098 27595564 27620138 27644080 27666820 
3184.654 27687904 27706728 27723044 27736854 27748472 27758506 27767334 
3188.030 27775246 27782382 27788776 27794464 27799832 27805344 27811736 
3191.405 27819332 27828516 27838938 27850242 27861690 27872888 27883454 
3194.780 27893628 27903202 27912744 27922532 27932636 27943626 27955218 
3198.155 27967408 27979740 27991756 28002818 28012502 28020772 28027876 
3201.531 28034696 28041942 28050176 28059756 28070396 28081670 28093266 
3204.906 28105142 28117762 28132044 28148730 28168350 28190908 28215870 
3208.281 28242354 28269900 28298156 28326908 28356230 28385834 28414946 
3211.656 28442362 28467232 28488780 28507460 28524620 28542208 28562766 
3215.031 28587820 28618184 28653470 28692370 28733362 28774784 28815428 
3218.407 28854874 28893012 28929948 28966324 29002738 29039718 29077910 
3221.782 29117946 29159862 29203238 29247468 29291240 29333354 29372844 
3225.157 29409362 29442976 29474428 29504536 29534504 29565252 29597672 
3228.532 29632648 29670534 29711478 29754942 29799902 29844796 29887602 
3231.908 29926612 29960336 29988558 30011744 30031486 30049238 30066922 
3235.283 30085636 30105878 30127256 30148848 30169662 30188380 30204578 
3238.658 30218112 30229974 30241448 30254378 30270436 30290476 30314634 
3242.033 30341956 30370880 30399628 30426388 30450058 30470494 30488302 
3245.409 30504154 30519048 30533514 30547840 30562060 30576208 30590394 
3248.784 30604864 30620046 30636152 30653184 30671210 30689668 30708584 
3252.159 30727612 30746318 30764706 30782774 30800202 30817062 30832964 
3255.534 30848260 30863200 30878176 30893796 30910304 30927916 30946666 
3258.910 30966626 30987658 31009578 31032424 31055700 31078834 31101150 
3262.285 31121690 31140022 31155792 31169140 31180462 31190714 31200256 
3265.660 31209512 31218556 31227386 31236394 31245722 31256084 31268190 
3269.035 31282790 31299810 31319112 31339872 31361208 31381864 31401098 
3272.411 31418018 31432584 31444662 31454492 31462900 31470522 31478290 
3275.786 31486980 31497244 31509284 31522896 31537324 31551648 31564690 
3279.161 31575878 31584822 31591986 31598364 31604812 31612828 31623092 
3282.536 31636100 31651818 31669494 31688206 31707026 31725098 31741816 
3285.912 31756964 31770762 31783558 31795968 31808800 31822742 31838250 
3289.287 31855580 31874370 31894018 31913522 31931852 31948044 31961668 
3292.662 31973008 31982888 31992484 32003074 32015666 32030862 32048624 
3296.037 32068782 32091040 32115050 32140776 32168034 32196690 32226202 
3299.413 32255892 32284908 32312748 32338840 32363686 32387816 32412202 
3302.788 32437656 32465328 32495428 32528068 32563138 32599996 32637928 
3306.163 32676366 32714374 32751248 32786764 32821142 32855340 32890684 
3309.538 32928466 32969608 33014548 33062882 33113442 33164870 33216226 
3312.914 33266984 33317174 33367374 33418470 33471256 33526194 33583464 
3316.289 33643220 33705556 33770264 33837456 33907272 33979500 34054072 
3319.664 34130624 34209344 34290012 34372956 34457920 34544880 34633292 
3323.039 34722580 34812072 34900712 34988156 35073676 35156948 35237724 
3326.415 35315924 35391836 35466432 35541004 35617212 35696452 35779344 
3329.790 35865592 35954272 36043472 36131436 36216924 36299592 36379424 
3333.165 36456712 36531748 36604052 36673164 36738568 36800052 36858444 
3336.540 36914676 36970020 37024932 37079456 37132872 37184664 37234696 
3339.916 37283468 37332576 37383672 37437592 37494044 37551304 37606580 
3343.291 37657308 37701360 37737792 37767464 37791648 37811780 37829168 
3346.666 37844604 37858380 37871028 37882852 37894928 37907620 37921140 
3350.041 37934700 37946888 37956108 37960844 37960412 37954660 37944248 
3353.417 37929928 37912572 37892468 37870128 37845976 37820852 37795876 
3356.792 37771872 37749536 37729152 37710072 37691244 37671800 37650952 
3360.167 37628224 37603472 37576372 37546568 37513588 37477032 37436652 
3363.542 37392772 37346476 37298564 37250148 37201380 37152140 37101868 
3366.917 37049720 36995096 36938196 36879072 36817940 36754796 36688988 
3370.293 36619912 36546632 36468856 36386664 36300960 36212712 36122864 
3373.668 36032024 35940340 35847492 35753004 35656848 35559384 35461076 
3377.043 35362792 35264996 35167944 35071124 34973972 34875652 34776064 
3380.418 34674848 34572688 34469652 34366212 34262048 34156252 34047728 
3383.794 33935360 33818580 33697572 33573872 33449172 33325940 33206354 
3387.169 33091452 32981440 32875352 32771684 32668472 32564208 32457686 
3390.544 32348834 32237620 32124542 32010208 31894874 31778604 31661156 
3393.919 31542492 31422720 31302552 31182526 31063422 30946096 30831078 
3397.295 30718222 30607424 30497720 30388436 30278750 30168134 30056588 
3400.670 29944324 29831738 29719566 29608704 29499678 29393374 29290284 
3404.045 29190446 29093710 28999160 28905336 28810578 28713292 28611674 
3407.420 28504984 28393016 28276160 28155624 28032542 27908328 27784254 
3410.796 27661454 27540488 27421884 27305712 27191302 27077662 26963874 
3414.171 26848918 26732160 26614306 26496414 26380174 26266990 26157638 
3417.546 26051444 25947072 25842230 25734918 25623766 25508778 25391292 
3420.921 25273168 25156448 25042880 24933416 24828398 24727264 24629556 
3424.297 24534322 24440512 24347178 24253306 24157978 24060292 23959968 
3427.672 23856622 23750464 23641988 23531266 23418684 23304766 23189866 
3431.047 23074856 22960192 22846534 22733782 22621648 22509442 22396566 
3434.422 22282674 22168390 22054698 21942706 21833636 21727832 21624806 
3437.798 21523788 21423282 21322208 21220112 21116718 21012410 20907676 
3441.173 20802724 20698006 20593868 20490936 20389626 20289904 20191070 
3444.548 20091566 19989586 19883052 19771514 19655742 19537990 19422002 
3447.923 19311244 19207610 19111482 19020914 18932544 18843326 18750254 
3451.299 18652186 18549090 18442390 18333298 18223436 18113810 18005318 
3454.674 17898542 17794144 17692356 17593490 17497338 17402968 17309480 
3458.049 17215596 17120356 17023102 16923702 16821946 16718252 16612688 
3461.424 16505945 16398886 16293056 16189797 16090518 15996279 15906977 
3464.800 15821919 15740177 15660269 15581304 15502251 15422663 15341681 
3468.175 15258827 15173416 15085208 14994446 14901920 14808557 14715830 
3471.550 14624323 14534103 14444723 14355088 14264787 14173785 14082529 
3474.925 13992250 13904282 13819137 13737154 13657479 13579116 13500905 
3478.301 13421682 13340526 13257165 13171361 13083355 12993828 12904083 
3481.676 12815277 12729117 12646624 12568341 12493756 12421365 12349430 
3485.051 12276075 12199972 12120850 12039085 11955974 11872809 11791160 
3488.426 11711806 11635598 11562330 11491659 11423177 11355930 11289544 
3491.802 11223712 11158468 11093846 11029981 10967077 10904522 10841636 
3495.177 10777705 10712189 10645222 10577722 10510946 10446182 10384618 
3498.552 10326151 10269931 10214328 10157851 10098735 10036542 9970866 
3501.927 9902420 9831680 9759698 9687050 9614550 9543587 9475275 9411445 
3505.785 9353311 9301583 9256327 9216421 9180616 9146741 9113072 9078459 
3509.642 9042190 9004030 8964284 8923695 8882638 8841888 8801920 8762903 
3513.500 8725038 8687717 8650805 8613152 8574321 8533262 8489471 8442643 
3517.357 8392712 8340288 8286147 8231608 8177988 8126434 8077889 8032557 
3521.214 7990031 7949602 7910120 7870475 7829752 7787077 7741674 7692498 
3525.072 7638371 7578485 7512371 7440738 7365748 7289624 7215805 7146849 
3528.929 7083831 7027052 6975061 6926208 6878539 6830875 6782845 6734283 
3532.787 6685390 6635930 6585601 6533798 6479950 6423687 6364876 6303888 
3536.644 6240622 6175652 6109549 6043322 5978179 5915701 5857563 5804436 
3540.501 5756554 5713243 5672991 5634220 5595351 5555547 5513933 5469875 
3544.359 5422465 5371036 5314950 5254478 5191365 5128429 5068553 5014919 
3548.216 4968565 4929287 4894838 4862000 4827556 4788893 4744573 4694698 
3552.074 4640474 4584047 4527561 4473291 4423045 4377959 4338701 4304733 
3555.931 4274850 4247346 4220244 4191840 4161330 4128279 4093224 4056801 
3559.789 4019177 3981256 3943437 3907027 3873829 3845881 3825189 3812521 
3563.646 3806872 3804699 3800421 3788020 3761281 3716732 3653608 3575627 
3567.503 3489510 3402608 3322001 3252659 3196212 3152287 3119113 3094018 
3571.361 3074429 3058079 3043731 3030785 3018739 3007662 2997053 2986310 
3575.218 2974533 2960388 2943040 2922125 2897841 2870390 2840373 2808190 
3579.076 2774275 2739029 2703820 2669980 2639977 2615909 2599442 2591109 
3582.933 2590675 2597008 2608475 2623176 2638843 2652344 2659379 2655145 
3586.791 2635009 2596208 2540547 2473795 2404654 2342521 2294352 2262876 
3590.648 2246922 2241727 2242026 2242293 2239162 2231069 2218247 2201462 
3594.505 2181714 2159303 2134896 2109590 2085418 2064944 2050329 2042539 
3598.363 2040807 2042239 2043571 2042239 2037246 2029522 2021433 2015708 
3602.220 2014176 2017838 2026193 2038411 2053891 2071369 2089580 2106161 
3606.078 2118347 2122376 2116216 2100135 2076962 2053025 2034948 2027991 
3609.935 2033750 2049729 2072001 2095040 2115151 2130767 2143054 2153709 
3613.792 2165563 2180049 2197899 2218247 2240594 2263942 2286891 2307443 
3617.650 2322733 2329829 2326497 2312806 2291888 2269538 2252251 2245224 
3621.507 2251119 2269704 2299449 2338290 2385730 2442605 2510819 2592075 
3625.365 2686583 2791449 2901343 3008063 3101927 3175017 3223283 3249688 
3629.222 3264644 3282872 3317494 3375826 3459383 3564035 3683381 3809345 
3633.080 3934978 4055631 4170094 4280840 4392853 4512026 4642115 4784539 
3636.937 4938168 5100300 5267524 5437899 5610220 5783953 5958629 6132770 
3640.794 6304661 6472887 6637949 6802703 6971526 7149139 7338687 7539915 
3644.652 7748252 7956081 8154827 8335356 8490045 8613558 8701915 8753267 
3648.509 8767331 8747046 8700123 8638907 8579593 8538061 8524612 8542149 
3652.367 8585845 8644755 8704416 8750224 8769664 8753436 8698095 8607745 
3656.224 8493863 8372241 8258657 8164990 8095680 8048523 8015075 7984834 
3660.082 7946159 7890517 7813997 7718064 7608596 7493189 7378621 7269273 
3663.939 7166217 7069854 6980314 6900151 6832524 6780119 6743201 6718333 
3667.796 6700902 6689596 6693331 6734418 6850532 7086525 7477682 8047544 
3671.654 8805098 9754615 10903774 12262339 13828817 15552662 17301238 
3675.029 18853710 19919958 20258658 19772242 18524436 16692460 14490969 
3678.404 12137034 9811311 7667171 5824014 4342014 3227555 2434908 1892059 
3682.262 1519697 1253079 1052783 898330 782236 699426 642148 598581 556179 
3686.601 504228 437423 356038 264026 167093 69189 -26605 -117709 -201143 
3690.941 -272342 -328267 -367897 -392990 -407821 -417586 -425497 -432647 
3694.798 -438175 -440757 -440459 -439366 -441121 -449197 -465019 -487194 
3698.656 -512645 -538094 -562185 -586010 -613076 -646394 -686921 -731579 
3702.513 -774016 -807553 -826834 -830802 -821476 -803320 -780268 -755461 
3706.371 -729826 -703164 -675045 -646361 -618999 -596367 -581775 -577605 
3710.228 -584885 -603713 -632664 -669619 -711268 -753145 -790190 -817938 
3714.085 -833647 -836854 -829612 -816152 -801104 -788271 -779540 -774479 
3717.943 -771337 -767964 -763333 -757909 -753708 -752881 -756387 -763995 
3721.800 -774082 -784964 -795878 -807520 -821708 -840591 -865327 -895352 
3725.658 -928152 -960553 -988191 -1007397 -1015133 -1009579 -989877 -956618 
3729.515 -912281 -861392 -809571 -763796 -729363 -708754 -700220 -699591 
3733.373 -702701 -707663 -716925 -734953 -765847 -809471 -859705 -905734 
3737.230 -937442 -948419 -938401 -911818 -875975 -836656 -797697 -759496 
3741.087 -721258 -682687 -647188 -622275 -617973 -643152 -698731 -772726 
3744.945 -843336 -889003 -898857 -874520 -826834 -769287 -716131 -676897 
3748.802 -656915 -655956 -670446 -695092 -725856 -760786 -798690 -836590 
3752.660 -870386 -894426 -904246 -898956 -880769 -854943 -827099 -802824 
3756.517 -785592 -776828 -776464 -783575 -797400 -817475 -843171 -872205 
3760.375 -900609 -923093 -934864 -932384 -915554 -886887 -851240 -813705 
3764.232 -779540 -752319 -733101 -721192 -715040 -712526 -712823 -715767 
3768.089 -722251 -733034 -748382 -767203 -787147 -805767 -820550 -830571 
3771.947 -835895 -838607 -841253 -846279 -855274 -868171 -883779 -899419 
3775.804 -912513 -921804 -927160 -930797 -934831 -941542 -951196 -962040 
3779.662 -970570 -972851 -966636 -952188 -931524 -908479 -886523 -868072 
3783.519 -853753 -842807 -833448 -824188 -814135 -803419 -793563 -785857 
3787.376 -781789 -782450 -787775 -797433 -810199 -824519 -838574 -850446 
3791.234 -858879 -863012 -863475 -861293 -858713 -857721 -859805 -865327 
3795.091 -873098 -881232 -886986 -886986 -879381 -862814 -837846 -806131 
3798.949 -771139 -737698 -711732 -699095 -703263 -722979 -751392 -778250 
3802.806 -794324 -794192 -778217 -751591 -723475 -703462 -700120 -717785 
3806.664 -754998 -804114 -853455 -893599 -918596 -928251 -925176 -913901 
3810.521 -898195 -880075 -859705 -836821 -810563 -781789 -752153 -725294 
3814.378 -704553 -692611 -689303 -690494 -689171 -677823 -650695 -606955 
3818.236 -549974 -487459 -429238 -386237 -368095 -379219 -416295 -468031 
3822.093 -520455 -561259 -584885 -592496 -590113 -585448 -585249 -593323 
3825.951 -609768 -631274 -652151 -667336 -674217 -672663 -665583 -656683 
3829.808 -649570 -645898 -645633 -646361 -644343 -635509 -616749 -586440 
3833.666 -545441 -496461 -444034 -393454 -350681 -320387 -305852 -307739 
3837.523 -323466 -348033 -376007 -402325 -424637 -442511 -457737 -472896 
3841.380 -490305 -512248 -539550 -572443 -609867 -649471 -687814 -721093 
3845.238 -745075 -756718 -753906 -736508 -705546 -663002 -611554 -552787 
3849.095 -487823 -417818 -343993 -269759 -201706 -149475 -126553 -145235 
3852.953 -211708 -319162 -448436 -574131 -675210 -742098 -775207 -781458 
3856.810 -769320 -747357 -722251 -697805 -676963 -660720 -649306 -642589 
3860.667 -640141 -640935 -643880 -647850 -652416 -656915 -661348 -665781 
3864.525 -668726 -667965 -660455 -643053 -614929 -577605 -535778 -496362 
3868.382 -467501 -456247 -465184 -490934 -524228 -554177 -572179 -575620 
3872.240 -567811 -555765 -548022 -550570 -565693 -590941 -619727 -644343 
3876.097 -658768 -660620 -650960 -633524 -613837 -597260 -587996 -588194 
3879.955 -596632 -609801 -621745 -626774 -620422 -601529 -572278 -537465 
3883.812 -504437 -481204 -473161 -482362 -504007 -529424 -547360 -549875 
3887.669 -534255 -503643 -465383 -429039 -404047 -397492 -411925 -444663 
3891.527 -488717 -534950 -575322 -604540 -620422 -623400 -614665 -596566 
3895.384 -570921 -539484 -504437 -468196 -432846 -400637 -372697 -349622 
3899.242 -331214 -316314 -304362 -294991 -288700 -286680 -290554 -301680 
3903.099 -320817 -347205 -378854 -412985 -445887 -475279 -499109 -517245 
3906.957 -530383 -539550 -545904 -549974 -551861 -550802 -546301 -537796 
3910.814 -525386 -509567 -491000 -470778 -449363 -427682 -406530 -387098 
3914.671 -371009 -359454 -353462 -352336 -354323 -356707 -356409 -351840 
3918.529 -342868 -331313 -319725 -310520 -304891 -302540 -302143 -302044 
3922.386 -301779 -302143 -304924 -312341 -325618 -344093 -365248 -385078 
3926.244 -400207 -408019 -407920 -400836 -388951 -374054 -357965 -341444 
3930.101 -324989 -308798 -294329 -282905 -276051 -274991 -279892 -289892 
3933.958 -303368 -317970 -332405 -345119 -355746 -363692 -369287 -372233 
3937.816 -372796 -371141 -367466 -362732 -358163 -354853 -354555 -357965 
3941.673 -365447 -376636 -389878 -402921 -413084 -418215 -417122 -409939 
3945.531 -398055 -383787 -370015 -358892 -351641 -348595 -348794 -350780 
3949.388 -353462 -355846 -357435 -358362 -358594 -358163 -357435 -356607 
3953.246 -356309 -357501 -361176 -367731 -376736 -387197 -397128 -404808 
3957.103 -409012 -409112 -405503 -399280 -391898 -384251 -377729 -372896 
3960.960 -370181 -369817 -371571 -374816 -378226 -380245 -379748 -375643 
3964.818 -368360 -358527 -347768 -337173 -327439 -318533 -309792 -300852 
3968.675 -291779 -283104 -276183 -271713 -270124 -270786 -271978 -272342 
3972.533 -270620 -267011 -262342 -258434 -256977 -258832 -263998 -271150 
3976.390 -278865 -285620 -290455 -292508 -291647 -287806 -280885 -271216 
3980.248 -259461 -246513 -233730 -222504 -213761 -208164 -205448 -205647 
3984.105 -208594 -214125 -222305 -233134 -245685 -258766 -270124 -278038 
3987.962 -281084 -279263 -273269 -265090 -256249 -248235 -241347 -235552 
3991.820 -229856 -223895 -217172 -210085 -202898 -196440 -190578 -185577 
3995.677 -181072 -176866 -172925 -169414 -166367 -164048 -162856 -162723 
3999.535 -164280 -167824 -173620 
##END=
