
##TITLE=Z345_2_c
##JCAMP-DX=5.01  $$ Nicolet v. 1
##DATATYPE=INFRARED SPECTRUM
##ORIGIN=UniL
##OWNER=Nicolet
##LONGDATE=2011/09/14
##TIME=09:55:44
##SPECTROMETER/DATA SYSTEM=Nicolet iS5
##DATA PROCESSING=
Ratio against background
%Transmittance->Absorbance
Truncated
ElementMultiply or ElementDivide
##COMMENTS=
Number of sample scans: 32
Collection length: 51.23 sec
Sample gain: 2.0
Background collected on: Mer Sep 14 09:43:49 2011 (GMT+02:00);
Number of background scans: 32
Background gain: 2.0
Sample spacing:  1.000
Number of scan points: 12415
Resolution points: 8192
Number of FFT points: 65536
Apodization: N-B fort;
Phase correction: Mertz;
Laser frequency: 15798.0 cm-1
Number of rejected sample scans: 0
Number of rejected background scans: 0
Bench serial number: ASB1000141;
##RESOLUTION=4.000
##XUNITS=1/CM
##YUNITS=ABSORBANCE
##FIRSTX=649.893372
##LASTX=4000.122314
##FIRSTY=0.112149
##MAXX=4000.122314
##MINX=649.893372
##MAXY=0.488381
##MINY=0.000068
##XFACTOR=1.000000
##YFACTOR=1.000000E-009
##NPOINTS=6950
##DELTAX=0.482117
##ZPD=6100
##XYDATA=(X++(Y..Y))
649.893 112149168 112314176 112546104 112872624 113293528 113783208 
652.786 114308840 114855144 115438728 116104824 116903208 117865976 
655.679 118991136 120244760 121583936 122982144 124444128 126003248 
658.571 127699960 129552704 131550640 133658800 135846672 138114304 
661.464 140505200 143085744 145916864 149011664 152320304 155737504 
664.357 159148704 162465152 165624832 168593936 171316512 173667568 
667.250 175447376 176431616 176489520 175665952 174134240 172077392 
670.142 169606864 166753904 163516304 159907472 155998576 151920784 
673.035 147826576 143862016 140115280 136609152 133325768 130236712 
675.928 127331808 124624784 122138680 119887584 117860504 116023664 
678.820 114333240 112752672 111266224 109877688 108599008 107435192 
681.713 106375640 105395792 104468120 103574056 102713112 101900064 
684.606 101157248 100500264 99930264 99435824 98998576 98604896 98250072 
687.981 97936640 97665840 97427752 97197176 96935944 96600736 96160176 
691.355 95599848 94924696 94151560 93300272 92384856 91412728 90389680 
694.730 89328040 88249560 87186528 86172576 85232168 84377608 83606776 
698.105 82909456 82274720 81696216 81173320 80706192 80291976 79921576 
701.480 79581256 79258416 78946032 78646144 78366544 78115800 77896792 
704.855 77703696 77524256 77346136 77163568 76981120 76811608 76670728 
708.229 76571984 76524288 76532904 76605584 76755568 76999320 77349104 
711.604 77801064 78324280 78856072 79315168 79615200 79685096 79492712 
714.979 79047456 78398416 77613152 76765456 75919328 75118568 74393088 
718.354 73760336 73229488 72804712 72484208 72262464 72131392 72085312 
721.729 72124464 72254520 72479704 72794096 73167368 73543200 73841464 
725.104 73967800 73843552 73421280 72699952 71723984 70574256 69349496 
728.478 68137408 67012004 66019060 65177260 64484836 63925996 63479192 
731.853 63121164 62831848 62595724 62402232 62244732 62119668 62023952 
735.228 61953672 61902884 61864752 61833312 61805156 61781052 61764472 
738.603 61760232 61771692 61799884 61842172 61894748 61954128 62018640 
741.978 62087444 62159924 62234368 62306724 62372396 62428172 62474312 
745.352 62515020 62557384 62607900 62669708 62741600 62818444 62894768 
748.727 62967076 63035572 63103496 63174924 63251348 63331000 63409744 
752.102 63483296 63550264 63613588 63679188 63754476 63844816 63952372 
755.477 64077080 64218692 64378292 64559372 64766824 65003708 65270908 
758.852 65566400 65887616 66233888 66608480 67017800 67469768 67971144 
762.227 68524816 69132488 69796656 70525296 71335200 72251864 73312480 
765.601 74565992 76072312 77910032 80170056 82937496 86272672 90165496 
768.976 94503008 99024216 103343896 106993936 109476536 110418352 109647448 
772.351 107254800 103564136 99065920 94308264 89743472 85706536 82370520 
775.726 79759184 77799080 76364312 75328808 74578304 74027048 73616408 
779.101 73301224 73050600 72845304 72678168 72553552 72482840 72478808 
782.475 72548736 72692432 72903848 73175368 73502384 73884168 74322656 
785.850 74818712 75368448 75963728 76595392 77257656 77952096 78687960 
789.225 79478944 80337104 81270792 82283656 83378448 84563112 85855176 
792.600 87280952 88874512 90664760 92668968 94883184 97278536 99801160 
795.975 102371944 104902512 107299128 109476880 111381304 112996384 
798.867 114356864 115537672 116647624 117801864 119091640 120580272 
801.760 122294088 124235984 126406624 128825472 131538168 134621344 
804.653 138161712 142235872 146893536 152138592 157922240 164132816 
807.546 170607040 177114128 183346816 188960928 193564960 196772256 
810.438 198282656 197901504 195589024 191452704 185724272 178715200 
813.331 170756608 162199104 153366512 144535024 135950112 127795608 
816.224 120196728 113234568 106940952 101314248 96329272 91945976 88116408 
819.598 84786552 81902464 79409120 77251720 75382880 73760528 72351968 
822.973 71134568 70092136 69211952 68482104 67888200 67414584 67046800 
826.348 66773056 66586540 66484892 66467784 66534132 66678824 66891008 
829.723 67155112 67451232 67755256 68043384 68290512 68473496 68576032 
833.098 68591440 68526600 68401656 68248864 68105664 68004744 67971496 
836.473 68017256 68140784 68330064 68566952 68832048 69104560 69365472 
839.847 69598496 69789704 69931552 70023728 70073912 70094352 70098560 
843.222 70096648 70091280 70078856 70051720 70004144 69934968 69850672 
846.597 69761568 69680104 69616000 69573528 69553504 69555136 69578584 
849.972 69627472 69707840 69825888 69986360 70190888 70437720 70724200 
853.347 71048280 71408968 71805920 72238248 72703168 73196616 73714904 
856.721 74256928 74825520 75426752 76068368 76756128 77491864 78274328 
860.096 79101040 79972160 80893408 81875696 82932728 84078608 85323296 
863.471 86672320 88128464 89694832 91377968 93190168 95146432 97265232 
866.846 99566064 102068352 104794832 107770928 111019536 114554080 118362672 
870.221 122396904 126553592 130674304 134566688 138002208 140759680 
873.113 142657648 143560000 143406048 142211648 140071280 137141936 
876.006 133626656 129762752 125773552 121859728 118185784 114858976 
878.899 111943528 109465664 107423176 105796704 104557776 103674424 
881.792 103111000 102830272 102797232 102976744 103338520 103858256 
884.684 104514152 105285696 106150128 107078600 108038120 108995384 
887.577 109917376 110779072 111562904 112257928 112858448 113362480 
890.470 113771368 114091312 114334448 114519400 114666552 114796560 
893.362 114925504 115061600 115207416 115361064 115519264 115678512 
896.255 115834832 115982896 116114440 116220816 116296640 116344584 
899.148 116378840 116424416 116515624 116685512 116962240 117365112 
902.040 117903664 118582048 119403752 120375056 121505168 122804720 
904.933 124281768 125940712 127781864 129804432 132009624 134402032 
907.826 136987856 139771424 142749744 145911312 149234544 152694128 
910.719 156265200 159924048 163650192 167421216 171206256 174968288 
913.611 178663296 182246576 185683168 188947872 192023952 194897056 
916.504 197544240 199927904 201998576 203694832 204953936 205722944 
919.397 205957152 205628432 204725856 203260384 201269312 198818032 
922.289 196003520 192938000 189738864 186521696 183379408 180389200 
925.182 177615936 175112576 172930048 171114112 169693840 168674368 
928.075 168023504 167671952 167508192 167395312 167197280 166783072 
930.967 166057632 164973680 163534592 161795920 159855568 157848352 
933.860 155916576 154192848 152789136 151770896 151159696 150933744 
936.753 151041216 151409840 151960176 152622128 153330416 154028480 
939.646 154669856 155211408 155617392 155862160 155929392 155814160 
942.538 155520640 155060656 154452080 153719504 152898992 152036016 
945.431 151183808 150401008 149737616 149230352 148899136 148746128 
948.324 148762336 148933776 149249088 149700000 150279552 150979936 
951.216 151787584 152684160 153651664 154674480 155745712 156866512 
954.109 158043136 159280368 160578304 161930112 163325168 164754576 
957.002 166213952 167705392 169234448 170805856 172419168 174068496 
959.894 175745184 177442272 179158448 180897328 182663776 184459472 
962.787 186279216 188111536 189942688 191762944 193571328 195375088 
965.680 197185328 199009984 200850064 202698928 204546752 206386160 
968.573 208217680 210048464 211888224 213741584 215603056 217457184 
971.465 219285104 221070896 222809088 224506160 226177744 227843248 
974.358 229519344 231221904 232967680 234777728 236681968 238714640 
977.251 240906112 243278000 245835904 248572576 251472864 254523008 
980.143 257716448 261050608 264520736 268108464 271771328 275444832 
983.036 279043776 282469888 285630912 288439744 290821728 292723328 
985.929 294113952 295000032 295430304 295506112 295370176 295177120 
988.821 295085312 295219840 295657856 296436576 297558208 299008320 
991.714 300766560 302815040 305134272 307696064 310463744 313393056 
994.607 316440416 319577120 322791872 326089376 329479776 332967200 
997.500 336541984 340184960 343874496 347600992 351372320 355211328 
1000.392 359143744 363184800 367330976 371562624 375855616 380192832 
1003.285 384573216 389008672 393512096 398083840 402705760 407343840 
1006.178 411966048 416555488 421118528 425678240 430259008 434866080 
1009.070 439477664 444046720 448518016 452850112 457021952 461030976 
1011.963 464875904 468539424 471979296 475137920 477957696 480406720 
1014.856 482485568 484222304 485650208 486788416 487633760 488168736 
1017.748 488381440 488286304 487927680 487371136 486680832 485891744 
1020.641 485004160 483988128 482805984 481426528 479834048 478020256 
1023.534 475962752 473609568 470881536 467675552 463897408 459484704 
1026.427 454407904 448670848 442292224 435293152 427698240 419547808 
1029.320 410918656 401928544 392738464 383537760 374502208 365793344 
1032.213 357543168 349844928 342777920 336405664 330771744 325901408 
1035.106 321785952 318379744 315599360 313339296 311491552 309952224 
1037.999 308640256 307493600 306458624 305487136 304530496 303540256 
1040.892 302479680 301325728 300069536 298709888 297243424 295656928 
1043.785 293930912 292045504 289995328 287797184 285493024 283140352 
1046.678 280795392 278507264 276307552 274214144 272239840 270398016 
1049.571 268704288 267173328 265810288 264606304 263537584 262574528 
1052.464 261690528 260869376 260108000 259410320 258776608 258196032 
1055.357 257642688 257080160 256472880 255790976 255015408 254135248 
1058.250 253140000 252014928 250742592 249307440 247706704 245956048 
1061.144 244092912 242166512 240228848 238329824 236509056 234801200 
1064.037 233243728 231876592 230744656 229891136 229344336 229112640 
1066.930 229179104 229507392 230045728 230735792 231522624 232348176 
1069.823 233153744 233882496 234476032 234886960 235088112 235075760 
1072.716 234869600 234503440 234016080 233438656 232791760 232089824 
1075.609 231345696 230577440 229810000 229068784 228374880 227739632 
1078.502 227163024 226639248 226163696 225737472 225367856 225063072 
1081.395 224824752 224642768 224496544 224362112 224218480 224056976 
1084.288 223880960 223701232 223527840 223363456 223201840 223032000 
1087.181 222844800 222639024 222422544 222209344 222014240 221847536 
1090.074 221717472 221634016 221614784 221689488 221896656 222273264 
1092.967 222845568 223617776 224570272 225659424 226828384 228018528 
1095.860 229169584 230229200 231151936 231897088 232436176 232756096 
1098.753 232863216 232781504 232545488 232187904 231725056 231151216 
1101.646 230438560 229549856 228447984 227109952 225532096 223727808 
1104.540 221722720 219546688 217234768 214825296 212359376 209884368 
1107.433 207444384 205073504 202791728 200599312 198481552 196414496 
1110.326 194375840 192348576 190322352 188291744 186250384 184188736 
1113.219 182097088 179968416 177804320 175617136 173428864 171265824 
1116.112 169151744 167106800 165145984 163281328 161526400 159895552 
1119.005 158398144 157034960 155789776 154628448 153498960 152345120 
1121.898 151114544 149766368 148279648 146649456 144882080 142987968 
1124.791 140977824 138860992 136645360 134340848 131960232 129518288 
1127.684 127033128 124524712 122013072 119520664 117070208 114681784 
1130.577 112373064 110155024 108030776 105997848 104049704 102180400 
1133.470 100387568 98673592 97045264 95511280 94079216 92753920 91537400 
1136.845 90429744 89431312 88543064 87766480 87101776 86545760 86091560 
1140.221 85727800 85440864 85217936 85047104 84918280 84821800 84745832 
1143.596 84675040 84591256 84473584 84302968 84064136 83746424 83345088 
1146.971 82860136 82296792 81664752 80980752 80269296 79559520 78886344 
1150.346 78284912 77784656 77409456 77174816 77087824 77150432 77359792 
1153.722 77709352 78187160 78774472 79445448 80164240 80890808 81582336 
1157.097 82194360 82687384 83024736 83172616 83103368 82794896 82233640 
1160.472 81417728 80357520 79074488 77596720 75957488 74191280 72329424 
1163.847 70404168 68445288 66479640 64533188 62626728 60775780 58991320 
1167.223 57279524 55643708 54087052 52612848 51226204 49932912 48738164 
1170.598 47645884 46658420 45776340 44999972 44330216 43768744 43318656 
1173.973 42983184 42765288 42667712 42693740 42847600 43136632 43571556 
1177.348 44165412 44933932 45892884 47056852 48440268 50056672 51920016 
1180.724 54046448 56452112 59153340 62163556 65489256 69124920 73045664 
1184.099 77204256 81515288 85850736 90051168 93913624 97221336 99780976 
1187.474 101430360 102078576 101715088 100408232 98290496 95534152 92341992 
1190.849 88907856 85405208 81982456 78740944 75743232 73014032 70545408 
1194.225 68306408 66251220 64332836 62505916 60734508 58995724 57277860 
1197.600 55579572 53906692 52270236 50683676 49159768 47711524 46348820 
1200.975 45078516 43904360 42826280 41841452 40945172 40132096 39397380 
1204.350 38736092 38143964 37616480 37148280 36734096 36369120 36050100 
1207.726 35776176 35548808 35371024 35246384 35178436 35170528 35225396 
1211.101 35346584 35537844 35802476 36142740 36558344 37046004 37600040 
1214.476 38213568 38879716 39592320 40345260 41131852 41942856 42767044 
1217.851 43591516 44403320 45192592 45952400 46679892 47374564 48038008 
1221.227 48673112 49284276 49878720 50466908 51060628 51673556 52317216 
1224.602 52999076 53722164 54485224 55284136 56113056 56965964 57835584 
1227.977 58712368 59585416 60441140 61266124 62050096 62786976 63476548 
1231.352 64124048 64739360 65335952 65930232 66543244 67200944 67931664 
1234.728 68768528 69743672 70885544 72218832 73761480 75526096 77522168 
1238.103 79755640 82229752 84943184 87890072 91059480 94437888 98014448 
1241.478 101782976 105742848 109896680 114241984 118762848 123425208 
1244.371 128168928 132909400 137546896 141956768 146000656 149533104 
1247.264 152391616 154419792 155481296 155466880 154319040 152034096 
1250.157 148664480 144308528 139104608 133226248 126855280 120184104 
1253.050 113400936 106662656 100104008 93827008 87895424 82349736 77206752 
1256.426 72464472 68108224 64112528 60446396 57073384 53957600 51066252 
1259.801 48369964 45846080 43478704 41257028 39175656 37232496 35427424 
1263.176 33760560 32231376 30838050 29577134 28444450 27434908 26543398 
1266.551 25763748 25088866 24510308 24018758 23605288 23263166 22988104 
1269.927 22778892 22636066 22560672 22553064 22612818 22740240 22937242 
1273.302 23208530 23561138 24001250 24530852 25142824 25820182 26533396 
1276.677 27242102 27902922 28468860 28896908 29155008 29222162 29093036 
1280.052 28777756 28300774 27696310 27001776 26256854 25496164 24747188 
1283.427 24032102 23365358 22756580 22211596 21732536 21318830 20967030 
1286.803 20671630 20426544 20226164 20066338 19944936 19861094 19812470 
1290.178 19795650 19804390 19831474 19870356 19916316 19968180 20027128 
1293.553 20095176 20173402 20261086 20355840 20455474 20558744 20666730 
1296.928 20782078 20908128 21047084 21199236 21363796 21540082 21728668 
1300.304 21932008 22153434 22396426 22662142 22949852 23257712 23584226 
1303.679 23930032 24298436 24694154 25121444 25582014 26074172 26593452 
1307.054 27133878 27689528 28255578 28826368 29394542 29950396 30480302 
1310.429 30970790 31409148 31786304 32097642 32342338 32521070 32633822 
1313.805 32679114 32654896 32559280 32392744 32159150 31864848 31518548 
1317.180 31129270 30705882 30258004 29796496 29333318 28882530 28456866 
1320.555 28066400 27716686 27407980 27137230 26899854 26693084 26516736 
1323.930 26372814 26264104 26192340 26157392 26158026 26193428 26265090 
1327.306 26376864 26534206 26741604 27000578 27309172 27662936 28057280 
1330.681 28489204 28958602 29466094 30010928 30588438 31188330 31794470 
1334.056 32388960 32951842 33463630 33907164 34266420 34527052 34679404 
1337.431 34719424 34651844 34490636 34260000 33989712 33709208 33445094 
1340.807 33215798 33031206 32896548 32814492 32788336 32822606 32922354 
1344.182 33091274 33331666 33644076 34028844 34487808 35024108 35640844 
1347.557 36338320 37112264 37951476 38839568 39756924 40681060 41587628 
1350.932 42451728 43244488 43935668 44497464 44905564 45145716 45215500 
1354.308 45124724 44891752 44541372 44101960 43600568 43063964 42518816 
1357.683 41988512 41495236 41057000 40684264 40381112 40145220 39971280 
1361.058 39855844 39800860 39814372 39908800 40095360 40378604 40754244 
1364.433 41209660 41727160 42284424 42857840 43420072 43937428 44374180 
1367.809 44693644 44863940 44866472 44696364 44363060 43883944 43281024 
1371.184 42576592 41790304 40944920 40068324 39194804 38368816 37637180 
1374.559 37039944 36606068 36348584 36269480 36368324 36650228 37130164 
1377.934 37833756 38789168 40021272 41543400 43350872 45414984 47674620 
1381.310 50037820 52370332 54502352 56263484 57490152 58061932 57918452 
1384.685 57054600 55518496 53400036 50842032 48024796 45142700 42389184 
1388.060 39907096 37773104 36002256 34563684 33404264 32464114 31690594 
1391.435 31039650 30475826 29974572 29519324 29102284 28724158 28390962 
1394.811 28111080 27890450 27730248 27625824 27568978 27548150 27551114 
1398.186 27566754 27586844 27608840 27637300 27683276 27759388 27875928 
1401.561 28038020 28244192 28488284 28762674 29062002 29385076 29733832 
1404.936 30109036 30506072 30911834 31307716 31673130 31993088 32262600 
1408.312 32486394 32676294 32845762 33007074 33168912 33337928 33522472 
1411.687 33733448 33983692 34285064 34643736 35057836 35517920 36012224 
1415.062 36530844 37068920 37627716 38210136 38816304 39441140 40075120 
1418.437 40710428 41347724 42001472 42693048 43438384 44243036 45098588 
1421.813 45990632 46905112 47838204 48799332 49808776 50888856 52054284 
1425.188 53307460 54639676 56039956 57503128 59035048 60649080 62358936 
1428.563 64170720 66079004 68069968 70129360 72251704 74441728 76707296 
1431.938 79051912 81466560 83931584 86417376 88895776 91344232 93735192 
1435.313 96034376 98191408 100144232 101836720 103241680 104371792 105261848 
1438.689 105948784 106453536 106776184 106897512 106787376 106417136 
1441.582 105761320 104803552 103537640 101967688 100111480 97999672 95678264 
1444.957 93198056 90603816 87934448 85220032 82494744 79812696 77248552 
1448.332 74887328 72802824 71031224 69567192 68372608 67399216 66604732 
1451.708 65964244 65468840 65114284 64888120 64763092 64693600 64623580 
1455.083 64500936 64289228 63990192 63650996 63358412 63195884 63207576 
1458.458 63391960 63716448 64141564 64630648 65155512 65691456 66212200 
1461.833 66693268 67108824 67435712 67660656 67784736 67828696 67828968 
1465.208 67832840 67884280 68012880 68235296 68556432 68974552 69484320 
1468.584 70078816 70751920 71497168 72311584 73197760 74162696 75218744 
1471.959 76380856 77667000 79092816 80677824 82449552 84435960 86667384 
1475.334 89166008 91935000 94955408 98187008 101583608 105102488 108715984 
1478.709 112414776 116194656 120050928 123973488 127941056 131929424 
1481.603 135915904 139879136 143796272 147634976 151343264 154854736 
1484.496 158086288 160942592 163333664 165172256 166379024 166886768 
1487.389 166638336 165593104 163737632 161105872 157799904 153991920 
1490.282 149921856 145846304 141977344 138456160 135329136 132568896 
1493.175 130109368 127871976 125790536 123824520 121963352 120220152 
1496.068 118613872 117149648 115799488 114498440 113166624 111717328 
1498.961 110076512 108199456 106067040 103690792 101104976 98362096 95518216 
1502.336 92611952 89663584 86653024 83512600 80134032 76386312 72168400 
1505.711 67491912 62559604 57746104 53449124 49903436 47112504 44914716 
1509.087 43110760 41529620 40061092 38654304 37298636 36004488 34783316 
1512.462 33638888 32563422 31541780 30556266 29590294 28629120 27660500 
1515.837 26678426 25688198 24710358 23777062 22920894 22162394 21499278 
1519.212 20905902 20337470 19748524 19110650 18433298 17764492 17169472 
1522.588 16693940 16343353 16088249 15880857 15677994 15452292 15200386 
1525.963 14939059 14694237 14485146 14314814 14172792 14044369 13921593 
1529.338 13807029 13711642 13646332 13614021 13605338 13599765 13574227 
1532.713 13515978 13431045 13345480 13290439 13287637 13338374 13428038 
1536.089 13534129 13636758 13724091 13791397 13838566 13864940 13863879 
1539.464 13823617 13735444 13604722 13452986 13308922 13193527 13109307 
1542.839 13041047 12962797 12852203 12698922 12512068 12313637 12130118 
1546.214 11978385 11858814 11758001 11656393 11538749 11400114 11248772 
1549.590 11100543 10971970 10870513 10792550 10727133 10664000 10599519 
1552.965 10538307 10490919 10467905 10473710 10504870 10551547 10602779 
1556.340 10650010 10685530 10699691 10678637 10605869 10475508 10305521 
1559.715 10136788 10011823 9953372 9962221 10021826 10109316 10200182 
1563.091 10276037 10329035 10362798 10390388 10428364 10488440 10571238 
1566.466 10667837 10764018 10847411 10912030 10960314 11000176 11042862 
1569.841 11097075 11166866 11254213 11360930 11490026 11644481 11823948 
1573.216 12023143 12229655 12427229 12600744 12743174 12862511 12979832 
1576.592 13122626 13307795 13537548 13802410 14089956 14391084 14702395 
1579.967 15024767 15358982 15701422 16043998 16374180 16680168 16955432 
1583.342 17200014 17418972 17619300 17806018 17980002 18139304 18281940 
1586.717 18408720 18525162 18640080 18762052 18896966 19046082 19207126 
1590.093 19378034 19560174 19758788 19982854 20240640 20536094 20867834 
1593.468 21229750 21616100 22023848 22455704 22917576 23416830 23957132 
1596.843 24537828 25154306 25801686 26477468 27182236 27918644 28687804 
1600.218 29486202 30305750 31134362 31959172 32770968 33564172 34336376 
1603.594 35085996 35808632 36493544 37125328 37681556 38136184 38464780 
1606.969 38644744 38661948 38513368 38207640 37764212 37209536 36577880 
1610.344 35906044 35232904 34597516 34030488 33550606 33161684 32852874 
1613.719 32602138 32381036 32162432 31924080 31655524 31362776 31068478 
1617.094 30803866 30595406 30457308 30387120 30370526 30385484 30407056 
1620.470 30411356 30376602 30289054 30145830 29958206 29747880 29540496 
1623.845 29357068 29205896 29082656 28974752 28868470 28751346 28616062 
1627.220 28460016 28284612 28093652 27892144 27685960 27480830 27281862 
1630.595 27092826 26914412 26743436 26571190 26383904 26163620 25889460 
1633.971 25542478 25113826 24612652 24070696 23536162 23056338 22658406 
1637.346 22345388 22101202 21902350 21725150 21551016 21369296 21177840 
1640.721 20982190 20791740 20616174 20460336 20322158 20192042 20054678 
1644.096 19892278 19686700 19424878 19102756 18729290 18327492 17929792 
1647.472 17570166 17273378 17050326 16898828 16806240 16751997 16707646 
1650.847 16637579 16496068 16234510 15825493 15291225 14716482 14204220 
1654.222 13818076 13560142 13395812 13282548 13187107 13090149 12983246 
1657.597 12866708 12745393 12625849 12511830 12403977 12299286 12192407 
1660.973 12077479 11949877 11808353 11656529 11502954 11359298 11236803 
1664.348 11143238 11080386 11044187 11025767 11013872 10995826 10960246 
1667.723 10899086 10809397 10694258 10562343 10426328 10299142 10191329 
1671.098 10109316 10054480 10022978 10005991 9991175 9963542 9909166 9821987 
1674.956 9707210 9583183 9473277 9396411 9359202 9356257 9374877 9402134 
1678.813 9429662 9455837 9485401 9525466 9581048 9650019 9722153 9779285 
1682.671 9801110 9771287 9688608 9571360 9454246 9368919 9328902 9329647 
1686.528 9357069 9396343 9435892 9468570 9491395 9503926 9507854 9506432 
1690.385 9505044 9509955 9526889 9559303 9606251 9661674 9714833 9753361 
1694.243 9766916 9752751 9720730 9692166 9691183 9730861 9808430 9907335 
1698.100 10004703 10075470 10099142 10068180 9994260 9909030 9846559 9828663 
1701.958 9855711 9914353 9985919 10052886 10101549 10122543 10113047 
1705.333 10077404 10025793 9969951 9919674 9879844 9850017 9826867 9805821 
1709.190 9783691 9759020 9733030 9707820 9685356 9666044 9648258 9628778 
1713.048 9604049 9571089 9528412 9475038 9409007 9326126 9219230 9081402 
1716.905 8909558 8709960 8499201 8299386 8129337 7997557 7901584 7831338 
1720.763 7773044 7714185 7646532 7566718 7476199 7379194 7281133 7185688 
1724.620 7095147 7010383 6932033 6861001 6798327 6743975 6696662 6654266 
1728.478 6615172 6579916 6552164 6537532 6540997 6564039 6601581 6642121 
1732.335 6668331 6662947 6615340 6530098 6427857 6338281 6284322 6272624 
1736.192 6296593 6341845 6393591 6438349 6467708 6477495 6469356 6449379 
1740.050 6425402 6404251 6389623 6381352 6376543 6371130 6361177 6343862 
1743.907 6318848 6287449 6252723 6217766 6185399 6155992 6128872 6101249 
1747.765 6069865 6032134 5985503 5928934 5861694 5784054 5697397 5605454 
1751.622 5514000 5429914 5359697 5306833 5270811 5247536 5229426 5208366 
1755.479 5177416 5133894 5080387 5024540 4975604 4939609 4918228 4907538 
1759.337 4900702 4890147 4870109 4838579 4797705 4752646 4709603 4674434 
1763.194 4650622 4639336 4639905 4650320 4667032 4685186 4699789 4706186 
1767.052 4702335 4690444 4676210 4666697 4667200 4677616 4692353 4701564 
1770.909 4694128 4662444 4606617 4535261 4462746 4401790 4359584 4335387 
1774.767 4323808 4318387 4314438 4310690 4307845 4307009 4308180 4309083 
1778.624 4306239 4296400 4278565 4255142 4230683 4210642 4197427 4190970 
1782.481 4187792 4182940 4172369 4154137 4129283 4101018 4073323 4050179 
1786.339 4034293 4027738 4031718 4046567 4071818 4104463 4139318 4169994 
1790.196 4188427 4188795 4168990 4132193 4086535 4041918 4007138 3986673 
1794.054 3980520 3986037 3999414 4017973 4039611 4062922 4087204 4111153 
1797.911 4133363 4153267 4170429 4185149 4197795 4208735 4217568 4223891 
1801.769 4227772 4230047 4232590 4237709 4246978 4261031 4279033 4298977 
1805.626 4319056 4338667 4358279 4379866 4404903 4434258 4466462 4498768 
1809.483 4528197 4552237 4570553 4584616 4597274 4610837 4626710 4644828 
1813.341 4664052 4683276 4701731 4719584 4737673 4756599 4777168 4799279 
1817.198 4823134 4849100 4878083 4911225 4949462 4993066 5041668 5093998 
1821.056 5149116 5205717 5262829 5318908 5371975 5419916 5460983 5495175 
1824.913 5525376 5556520 5593841 5640799 5697061 5758904 5819245 5871164 
1828.771 5910024 5935921 5954228 5973073 6000553 6040701 6092210 6149808 
1832.628 6206674 6257194 6297904 6327925 6348636 6361783 6369012 6371130 
1836.485 6368541 6362186 6353478 6345005 6339188 6338516 6343963 6355361 
1840.343 6371500 6389892 6408050 6422006 6427588 6420997 6400014 6365952 
1844.200 6324765 6285902 6258405 6248320 6256690 6279246 6309334 6339928 
1848.058 6366153 6387102 6404991 6423653 6446555 6474434 6505276 6535749 
1851.915 6562693 6584895 6604306 6624256 6648110 6677718 6712477 6749763 
1855.772 6786346 6820070 6850431 6878438 6905739 6933178 6961088 6988934 
1859.630 7016310 7043755 7072448 7103668 7137889 7173965 7209539 7241881 
1863.487 7269576 7292926 7313986 7335081 7357390 7379464 7396787 7403359 
1867.345 7393248 7363557 7315839 7255964 7192425 7133813 7085077 7047829 
1871.202 7019879 6997150 6974994 6948900 6915469 6871941 6817883 6753903 
1875.060 6683337 6610462 6539584 6474300 6415718 6362556 6311452 6259211 
1878.917 6203548 6144229 6083406 6023163 5965448 5910394 5856421 5801582 
1882.774 5745138 5688131 5633582 5585114 5545546 5514940 5491283 5470613 
1886.632 5448803 5423606 5394351 5362415 5329977 5299186 5271113 5247435 
1890.489 5228889 5216348 5210781 5211485 5216381 5222484 5226441 5226039 
1894.347 5221881 5217454 5216851 5223658 5238716 5258536 5278089 5291706 
1898.204 5296167 5292343 5283589 5274701 5269235 5267960 5268832 5268128 
1902.062 5263366 5254243 5243075 5233316 5228152 5228822 5234624 5243243 
1905.919 5252734 5262493 5272555 5283589 5294825 5304284 5308443 5305055 
1909.776 5293752 5277183 5259877 5246932 5240996 5242405 5248642 5256658 
1913.634 5264371 5271884 5280000 5290364 5302137 5312065 5315755 5308979 
1917.491 5291136 5265679 5240124 5221579 5214805 5219734 5232277 5246194 
1921.349 5256959 5262594 5265177 5268832 5277552 5293517 5315855 5342153 
1925.206 5370197 5399316 5430115 5463600 5500007 5536988 5570347 5596190 
1929.063 5612033 5618679 5619585 5620055 5623982 5633347 5647277 5662853 
1932.921 5677321 5688970 5696927 5701325 5701660 5696423 5685412 5669466 
1936.778 5652279 5640698 5642276 5662517 5702097 5755446 5812193 5860888 
1940.636 5892055 5901157 5890711 5867873 5841644 5820991 5811051 5813772 
1944.493 5828715 5853533 5886144 5922855 5959938 5992524 6016914 6031797 
1948.351 6038618 6041743 6045842 6053637 6063481 6070537 6067211 6047858 
1952.208 6011572 5963197 5912980 5871870 5848562 5846447 5863171 5891753 
1956.065 5923795 5953220 5976366 5992558 6002804 6008683 6011741 6013320 
1959.923 6015301 6019568 6026691 6036703 6046648 6053435 6055048 6052192 
1963.780 6048966 6052226 6067312 6096410 6135458 6176022 6207548 6222404 
1967.638 6219211 6202741 6182172 6166208 6159957 6164360 6175921 6191516 
1971.495 6209766 6231513 6258808 6292390 6329002 6362892 6388581 6403780 
1975.353 6412859 6425772 6453381 6502652 6572414 6651743 6723717 6773961 
1979.210 6792875 6779749 6740341 6683977 6618099 6548901 6478874 6410371 
1983.067 6346518 6292626 6253093 6231715 6226942 6233194 6243816 6252522 
1986.925 6256522 6258572 6264018 6277363 6301030 6332431 6366356 6397189 
1990.782 6421737 6440400 6456879 6475208 6497136 6521791 6546009 6565855 
1994.640 6580185 6590042 6598519 6609083 6624188 6642356 6661770 6679266 
1998.497 6693364 6703863 6711266 6715337 6713588 6703022 6679872 6643063 
2002.354 6595290 6543486 6496296 6462293 6446924 6451566 6474266 6511094 
2006.212 6557950 6612851 6673311 6736942 6800313 6858645 6909106 6949405 
2010.069 6980987 7006073 7027759 7047257 7064466 7077297 7086323 7094069 
2013.927 7106093 7128693 7165442 7215468 7271800 7325073 7365478 7388463 
2017.784 7396214 7396686 7399214 7410875 7433626 7464233 7497437 7528216 
2021.642 7556300 7584723 7618982 7663731 7720121 7785593 7856270 7927093 
2025.499 7995229 8059797 8119817 8172755 8216075 8246095 8262001 8267438 
2029.356 8270241 8280845 8308674 8358865 8429737 8515252 8606900 8697587 
2033.214 8783797 8865323 8942535 9015464 9081300 9135135 9173982 9196386 
2037.071 9204407 9203696 9200582 9198281 9199296 9203121 9208502 9215609 
2040.929 9226236 9241805 9263739 9290345 9317324 9339803 9353785 9358762 
2044.786 9358660 9358998 9365533 9381852 9407144 9437246 9466640 9489837 
2048.644 9502368 9501826 9486519 9456311 9411952 9356866 9297115 9241501 
2052.501 9198755 9177197 9179634 9203493 9240452 9279817 9312856 9334792 
2056.358 9346201 9351483 9355986 9362757 9371559 9378771 9380836 9374844 
2060.216 9362012 9345186 9328733 9316004 9307880 9302463 9297115 9289159 
2064.073 9277583 9262588 9245394 9226744 9207115 9186571 9165623 9145929 
2067.931 9129450 9117911 9111651 9108436 9104579 9096763 9083805 9067869 
2071.788 9053557 9046926 9051426 9068207 9093684 9121497 9146673 9165387 
2075.646 9177874 9186335 9194219 9203493 9214154 9224206 9231178 9234258 
2079.503 9234055 9231855 9229519 9227252 9223834 9217572 9207216 9193610 
2083.360 9179837 9170023 9167180 9172494 9184575 9199669 9213950 9225221 
2087.218 9233175 9239471 9246104 9253957 9262047 9268173 9269629 9264856 
2091.075 9254227 9239606 9223834 9208975 9196893 9188568 9184507 9186030 
2094.933 9193509 9206979 9224273 9241163 9252569 9253686 9242415 9220145 
2098.790 9191953 9163458 9139736 9122750 9111718 9103429 9095172 9086004 
2102.647 9077680 9073383 9075955 9085868 9100756 9116421 9128062 9132867 
2106.505 9130668 9123392 9113885 9104038 9094124 9082925 9069053 9051899 
2110.362 9032818 9014009 8997873 8985289 8975413 8965806 8953934 8938307 
2114.220 8918994 8897789 8876787 8857477 8840434 8825488 8812199 8801041 
2118.077 8793400 8790356 8793129 8800297 8809291 8816967 8820822 8820315 
2121.935 8817474 8815378 8816832 8823324 8833434 8843984 8851492 8853285 
2125.792 8848483 8838405 8825319 8810914 8797321 8784981 8774736 8768210 
2129.649 8766993 8772505 8785657 8805471 8829546 8855415 8881183 8906684 
2133.507 8933031 8961510 8991378 9019727 9042054 9054403 9055012 9046758 
2137.364 9035322 9028319 9030721 9043679 9063640 9084379 9099470 9105527 
2141.222 9103767 9098522 9095781 9099977 9111651 9129077 9148196 9165488 
2145.079 9179092 9188636 9194863 9198247 9199026 9197063 9192562 9187147 
2148.937 9182917 9181292 9181326 9179329 9170665 9150768 9118452 9077139 
2152.794 9033428 8995979 8969899 8957147 8954881 8960090 8972030 8995438 
2156.651 9039856 9116760 9233040 9385644 9559946 9734419 9886894 10001448 
2160.509 10074317 10110910 10122203 10120033 10113047 10105518 10098396 
2163.884 10091512 10083745 10075573 10066586 10055565 10041493 10022809 
2167.259 9999820 9974731 9951643 9934489 9926217 9926929 9934184 9944185 
2171.117 9953949 9961169 9966154 9969984 9972696 9974155 9972493 9966797 
2174.974 9957576 9948253 9941981 9942930 9951405 9965238 9980562 9992667 
2178.832 10000329 10005821 10014841 10033050 10064924 10109723 10163311 
2182.207 10218738 10269524 10312307 10346917 10375659 10401383 10425785 
2185.582 10448592 10469161 10486471 10500763 10512915 10523167 10530567 
2188.957 10532163 10523540 10501713 10466920 10423171 10377797 10339316 
2192.333 10314750 10307285 10315938 10336670 10364563 10395546 10427719 
2195.708 10460166 10493226 10526392 10559016 10590488 10621318 10652896 
2199.083 10687466 10726929 10770640 10815920 10858553 10894532 10921374 
2202.458 10940131 10954028 10968062 10985937 11009759 11039463 11073112 
2205.833 11109143 11146706 11186108 11227384 11270535 11313383 11352802 
2209.209 11385386 11409231 11423653 11431205 11434675 11437261 11441479 
2212.584 11448316 11458182 11471790 11489515 11511597 11537660 11566106 
2215.959 11593671 11617697 11636380 11649961 11661090 11674330 11692710 
2219.334 11718920 11752008 11789185 11826910 11862219 11892935 11918954 
2222.710 11940409 11957302 11969666 11977431 11981008 11982302 11983903 
2226.085 11988297 11996506 12007440 12017692 12023654 12022803 12015002 
2229.460 12004443 11995926 11994938 12005532 12027912 12059730 12097545 
2232.835 12137613 12177822 12217488 12256171 12293560 12328737 12360577 
2236.211 12388702 12414615 12441380 12473159 12513125 12562441 12618992 
2239.586 12678589 12736453 12788523 12833364 12871657 12905722 12937706 
2242.961 12969010 12999940 13030360 13060373 13091276 13125016 13163403 
2246.336 13207293 13255901 13306941 13357474 13405450 13449705 13490616 
2249.712 13529207 13566501 13602911 13638057 13671737 13704222 13736094 
2253.087 13768926 13804154 13842465 13883242 13925186 13966689 14006040 
2256.462 14043102 14077430 14108541 14136028 14158347 14174161 14183302 
2259.837 14187102 14188471 14191382 14199289 14214080 14235102 14259993 
2263.213 14284921 14307042 14324951 14338752 14350430 14362143 14375637 
2266.588 14391426 14409340 14428761 14449587 14471888 14496348 14523653 
2269.963 14553735 14585636 14618018 14649066 14677203 14701949 14723097 
2273.338 14741709 14759295 14778285 14800363 14827824 14861802 14902675 
2276.714 14949484 15000723 15053683 15105998 15155883 15202239 15245066 
2280.089 15284842 15322116 15357540 15391216 15423555 15454661 15485047 
2283.464 15514784 15543802 15571585 15596554 15617539 15634060 15646357 
2286.839 15656456 15666520 15679093 15695514 15715681 15737806 15759485 
2290.215 15778383 15792780 15802709 15809549 15815184 15821816 15831025 
2293.590 15843775 15860235 15880032 15902508 15926946 15952038 15976857 
2296.965 15999889 16020309 16038051 16053727 16068684 16084982 16104100 
2300.340 16127001 16153274 16181957 16210744 16237710 16260652 16277989 
2303.716 16288929 16293228 16291611 16285351 16276682 16267806 16260756 
2307.091 16257212 16257076 16259206 16261237 16260240 16253911 16241010 
2310.466 16221749 16198466 16174322 16152862 16137214 16129615 16130164 
2313.841 16137524 16148873 16160669 16168887 16170332 16163006 16146602 
2317.217 16122565 16093131 16061395 16030315 16001746 15977200 15957229 
2320.592 15942242 15932584 15928494 15930040 15936054 15944580 15952967 
2323.967 15958088 15958192 15952554 15942344 15930418 15919419 15911857 
2327.342 15909005 15910551 15915707 15923887 15934851 15949598 15970085 
2330.718 15997758 16033581 16077178 16127035 16181406 16238121 16296152 
2334.093 16354913 16413992 16472803 16530761 16586972 16641056 16692977 
2337.468 16743975 16795254 16848500 16904270 16962942 17024240 17087716 
2340.843 17153342 17221800 17293790 17370170 17451358 17538736 17634828 
2344.219 17744162 17874236 18032948 18226546 18456738 18718428 18999866 
2347.594 19283012 19549046 19779594 19959090 20078656 20134980 20132170 
2350.969 20079628 19991564 19884612 19773108 19669228 19580276 19509398 
2354.344 19456584 19419890 19397196 19386038 19384132 19389884 19402010 
2357.719 19420200 19445044 19477862 19519412 19570536 19629776 19694918 
2361.095 19763748 19834458 19907088 19984140 20069736 20168128 20283064 
2364.470 20416436 20566874 20731646 20906460 21086944 21269764 21452522 
2367.845 21635008 21817574 22001992 22190290 22385228 22589256 22804070 
2371.220 23030692 23268724 23516296 23771110 24030806 24293880 24560128 
2374.596 24830186 25105400 25386618 25673504 25964236 26255938 26545406 
2377.971 26829320 27105662 27373358 27631968 27881580 28122464 28354602 
2381.346 28578232 28793902 29002028 29203874 29400002 29590862 29776482 
2384.721 29956218 30129812 30297402 30459334 30617024 30771676 30924250 
2388.097 31075240 31224182 31370610 31514238 31655132 31793826 31931460 
2391.472 32068782 32206432 32344516 32482826 32620854 32758392 32895080 
2394.847 33030492 33164262 33295460 33423160 33546846 33666276 33781940 
2398.222 33894412 34004980 34114208 34223072 34332108 34442320 34554856 
2401.598 34671440 34793080 34920932 35054816 35194028 35337668 35484952 
2404.973 35635448 35789376 35947112 36108172 36271672 36435416 36597276 
2408.348 36755696 36910600 37063256 37216248 37372512 37533492 37699952 
2411.723 37870776 38044204 38218384 38392416 38566124 38740152 38915372 
2415.099 39092080 39270312 39449628 39629564 39810052 39991152 40173384 
2418.474 40356932 40542156 40728808 40916844 41106096 41296704 41488344 
2421.849 41681060 41873632 42065236 42255244 42443072 42629700 42816372 
2425.224 43005060 43196872 43392392 43590640 43790256 43989856 44188452 
2428.600 44386400 44584512 44784000 44985968 45190424 45397068 45605100 
2431.975 45813488 46021504 46228248 46433032 46634732 46832916 47026868 
2435.350 47216920 47404020 47589648 47774876 47960072 48144684 48327260 
2438.725 48506544 48681636 48853496 49023612 49194500 49367904 49544536 
2442.101 49723616 49903104 50081136 50255604 50425600 50590672 50750632 
2445.476 50905284 51054552 51197944 51336272 51470320 51601572 51731704 
2448.851 51861468 51990972 52119504 52245832 52369324 52489700 52607352 
2452.226 52722860 52836488 52947568 53055120 53158088 53256404 53350320 
2455.602 53441592 53531984 53622660 53713804 53805152 53895400 53983936 
2458.977 54070464 54155288 54238844 54321404 54402032 54479476 54552280 
2462.352 54619496 54680972 54737196 54788952 54836656 54880304 54918920 
2465.727 54952160 54979872 55002776 55022144 55038992 55053584 55065060 
2469.103 55071944 55072504 55065848 55052156 55032712 55009204 54983332 
2472.478 54955920 54927340 54897636 54866692 54834776 54801884 54767792 
2475.853 54731332 54690856 54644484 54591200 54531052 54465468 54396208 
2479.228 54325048 54251984 54175668 54093660 54003300 53903276 53793792 
2482.604 53676756 53554548 53429524 53302480 53173032 53039732 52901308 
2485.979 52756980 52606976 52451976 52292920 52130492 51964680 51795872 
2489.354 51624372 51451036 51277168 51103564 50931068 50758900 50586168 
2492.729 50411756 50234660 50054480 49871992 49687132 49499968 49310108 
2496.104 49116804 48919244 48717444 48512136 48304448 48095824 47887108 
2499.480 47678724 47470728 47263356 47057036 46852476 46650632 46451612 
2502.855 46254380 46056828 45856280 45650740 45439300 45222816 45004012 
2506.230 44786204 44572248 44364196 44162700 43966940 43775816 43588404 
2509.605 43403780 43221980 43043220 42867896 42696300 42529196 42367412 
2512.981 42211824 42063700 41923372 41790744 41665520 41546572 41433012 
2516.356 41324184 41219864 41120300 41025500 40935600 40850332 40769276 
2519.731 40692488 40620188 40553216 40492032 40437076 40387732 40342936 
2523.106 40301520 40262512 40225764 40191776 40161572 40135552 40113384 
2526.482 40094160 40075700 40056808 40036568 40014912 39993008 39972224 
2529.857 39953260 39936660 39921548 39907420 39893324 39878652 39862964 
2533.232 39845748 39826028 39802968 39775588 39743816 39708196 39671060 
2536.607 39634720 39601580 39572944 39548840 39528008 39508560 39488344 
2539.983 39466392 39441356 39413308 39381924 39347280 39309192 39268208 
2543.358 39224936 39180840 39137400 39095560 39055752 39017292 38979124 
2546.733 38939692 38898412 38855220 38810472 38765512 38721424 38678684 
2550.108 38637608 38598316 38560872 38525640 38492804 38462464 38434480 
2553.484 38408308 38383260 38359044 38335884 38314240 38294808 38277980 
2556.859 38263724 38251272 38239732 38228588 38217696 38207964 38200400 
2560.234 38195700 38194612 38196424 38200548 38206188 38213244 38221784 
2563.609 38232784 38246568 38263468 38282864 38303564 38324952 38346596 
2566.985 38369108 38393868 38422280 38455548 38494108 38537372 38584480 
2570.360 38634168 38685748 38738700 38793080 38849060 38907072 38967560 
2573.735 39030956 39097916 39169020 39244668 39324864 39409500 39497928 
2577.110 39589636 39684272 39781688 39881816 39983960 40087184 40189996 
2580.486 40291088 40389296 40484832 40578792 40673128 40769748 40869192 
2583.861 40971060 41073608 41174800 41272508 41366348 41456412 41544164 
2587.236 41630800 41717200 41803220 41888336 41972016 42053956 42134380 
2590.611 42214308 42294212 42374500 42454872 42534784 42613836 42692096 
2593.987 42769932 42848260 42927364 43007184 43086724 43165068 43241196 
2597.362 43315320 43387888 43460028 43532764 43606648 43681716 43757752 
2600.737 43834968 43913964 43996312 44083620 44176748 44276060 44380672 
2604.112 44488876 44598572 44708596 44818164 44927428 45036872 45146780 
2607.488 45257308 45368416 45480172 45592772 45707128 45823948 45943820 
2610.863 46066780 46192056 46318740 46445680 46572508 46699116 46826236 
2614.238 46954544 47084472 47216176 47349476 47484144 47620264 47757676 
2617.613 47896212 48035640 48175076 48313408 48449972 48584428 48716960 
2620.989 48848608 48979956 49111684 49243264 49373880 49502720 49629144 
2624.364 49753780 49877160 50000348 50123828 50247008 50368144 50485628 
2627.739 50598044 50705384 50808732 50910276 51012440 51117092 51225084 
2631.114 51336124 51449504 51563884 51678556 51792960 51906908 52019880 
2634.490 52131572 52241388 52348988 52454332 52557608 52659152 52759036 
2637.865 52857300 52952960 53045384 53133784 53217860 53298168 53375308 
2641.240 53450020 53522840 53594020 53663036 53729892 53794204 53856240 
2644.615 53916108 53973804 54029448 54083260 54134980 54185348 54234676 
2647.990 54284272 54334548 54386368 54439436 54493116 54546760 54599620 
2651.366 54651508 54702616 54753732 54805452 54858196 54912336 54967648 
2654.741 55023988 55081272 55139576 55198944 55259860 55322336 55386884 
2658.116 55453928 55523956 55597684 55675612 55757844 55843708 55932264 
2661.491 56022236 56112492 56202652 56292828 56383708 56475960 56569856 
2664.867 56665432 56762164 56859672 56957656 57056604 57157468 57261376 
2668.242 57369020 57480732 57595956 57713748 57833200 57953360 58074128 
2671.617 58195304 58317388 58440568 58565412 58692376 58822076 58955304 
2674.992 59092516 59233576 59378216 59524876 59672116 59818764 59963556 
2678.368 60106648 60248148 60388972 60529348 60669616 60809164 60947540 
2681.743 61084512 61219996 61354384 61488164 61621560 61754196 61885424 
2685.118 62014512 62140428 62263244 62382876 62499792 62614636 62727936 
2688.493 62840192 62951908 63064076 63177264 63292472 63410364 63530816 
2691.869 63653216 63776428 63899316 64021060 64141712 64261524 64381292 
2695.244 64501552 64622656 64744212 64865956 64987272 65107936 65228128 
2698.619 65347924 65467528 65587124 65706448 65825416 65943808 66061564 
2701.994 66178628 66294872 66409984 66523740 66636176 66747868 66859664 
2705.370 66973112 67089492 67209768 67333784 67460832 67589112 67717304 
2708.745 67843688 67967464 68088184 68205400 68318512 68426592 68528696 
2712.120 68623952 68711744 68792368 68866208 68933936 68996144 69053408 
2715.495 69105728 69153864 69198160 69239736 69279728 69319256 69359176 
2718.871 69399832 69441200 69483080 69525344 69567808 69609888 69650888 
2722.246 69689784 69725584 69757480 69785064 69808528 69828568 69845464 
2725.621 69859040 69868776 69873360 69871608 69863160 69848648 69829424 
2728.996 69807280 69783472 69758104 69730792 69700136 69664656 69624008 
2732.372 69578152 69527912 69474096 69417256 69357000 69292552 69223144 
2735.747 69148032 69067616 68982512 68893280 68800520 68704256 68603816 
2739.122 68498824 68388816 68273832 68154464 68031288 67904704 67774896 
2742.497 67641800 67504840 67364128 67219984 67073016 66924096 66773756 
2745.873 66622192 66469564 66316136 66162264 66008644 65856456 65706104 
2749.248 65558224 65412404 65268212 65124712 64981812 64839756 64699100 
2752.623 64560524 64424300 64290188 64157196 64023668 63887804 63747988 
2755.998 63603044 63452468 63295996 63133924 62966576 62794440 62617736 
2759.374 62436780 62251348 62060952 61865060 61663148 61455448 61242468 
2762.749 61025324 60805736 60585188 60365212 60146640 59930424 59717052 
2766.124 59507852 59303840 59106604 58917356 58736832 58564728 58401032 
2769.499 58244708 58095640 57953852 57819536 57693424 57575680 57465796 
2772.875 57362364 57264252 57169712 57077316 56986556 56897104 56808496 
2776.250 56720704 56632856 56544492 56454904 56363900 56271256 56177460 
2779.625 56082708 55986956 55890736 55793712 55696176 55598364 55500688 
2783.000 55403180 55305812 55208236 55109596 55009396 54907448 54803912 
2786.375 54699236 54593684 54487216 54378896 54267524 54151420 54029188 
2789.751 53899900 53763224 53619364 53468308 53310156 53145060 52972984 
2793.126 52794808 52611952 52426556 52241012 52057644 51878196 51703492 
2796.501 51533628 51368420 51207488 51051164 50899396 50752608 50610884 
2799.876 50474200 50342028 50214056 50090136 49970604 49855344 49744608 
2803.252 49638208 49535248 49434584 49335088 49235656 49136060 49035928 
2806.627 48935972 48836592 48738052 48640828 48544632 48449528 48355484 
2810.002 48262304 48170152 48078980 47988972 47900836 47815232 47733420 
2813.377 47657092 47587800 47526692 47474756 47431776 47397588 47371280 
2816.753 47352544 47341128 47337024 47340828 47352544 47372716 47400916 
2820.128 47436764 47479232 47527356 47579332 47633760 47688744 47742404 
2823.503 47793408 47840756 47883928 47922924 47958076 47989456 48017024 
2826.878 48040524 48059288 48073468 48083384 48089824 48094232 48098156 
2830.254 48102856 48109000 48116772 48125840 48135580 48145500 48155420 
2833.629 48165416 48176520 48189960 48207620 48231164 48262236 48302076 
2837.004 48350928 48408592 48474568 48548596 48630824 48722928 48827544 
2840.379 48948728 49091168 49259592 49458904 49693484 49967220 50283576 
2843.755 50645736 51055520 51512924 52014876 52554768 53120196 53693632 
2847.130 54253636 54773580 55226524 55587216 55833308 55950620 55933624 
2850.505 55787116 55523688 55163992 54733212 54255740 53755504 53252772 
2853.880 52762328 52295724 51860012 51459576 51095996 50769476 50478112 
2857.256 50219188 49989156 49784176 49600616 49435624 49286872 49152348 
2860.631 49030996 48921580 48823576 48737012 48662140 48599804 48550820 
2864.006 48515916 48495132 48488204 48494316 48512208 48540816 48578908 
2867.381 48625264 48678596 48737460 48800072 48865256 48931744 48999060 
2870.757 49067052 49135464 49203480 49269540 49331596 49387096 49434584 
2874.132 49473828 49505836 49533692 49560836 49590400 49624796 49665100 
2877.507 49711020 49761772 49816584 49875040 49937296 50004324 50076752 
2880.882 50155288 50240240 50331496 50428092 50529136 50632740 50737372 
2884.258 50841212 50942616 51040428 51134272 51224116 51310544 51393556 
2887.633 51473156 51548032 51616832 51677440 51728012 51767500 51795540 
2891.008 51812524 51819616 51818460 51810508 51797256 51779860 51759144 
2894.383 51735588 51709088 51679528 51646428 51609072 51566796 51519116 
2897.759 51464688 51402472 51330380 51246520 51148888 51036140 50908300 
2901.134 50766348 50612896 50451240 50284544 50115756 49947668 49782208 
2904.509 49622232 49470896 49332084 49210680 49111276 49038084 48994420 
2907.884 48983000 49005436 49063860 49161108 49299936 49484152 49716780 
2911.260 49999564 50331720 50709856 51126408 51569560 52024848 52473964 
2914.635 52896216 53272024 53581276 53807704 53939928 53971704 53902788 
2918.010 53738516 53488588 53165392 52782720 52354968 51894436 51412208 
2921.385 50917168 50415216 49910644 49406664 48905376 48408928 47920040 
2924.760 47441380 46975476 46525332 46092828 45679780 45287276 44916004 
2928.136 44565936 44236836 43927384 43635808 43360320 43098724 42849612 
2931.511 42612448 42387028 42173960 41973512 41785268 41608048 41440120 
2934.886 41279252 41123872 40973064 40826896 40686012 40551832 40425404 
2938.261 40307484 40198792 40100084 40011788 39934552 39868700 39813824 
2941.637 39768832 39731872 39700864 39673816 39649276 39626624 39605828 
2945.012 39587132 39570620 39556064 39542960 39531244 39521044 39513564 
2948.387 39510556 39514256 39526452 39547896 39577988 39614536 39654176 
2951.762 39692476 39725300 39748972 39761024 39760520 39748356 39726640 
2955.138 39698540 39667428 39635920 39606152 39578600 39553344 39530188 
2958.513 39509324 39491104 39476840 39467336 39463056 39463600 39467372 
2961.888 39472272 39476624 39479344 39480616 39481632 39484536 39491140 
2965.263 39503368 39522640 39549788 39585608 39630872 39686232 39751984 
2968.639 39827916 39912832 40005104 40102520 40202788 40304032 40404496 
2972.014 40503088 40598616 40690196 40777064 40858816 40935852 41009220 
2975.389 41080820 41153196 41228644 41309204 41396416 41490788 41592076 
2978.764 41699692 41812992 41931324 42054360 42182104 42315068 42453924 
2982.140 42599472 42752236 42912296 43078784 43249616 43422308 43592944 
2985.515 43757496 43911804 44052012 44174656 44277232 44357812 44415428 
2988.890 44449748 44461236 44450296 44417228 44361992 44283944 44182616 
2992.265 44058024 43911508 43745988 43566240 43377268 43184500 42992400 
2995.641 42803244 42618148 42437264 42260576 42088784 41924064 41769144 
2999.016 41627264 41501216 41392224 41300204 41224124 41162048 41111816 
3002.391 41072296 41042180 41020912 41007800 41002524 41003944 41011552 
3005.766 41024624 41042688 41065924 41094224 41127696 41166416 41209804 
3009.142 41256916 41306544 41356912 41406328 41453280 41496588 41535744 
3012.517 41570780 41602176 41630108 41654652 41675296 41690940 41700568 
3015.892 41703488 41699476 41689192 41673760 41653960 41630512 41603160 
3019.267 41571256 41534320 41492320 41445876 41396816 41346816 41297292 
3022.643 41248644 41200080 41149624 41094660 41033112 40963416 40884952 
3026.018 40798428 40704860 40606076 40503528 40399004 40293704 40188760 
3029.393 40084820 39981708 39879232 39776352 39672184 39566012 39457140 
3032.768 39345576 39231248 39114304 38994712 38872468 38747832 38621096 
3036.144 38493200 38365560 38239188 38115312 37994004 37874792 37756476 
3039.519 37637400 37516008 37390712 37260836 37125364 36984412 36838172 
3042.894 36687152 36532216 36374632 36215488 36055712 35895896 35736204 
3046.269 35576968 35418688 35262408 35109848 34963124 34823848 34693188 
3049.645 34570500 34454480 34342580 34232864 34123384 34013436 33903656 
3053.020 33794548 33687008 33581284 33477124 33373776 33270706 33167586 
3056.395 33064638 32962568 32862238 32763824 32667718 32573604 32481112 
3059.770 32390352 32301504 32215138 32132000 32052300 31976220 31902824 
3063.146 31831830 31762026 31693198 31625338 31558954 31494926 31433974 
3066.521 31376272 31321674 31269294 31217666 31165296 31111046 31053742 
3069.896 30993172 30929516 30863272 30794974 30725264 30654428 30582750 
3073.271 30510374 30437832 30365550 30294098 30223900 30154816 30086630 
3076.646 30018738 29950430 29881532 29812360 29743552 29676000 29610442 
3080.022 29547128 29485668 29425352 29365400 29305278 29245022 29184596 
3083.397 29124394 29064482 29004612 28944434 28883626 28822332 28761400 
3086.772 28702176 28645578 28592492 28542916 28495820 28449934 28404334 
3090.147 28358280 28312372 28267744 28225488 28186700 28151524 28119280 
3093.523 28088742 28058800 28028830 27998684 27968964 27940552 27913874 
3096.898 27889564 27867306 27846498 27826610 27806932 27787010 27766840 
3100.273 27746390 27725764 27705068 27684726 27664666 27645492 27627624 
3103.648 27611454 27597364 27585960 27577276 27571168 27567072 27564106 
3107.024 27560752 27555774 27547724 27535650 27519448 27499468 27476804 
3110.399 27452698 27428450 27404804 27382392 27361148 27341140 27322440 
3113.774 27304868 27288600 27273430 27258964 27244746 27230564 27215854 
3117.149 27200756 27185588 27170420 27155394 27140262 27124180 27106544 
3120.525 27086654 27064682 27040880 27016480 26992150 26968810 26946528 
3123.900 26924988 26903484 26881876 26859950 26838098 26817126 26797918 
3127.275 26780686 26765460 26751612 26738044 26724056 26709044 26692802 
3130.650 26676030 26659402 26644040 26630582 26619696 26611136 26604758 
3134.026 26600004 26596128 26592606 26589330 26586018 26582638 26579256 
3137.401 26575240 26569816 26561996 26551182 26537058 26520294 26502260 
3140.776 26484932 26470422 26459964 26453732 26451478 26451548 26452182 
3144.151 26452428 26451336 26449048 26446054 26442744 26439258 26435596 
3147.527 26431336 26425946 26419678 26412954 26406792 26402286 26400242 
3150.902 26401052 26404326 26409258 26414328 26418588 26421088 26421510 
3154.277 26419998 26417286 26414362 26412320 26412038 26414082 26418940 
3157.652 26426404 26436018 26447040 26458872 26470458 26481130 26490462 
3161.028 26497716 26503036 26506488 26508528 26510150 26512684 26516910 
3164.403 26524096 26534592 26548682 26565660 26585034 26605782 26627058 
3167.778 26648478 26669582 26690230 26710384 26730222 26749744 26769514 
3171.153 26789706 26811064 26833974 26858718 26885190 26913072 26941698 
3174.529 26970114 26997826 27024202 27048744 27071914 27093848 27114974 
3177.904 27135958 27157686 27180508 27204954 27231236 27259000 27287790 
3181.279 27317076 27345834 27373958 27401062 27427354 27453226 27478676 
3184.654 27503738 27528060 27551186 27572190 27590480 27605980 27618726 
3188.030 27629108 27638182 27646480 27654990 27664348 27674624 27685926 
3191.405 27698286 27711318 27724632 27738584 27752818 27767830 27783794 
3194.780 27801210 27820180 27841094 27863668 27887480 27912284 27937194 
3198.155 27961402 27984266 28005292 28023846 28040104 28054524 28067566 
3201.531 28080186 28093054 28106768 28121792 28138336 28156544 28176872 
3204.906 28199606 28224886 28252856 28283232 28314990 28347244 28378832 
3208.281 28408968 28437764 28465854 28493910 28522712 28552646 28583078 
3211.656 28612912 28641544 28668196 28693326 28718140 28744548 28774500 
3215.031 28809410 28849634 28894676 28943160 28993598 29044324 29094100 
3218.407 29142074 29187646 29230596 29271036 29309532 29347248 29385536 
3221.782 29425886 29469394 29516452 29565998 29616828 29666918 29714246 
3225.157 29757960 29798272 29835924 29872802 29910496 29950254 29992606 
3228.532 30037520 30084002 30131304 30178294 30224292 30268482 30310690 
3231.908 30350590 30388044 30423544 30457486 30490470 30523454 30556692 
3235.283 30590608 30625592 30660900 30696210 30731204 30765380 30798816 
3238.658 30831610 30864232 30897032 30930902 30966022 31002460 31039934 
3242.033 31077802 31114784 31150274 31183132 31212858 31239670 31264450 
3245.409 31288382 31313200 31340410 31370930 31405300 31443310 31483990 
3248.784 31526138 31568394 31609408 31648572 31685390 31719822 31752474 
3252.159 31784024 31814684 31845416 31876900 31909458 31943836 31980320 
3255.534 32019198 32060184 32102778 32146196 32189194 32231268 32271844 
3258.910 32310892 32349084 32386888 32425054 32463722 32502428 32540388 
3262.285 32576636 32610282 32640680 32667756 32692012 32714304 32735598 
3265.660 32756928 32778866 32801878 32826106 32850980 32876390 32901622 
3269.035 32926322 32950162 32973468 32996132 33018622 33041324 33064064 
3272.411 33086802 33109258 33130716 33151030 33169876 33187222 33203282 
3275.786 33218552 33233218 33247706 33262622 33277824 33293780 33310342 
3279.161 33327230 33343938 33360358 33375890 33390452 33404514 33418648 
3282.536 33433430 33449710 33467390 33486250 33505614 33524438 33541906 
3285.912 33557656 33571512 33583720 33594888 33605376 33615684 33625852 
3289.287 33635736 33645152 33654068 33662088 33669356 33675800 33681920 
3292.662 33688080 33695100 33703764 33714652 33728256 33744588 33762996 
3296.037 33782836 33803180 33823452 33842972 33861492 33879080 33895808 
3299.413 33911964 33927944 33944424 33961944 33981116 34002256 34025400 
3302.788 34049912 34075072 34100192 34124600 34147828 34170200 34191956 
3306.163 34213392 34234832 34256092 34277072 34297828 34318984 34341432 
3309.538 34366212 34394332 34426252 34461832 34500576 34541364 34583556 
3312.914 34626836 34670792 34716012 34762604 34810920 34860932 34912996 
3316.289 34967184 35023928 35083448 35145704 35210556 35277576 35345828 
3319.664 35414916 35484660 35554992 35626812 35700444 35776032 35853860 
3323.039 35933684 36014924 36097192 36180192 36263280 36345772 36427236 
3326.415 36506336 36582528 36655748 36726376 36795508 36864468 36933760 
3329.790 37003464 37073252 37141568 37207584 37271088 37332500 37392520 
3333.165 37452256 37511348 37568968 37623704 37673824 37718380 37757744 
3336.540 37793164 37826348 37858772 37891168 37923024 37953756 37982324 
3339.916 38008432 38032736 38056424 38080336 38104752 38129312 38152648 
3343.291 38173520 38190780 38203656 38212052 38216324 38216432 38212484 
3346.666 38204816 38193820 38180504 38166032 38151780 38138212 38125080 
3350.041 38111408 38095056 38074764 38049520 38019320 37984820 37946960 
3353.417 37906172 37862932 37816804 37767936 37716900 37664720 37612828 
3356.792 37562320 37513624 37466232 37419424 37372332 37324596 37277188 
3360.167 37231336 37187772 37146804 37107136 37066176 37021576 36971028 
3363.542 36913412 36850040 36782200 36712208 36641508 36570780 36499920 
3366.917 36428424 36355752 36282228 36208244 36134528 36060828 35986632 
3370.293 35910868 35832056 35749404 35663104 35573624 35482216 35390040 
3373.668 35297376 35204304 35110424 35015200 34918452 34821116 34723660 
3377.043 34627228 34532252 34438592 34345592 34252256 34157904 34062240 
3380.418 33965636 33868764 33771876 33675624 33579348 33482134 33383116 
3383.794 33281438 33176672 33069142 32959994 32849942 32740564 32633070 
3387.169 32527816 32425412 32325812 32229018 32134604 32042418 31951610 
3390.544 31861424 31771012 31679296 31585534 31489656 31391516 31291656 
3393.919 31190752 31089264 30987728 30886360 30784872 30683336 30581898 
3397.295 30480802 30380332 30281130 30183480 30087162 29991968 29897044 
3400.670 29801642 29705126 29607072 29507372 29406312 29304712 29203132 
3404.045 29102674 29004366 28908700 28816278 28726636 28638746 28551018 
3407.420 28461536 28368326 28270042 28166582 28058166 27946630 27834170 
3410.796 27722302 27612758 27506174 27401980 27299364 27196488 27092156 
3414.171 26985486 26876516 26765744 26654574 26544244 26435490 26328490 
3417.546 26222394 26115586 26006940 25895826 25782278 25667774 25554846 
3420.921 25445464 25341656 25243844 25150970 25061170 24971562 24879904 
3424.297 24784372 24684370 24580500 24473744 24365964 24258316 24151534 
3427.672 24046250 23942112 23838592 23735416 23632052 23528432 23424698 
3431.047 23321024 23217514 23114342 23010988 22907236 22802812 22697750 
3434.422 22592328 22487494 22384146 22282986 22184604 22088828 21994916 
3437.798 21901794 21808620 21714004 21617528 21518670 21417294 21313750 
3441.173 21208664 21103014 20998328 20896342 20798100 20704052 20613290 
3444.548 20523622 20432482 20337124 20236196 20129776 20019318 19907644 
3447.923 19797384 19690412 19587138 19486732 19387736 19288970 19189186 
3451.299 19088666 18987646 18886308 18784920 18683178 18580526 18476930 
3454.674 18372840 18268980 18166426 18066208 17968570 17873236 17779610 
3458.049 17686454 17593456 17500030 17405794 17310272 17213356 17114152 
3461.424 17012490 16908682 16803760 16699312 16597541 16499786 16407248 
3464.800 16319821 16237089 16157607 16080718 16004805 15928665 15851267 
3468.175 15771167 15687339 15599576 15507951 15413805 15318993 15225437 
3471.550 15134645 15047234 14962996 14880867 14800329 14720800 14642314 
3474.925 14565214 14489462 14414614 14339916 14263794 14184774 14102688 
3478.301 14017538 13930044 13841576 13753160 13665343 13578569 13493077 
3481.676 13409037 13327133 13247976 13171736 13098208 13026297 12954228 
3485.051 12880190 12803026 12722157 12638710 12554426 12471590 12392180 
3488.426 12317659 12248161 12182933 12120373 12059218 11997766 11935913 
3491.802 11873457 11811111 11749592 11688898 11628689 11567774 11504656 
3495.177 11438076 11368005 11295224 11221638 11149833 11081405 11016897 
3498.552 10955693 10895416 10833517 10768128 10698503 10624985 10549239 
3501.927 10473268 10397956 10324013 10250830 10177760 10105212 10033864 
3505.302 9965340 9901471 9843678 9791858 9744957 9701416 9658862 9615600 
3509.160 9571496 9525669 9478967 9431964 9384493 9336689 9289363 9242652 
3513.017 9197638 9155708 9116997 9081470 9047772 9013570 8976360 8934248 
3516.875 8886223 8832690 8775277 8716146 8657565 8601594 8549043 8500316 
3520.732 8454907 8411967 8370417 8329344 8287836 8245116 8200678 8154017 
3524.590 8104828 8052270 7996376 7936947 7874321 7810219 7745654 7683258 
3528.447 7624613 7570461 7521271 7475761 7432615 7390047 7346977 7302799 
3532.304 7257514 7211628 7165207 7118117 7069551 7018667 6964287 6906245 
3536.162 6844541 6780389 6715304 6651238 6589873 6532453 6479681 6431421 
3540.019 6387404 6346384 6307485 6269699 6232219 6194339 6155924 6116102 
3543.877 6073796 6027967 5977272 5921075 5859981 5796310 5733152 5674233 
3547.734 5623042 5580852 5547727 5521249 5497692 5473431 5445079 5410488 
3551.592 5369090 5321994 5271113 5219232 5169134 5122998 5082398 5048004 
3555.449 5019277 4994876 4973392 4952445 4930326 4906298 4879391 4850139 
3559.306 4819080 4786079 4752077 4717206 4682540 4649349 4620113 4596437 
3563.164 4579192 4568343 4560675 4551065 4534090 4503655 4456117 4391447 
3567.021 4313969 4231386 4152264 4083859 4030280 3991956 3966141 3948386 
3570.879 3934042 3919398 3902045 3881819 3859888 3837792 3817435 3800019 
3574.736 3785279 3772411 3760178 3746943 3732071 3715161 3695879 3674325 
3578.594 3649933 3622133 3590561 3555884 3519004 3482796 3450165 3424082 
3582.451 3406783 3399035 3400204 3407985 3419206 3429325 3433099 3425250 
3586.308 3401540 3359331 3300232 3229792 3156993 3091949 3042696 3013368 
3590.166 3003525 3008463 3020942 3034355 3042796 3042496 3032920 3015236 
3594.023 2991014 2962623 2931765 2899942 2869022 2841340 2818928 2803487 
3597.881 2795250 2792116 2790748 2787747 2780344 2768106 2752967 2737529 
3601.738 2725826 2720324 2721558 2729626 2743597 2762204 2784412 2808790 
3605.595 2832769 2853046 2865254 2865520 2852579 2827933 2796851 2766072 
3609.453 2742064 2728126 2723692 2726059 2730927 2735228 2737962 2741063 
3613.310 2747432 2760570 2781878 2810958 2845342 2881130 2914019 2940272 
3617.168 2955784 2957819 2944642 2917521 2880063 2839105 2802854 2778277 
3621.025 2769773 2778143 2800419 2832835 2871591 2914953 2963557 3019807 
3624.883 3086176 3163401 3248386 3334689 3412092 3469202 3497259 3493852 
3628.740 3466931 3432431 3410356 3415866 3454373 3523614 3615785 3721444 
3632.597 3830839 3937753 4038774 4133999 4227036 4322068 4423178 4532047 
3636.455 4648244 4768961 4891922 5014886 5137448 5260582 5385863 5514235 
3640.312 5645230 5777976 5910528 6043456 6178375 6318546 6467943 6628865 
3644.170 6800414 6978227 7154428 7320018 7466154 7585532 7673714 7729633 
3648.027 7754424 7750410 7722044 7676041 7621309 7569820 7534082 7522552 
3651.885 7539004 7580576 7638068 7698401 7746970 7770109 7757224 7704067 
3655.742 7614800 7502493 7385227 7280223 7199601 7146748 7117443 7102085 
3659.599 7089994 7070292 7036279 6985533 6919913 6844507 6765076 6686197 
3663.457 6610294 6538205 6470298 6408017 6354587 6313503 6287213 6275750 
3667.314 6275313 6281297 6291651 6313503 6365481 6479647 6694038 7038737 
3671.172 7531958 8178326 8975413 9920658 11010202 12230132 13528318 14793472 
3675.029 15856594 16510248 16596438 16067447 14991429 13509073 11779959 
3678.404 9960491 8179777 6547455 5149720 4031016 3194910 2606875 2211686 
3682.262 1948404 1766484 1635191 1537320 1466168 1417166 1383360 1354874 
3686.119 1321704 1275410 1212209 1134100 1046074 955011 866191 782568 705599 
3690.459 636772 578010 530899 496266 473113 458751 449729 444024 440375 
3694.798 439380 441934 447772 455434 462466 465981 464887 459712 451487 
3699.138 441437 429463 413245 389897 357497 317009 272679 232165 201932 
3703.478 187048 188275 203126 226762 255505 286040 317805 351097 386448 
3707.817 422797 457722 486647 504725 507777 493281 460674 412648 354281 
3712.157 292440 235149 190065 162254 153636 162685 184761 213435 241647 
3716.496 263793 277122 281697 280338 276790 274469 274867 277519 280968 
3720.836 283554 284383 283918 282029 279045 274038 264921 249438 226265 
3725.176 195700 160133 124204 93381 73199 68327 80788 110151 154034 207302 
3729.997 262600 312898 350500 371027 373946 363466 345725 326924 309880 
3734.337 292904 272679 246123 213236 179491 153205 141273 147537 170574 
3738.677 205512 246985 291213 336639 384392 435898 489168 538397 572336 
3743.016 577081 541880 467209 369137 276691 217579 204584 235215 295755 
3747.356 368242 434836 482666 503796 496996 466346 418552 360548 297745 
3751.695 234552 176806 130733 102661 96165 110814 141737 181513 223049 
3756.035 259682 287599 305769 314390 313561 303348 282891 251891 213037 
3760.375 172066 136765 114791 111642 127518 158973 199347 241415 279310 
3764.714 309515 331997 348776 362173 373216 380644 381971 373846 354546 
3769.054 325133 289356 253350 223546 203987 195800 197026 203391 209557 
3773.393 211645 207203 196131 181048 165933 154498 149195 150090 154200 
3777.733 157647 155923 146709 130998 112836 97888 91227 95403 109223 129705 
3782.555 152178 172728 189667 203092 214430 225999 238995 252786 265617 
3786.894 274834 278116 274536 264622 249902 233260 217413 204485 196230 
3791.234 193777 196794 204617 215789 227425 236707 241050 238696 230243 
3795.573 218375 208264 206175 217480 245194 288328 342774 400510 451619 
3799.913 486182 495935 477956 437423 387211 342774 316479 313395 330206 
3804.253 358094 384491 397259 387675 353087 298507 235978 180717 143593 
3808.592 129507 136235 158144 188374 221458 254709 287997 322182 357862 
3812.932 394109 428170 455301 471090 472781 461868 445118 433211 435433 
3817.271 458485 501972 560127 622172 676361 710245 714227 686151 632458 
3821.611 567990 509137 468701 450757 452581 465384 479216 486680 482898 
3825.951 468005 446578 425749 411653 408104 414936 428999 445748 460840 
3830.290 471322 477259 480610 484557 493181 509502 534847 568819 609431 
3834.630 652866 694647 729494 752263 759267 748811 722691 686084 646063 
3838.969 609198 580299 560990 549809 543075 536539 525989 508507 483130 
3843.309 450724 414737 379749 351130 333688 331002 344465 373581 416727 
3847.649 471455 535046 606245 683728 765706 849857 930704 999012 1042786 
3851.988 1047170 1000540 900356 759532 603757 462001 355441 290981 264755 
3856.328 266976 287499 317274 350169 382336 411554 436760 457225 472748 
3860.667 483363 489599 491987 491125 486746 478520 466811 452548 439513 
3865.007 433377 439712 462996 503199 555847 612085 661428 693020 699426 
3869.347 680542 643873 603159 571640 556809 557971 567924 576384 573531 
3873.686 555051 522340 482832 446976 424621 420608 434803 462134 494807 
3878.026 524696 544866 551037 542842 524231 501441 482832 475269 482202 
3882.365 503266 534150 567625 595329 609364 605250 583849 552496 522407 
3886.705 505289 508905 534051 575820 625789 673275 708386 724350 718476 
3891.045 693651 656881 617294 583020 559099 547951 548582 559828 579105 
3895.384 604221 633620 665045 696406 725844 751168 771183 785323 794120 
3899.724 799165 801954 803945 805506 805539 801921 791862 773473 746322 
3904.063 712070 674370 638498 608502 587631 576815 574924 579470 587665 
3908.403 596723 604752 611455 616631 621542 627514 635744 647225 662655 
3912.743 681837 703674 726408 747251 763017 771482 771083 762320 748048 
3917.082 732116 718973 711738 711805 718343 729561 742903 756479 769324 
3921.422 781274 791696 800028 804809 804045 796443 782269 762918 742240 
3925.761 724748 713531 711008 717248 730191 746820 764146 779348 790734 
3930.101 797904 801091 800958 798601 794883 790667 786452 782734 779680 
3934.441 777622 776095 775299 775133 775763 777323 780444 785058 791033 
3938.780 798169 805638 811979 815830 815564 809987 798833 782834 763880 
3943.120 745260 730623 722790 723288 731884 746256 763051 778352 789141 
3947.459 794120 793290 788377 781805 775664 771614 770087 770652 772776 
3951.799 775531 778452 780709 781705 781274 778585 773705 767498 760694 
3956.139 754454 750371 748845 750172 753956 759499 765540 771647 776726 
3960.478 779747 780178 777390 771349 763117 754387 747517 745160 748845 
3964.818 758769 774535 793755 814269 834254 852413 868316 882161 894114 
3969.157 903776 910948 915131 915994 913969 910084 904738 898895 892387 
3973.497 884551 874823 862805 848795 833988 820577 810186 804277 803414 
3977.837 807165 814668 824726 836047 847832 859551 870873 881729 891922 
3982.176 901219 908922 914799 917688 916957 912043 903078 890860 877181 
3986.516 864299 854339 849160 849260 853874 861709 870707 879306 886510 
3990.855 892354 897035 901418 905801 910449 915131 920045 924926 930306 
3995.195 936316 943023 950229 957236 963047 967231 969523 969689 968261 
3999.535 965837 962483 958697 
##END=
