
##TITLE=Z345_1_b
##JCAMP-DX=5.01  $$ Nicolet v. 1
##DATATYPE=INFRARED SPECTRUM
##ORIGIN=UniL
##OWNER=Nicolet
##LONGDATE=2011/09/14
##TIME=08:57:28
##SPECTROMETER/DATA SYSTEM=Nicolet iS5
##DATA PROCESSING=
Ratio against background
%Transmittance->Absorbance
Truncated
ElementMultiply or ElementDivide
##COMMENTS=
Number of sample scans: 32
Collection length: 51.24 sec
Sample gain: 2.0
Background collected on: Mer Sep 14 08:50:51 2011 (GMT+02:00);
Number of background scans: 32
Background gain: 2.0
Sample spacing:  1.000
Number of scan points: 12415
Resolution points: 8192
Number of FFT points: 65536
Apodization: N-B fort;
Phase correction: Mertz;
Laser frequency: 15798.0 cm-1
Number of rejected sample scans: 0
Number of rejected background scans: 0
Bench serial number: ASB1000141;
##RESOLUTION=4.000
##XUNITS=1/CM
##YUNITS=ABSORBANCE
##FIRSTX=649.893372
##LASTX=4000.122314
##FIRSTY=0.112770
##MAXX=4000.122314
##MINX=649.893372
##MAXY=0.429325
##MINY=-0.002690
##XFACTOR=1.000000
##YFACTOR=1.000000E-009
##NPOINTS=6950
##DELTAX=0.482117
##ZPD=6100
##XYDATA=(X++(Y..Y))
649.893 112769720 113109744 113589792 114231592 115019192 115906136 
652.786 116837080 117780752 118742984 119764456 120896256 122174584 
655.679 123603408 125158448 126803368 128516320 130303976 132196336 
658.571 134227520 136411424 138733040 141156272 143649600 146207216 
661.464 148859648 151658496 154651008 157848320 161219440 164696576 
664.357 168209072 171706048 175143472 178468464 181569136 184227440 
667.250 186148432 187046928 186785536 185454832 183309264 180625280 
670.142 177585232 174269776 170691904 166853424 162798144 158626000 
673.035 154462640 150439648 146644160 143105376 139811568 136734432 
675.928 133853600 131168928 128692792 126434864 124388968 122530920 
678.820 120823696 119231664 117733296 116320584 114994976 113757592 
681.713 112601192 111511848 110476296 109489880 108562328 107713304 
684.606 106963040 106319560 105773160 105296384 104855944 104426064 
687.498 103993456 103560304 103134232 102716296 102292720 101834800 
690.391 101305048 100674232 99929976 99081280 98151160 97168368 96155336 
693.766 95123752 94078800 93025904 91975784 90947944 89964384 89041320 
697.141 88184888 87389080 86641936 85932016 85255912 84618832 84031248 
700.516 83501552 83030712 82611352 82231760 81880624 81552904 81249984 
703.890 80976200 80732880 80515312 80311912 80110400 79903928 79695808 
707.265 79499472 79333664 79217016 79162272 79176896 79268280 79447432 
710.640 79731792 80140008 80679736 81335360 82055376 82756336 83332600 
714.015 83672096 83692232 83350704 82658328 81670304 80476344 79181944 
717.390 77883472 76668240 75602672 74726408 74059776 73602744 73340920 
720.765 73249648 73300328 73463608 73706776 73993648 74280672 74510920 
724.139 74622888 74554696 74255000 73700216 72899112 71895720 70755552 
727.514 69556344 68373616 67263808 66266304 65400420 64668260 64060568 
730.889 63559964 63146644 62799684 62501780 62241864 62014856 61821620 
734.264 61665168 61546608 61461936 61402200 61354612 61308592 61258608 
737.639 61205920 61157056 61119448 61097024 61088288 61087600 61088440 
741.013 61088400 61090688 61104232 61137868 61197836 61283828 61389264 
744.388 61504272 61620568 61733728 61842708 61949008 62052276 62149560 
747.763 62235900 62307028 62362376 62406480 62446344 62489576 62539132 
751.138 62593052 62646628 62696508 62744512 62798536 62870600 62972016 
754.513 63107752 63275032 63464508 63664800 63868724 64074276 64285116 
757.888 64506508 64742484 64993584 65259472 65542312 65850252 66197692 
761.262 66602804 67080052 67637656 68274920 68986088 69765888 70616664 
764.637 71551776 72600624 73808992 75236280 76963872 79087168 81699176 
768.012 84875128 88627056 92870224 97378864 101802160 105699192 108588792 
771.387 110097592 110035912 108461000 105652272 102045472 98126032 94284104 
774.762 90790976 87764624 85198296 83014704 81121152 79452448 77977472 
778.136 76696152 75619312 74750928 74080880 73587752 73245920 73035312 
781.511 72945160 72969264 73101888 73333904 73651152 74040368 74492864 
784.886 75006944 75586424 76236256 76957424 77745936 78595152 79501344 
788.261 80468008 81508656 82643736 83894000 85278864 86813880 88513080 
791.636 90396696 92493744 94841912 97486016 100465024 103803296 107501728 
795.010 111533776 115842480 120338072 124910424 129423736 133725416 
797.903 137672976 141139136 144035376 146325456 148017696 149150320 
800.796 149765872 149899008 149570800 148801712 147638336 146172368 
803.689 144544864 142952912 141608544 140712400 140437792 140893264 
806.581 142120592 144090304 146707744 149812272 153174512 156529712 
809.474 159566112 161955424 163411184 163691792 162643408 160216960 
812.367 156458688 151505216 145555088 138869728 131737408 124438744 
815.259 117249032 110390880 104022040 98246712 93105176 88593040 84675600 
818.634 81303312 78419960 75968232 73895240 72148728 70678224 69441008 
822.009 68399872 67528256 66811160 66240564 65812276 65520780 65356016 
825.384 65303484 65347352 65471692 65663508 65912492 66207068 66533164 
828.759 66872612 67203072 67503024 67753984 67941352 68055744 68090240 
832.133 68039424 67900600 67677264 67383128 67042084 66689060 66363120 
835.508 66096292 65911064 65813816 65796852 65843232 65934548 66056052 
838.883 66198000 66355512 66525400 66703820 66886252 67068300 67247976 
842.258 67425496 67601576 67773928 67935384 68072288 68167872 68208888 
845.633 68188928 68112136 67991872 67847448 67698336 67560192 67445040 
849.008 67361536 67317000 67319984 67378056 67496552 67675872 67910624 
852.382 68192064 68510152 68858872 69237328 69649328 70099760 70592072 
855.757 71125360 71695296 72296832 72927568 73589712 74290064 75037632 
859.132 75838792 76698200 77616880 78595792 79637768 80748968 81936032 
862.507 83203760 84550912 85967680 87436168 88935624 90445824 91950808 
865.882 93442008 94917440 96382176 97848512 99337184 100878584 102507144 
869.256 104256952 106149240 108180504 110311464 112464320 114535408 
872.149 116395960 117919048 119000288 119559416 119558320 119000416 
875.042 117931352 116432088 114610896 112599640 110526464 108510848 
877.935 106653888 105022896 103659576 102581624 101789888 101276512 
880.827 101030456 101039528 101288896 101759520 102427440 103261224 
883.720 104224808 105282024 106393632 107521680 108630832 109686344 
886.613 110660888 111536608 112309592 112990456 113601848 114173664 
889.505 114734416 115306664 115906000 116541056 117218264 117945744 
892.398 118732400 119587384 120513536 121503328 122532856 123561136 
895.291 124535744 125390920 126058024 126476136 126593072 126380656 
898.183 125840512 125009208 123953920 122764056 121542952 120381968 
901.076 119355992 118516960 117890184 117485040 117301904 117338808 
903.969 117595360 118072184 118768072 119678160 120793240 122102424 
906.862 123595088 125264496 127105624 129112720 131275208 133575496 
909.754 135987680 138484016 141038256 143628768 146240480 148860896 
912.647 151475296 154066368 156613200 159096656 161505440 163838112 
915.540 166102416 168308512 170461008 172552256 174560464 176450368 
918.432 178179360 179706176 180989952 181996912 182702176 183091376 
921.325 183166944 182953616 182503600 181890512 181206048 180555376 
924.218 180039488 179757552 179806720 180271104 181227632 182731904 
927.110 184799888 187387952 190367968 193533296 196577488 199134496 
930.003 200845152 201374992 200503648 198163952 194456320 189639072 
932.896 184078368 178222352 172498288 167271680 162827936 159326176 
935.789 156825136 155300464 154675376 154846768 155705968 157159616 
938.681 159117264 161485216 164161680 167010432 169862304 172531840 
941.574 174809488 176497520 177440016 177530112 176740816 175127856 
944.467 172832208 170052912 167017616 163963664 161084160 158519840 
947.359 156354800 154614880 153288544 152342400 151738512 151438992 
950.252 151408144 151612688 152016352 152581312 153274384 154068256 
953.145 154946976 155904912 156941600 158055536 159240736 160484560 
956.037 161772880 163094352 164445088 165827744 167248496 168711200 
958.930 170213712 171747392 173300896 174866784 176443808 178037952 
961.823 179657520 181307040 182983760 184677760 186375552 188067744 
964.716 189753344 191439616 193138000 194857232 196599040 198357328 
967.608 200123008 201889024 203655552 205429280 207219280 209029904 
970.501 210857296 212689088 214511104 216313488 218096784 219871408 
973.394 221654496 223462912 225308016 227197216 229137952 231142288 
976.286 233231888 235434336 237774768 240270176 242922768 245721200 
979.179 248646864 251683056 254819696 258050944 261368992 264753248 
982.072 268160640 271530176 274785152 277842496 280629568 283082592 
984.964 285149376 286793088 287990944 288745600 289091744 289107040 
987.857 288906080 288617760 288377568 288296000 288444640 288862752 
990.750 289560384 290533696 291774752 293275584 295023776 296995456 
993.643 299155072 301457056 303855008 306316768 308826944 311386848 
996.535 314003712 316680576 319408064 322167680 324938816 327711136 
999.428 330490496 333296768 336153536 339074880 342060416 345096480 
1002.321 348165504 351257696 354376544 357535232 360745984 364008832 
1005.213 367305792 370605856 373881024 377117664 380324704 383526592 
1008.106 386750016 390006048 393282304 396544608 399751232 402871296 
1010.999 405889088 408802912 411611712 414300480 416833536 419164832 
1013.891 421249248 423064000 424613728 425924608 427024736 427928512 
1016.784 428627776 429100320 429325184 429301120 429051680 428618912 
1019.677 428045760 427355776 426549216 425608544 424515744 423267744 
1022.570 421881696 420384576 418797984 417119424 415319008 413344160 
1025.462 411140256 408667872 405907008 402854944 399513056 395875872 
1028.355 391931872 387673344 383114400 378301504 373316384 368266624 
1031.249 363257472 358386048 353729536 349341696 345268128 341546688 
1034.142 338203520 335245408 332644448 330333728 328203328 326121440 
1037.035 323961696 321612992 319005472 316109312 312925728 309478752 
1039.928 305807456 301965696 298016800 294035424 290101088 286278240 
1042.821 282612096 279119328 275791648 272607712 269548896 266610928 
1045.714 263806912 261161472 258697536 256429024 254355248 252464624 
1048.607 250742432 249179040 247772000 246522672 245429584 244482208 
1051.500 243660240 242940192 242302240 241737104 241247104 240838832 
1054.393 240513600 240258912 240043792 239822544 239547232 239170640 
1057.286 238652784 237961552 237063984 235925440 234513840 232803744 
1060.179 230790208 228494672 225967536 223277136 220497936 217704944 
1063.072 214960352 212318032 209829312 207540976 205499728 203746912 
1065.965 202308448 201191552 200381424 199846608 199542672 199419488 
1068.858 199429632 199522080 199644240 199743280 199763808 199658176 
1071.751 199394976 198961520 198365648 197627728 196773040 195821840 
1074.645 194786560 193675296 192496368 191264224 190001760 188734848 
1077.538 187489328 186285072 185133488 184041328 183014656 182062368 
1080.431 181196832 180429904 179767664 179207392 178736992 178340944 
1083.324 178004400 177719808 177487536 177312352 177198672 177145968 
1086.217 177148160 177196896 177285840 177414832 177589120 177816288 
1089.110 178100064 178437328 178818320 179231840 179673008 180148272 
1092.003 180676960 181284304 181995808 182827440 183780960 184844336 
1094.896 185996112 187210848 188459648 189713952 190943248 192113408 
1097.789 193191664 194149760 194967360 195635184 196149216 196502768 
1100.682 196679280 196646864 196360512 195777008 194862304 193605792 
1103.575 192023632 190156816 188063408 185806144 183452912 181068624 
1106.468 178712048 176439232 174294240 172305296 170482608 168815728 
1109.361 167280304 165841664 164467776 163132224 161815728 160505760 
1112.254 159191168 157860480 156503440 155113600 153692880 152253184 
1115.147 150814752 149400912 148030928 146718336 145468848 144283312 
1118.041 143161200 142102016 141103536 140157504 139246480 138342240 
1120.934 137408240 136409920 135321984 134133744 132851080 131491112 
1123.827 130074144 128613872 127114680 125569984 123968288 122297120 
1126.720 120549352 118726352 116837552 114899984 112933768 110962424 
1129.613 109007568 107085848 105207592 103373912 101576744 99801784 98033336 
1132.988 96260744 94482368 92708256 90958976 89262888 87647512 86137984 
1136.363 84754128 83507896 82407248 81456488 80657120 80008088 79505168 
1139.739 79140080 78900736 78772008 78739000 78785992 78898432 79061808 
1143.114 79258376 79467648 79666344 79828664 79932008 79957904 79893776 
1146.489 79734496 79480096 79136384 78713936 78229728 77708360 77179400 
1149.864 76678160 76241352 75899832 75679968 75599160 75666120 75883576 
1153.240 76248928 76755296 77389576 78132336 78956640 79825680 80698456 
1156.615 81531528 82279608 82903328 83365840 83633776 83680256 83484080 
1159.990 83032672 82324784 81370288 80189664 78808040 77255000 75560000 
1163.365 73749896 71852792 69896672 67908424 65916152 63944580 62013440 
1166.740 60138156 58328416 56590272 54928692 53348104 51853816 50451536 
1170.116 49145744 47939388 46833544 45827852 44922212 44117252 43415128 
1173.491 42819880 42335704 41966284 41714832 41583688 41575888 41695900 
1176.866 41950556 42347980 42897888 43609468 44491040 45550712 46795864 
1180.241 48234612 49875748 51726928 53793116 56074828 58565260 61248460 
1183.617 64095780 67066716 70100232 73113336 76008248 78665720 80962984 
1186.992 82794336 84076040 84767056 84871992 84440104 83554448 82318216 
1190.367 80851568 79268480 77671280 76146064 74747896 73500272 72393232 
1193.742 71387520 70419912 69414728 68303424 67029828 65563156 63901620 
1197.118 62070240 60115856 58095108 56072412 54107356 52247740 50531076 
1200.493 48979068 47599116 46386944 45329092 44407096 43599136 42885704 
1203.868 42249036 41673508 41146640 40656536 40191924 39743668 39305240 
1207.243 38874572 38454500 38052592 37679280 37345320 37061416 36836804 
1210.619 36679328 36597096 36598356 36691224 36883256 37179720 37582408 
1213.994 38090716 38701428 39410768 40213912 41105260 42076480 43114496 
1217.369 44202204 45317876 46437120 47537780 48599472 49606040 50546784 
1220.744 51415376 52211420 52940272 53614824 54253972 54879628 55514996 
1224.120 56178892 56882524 57629364 58415472 59232704 60070576 60919936 
1227.495 61772460 62620068 63454540 64267292 65049848 65796696 66505820 
1230.870 67180568 67828696 68463672 69103824 69771448 70496880 71316728 
1234.245 72271232 73406528 74767736 76394168 78321464 80576816 83181248 
1237.621 86151152 89497960 93225816 97326536 101777320 106534496 111530688 
1240.996 116685760 121902592 127073616 132093920 136852784 141242688 
1243.889 145171680 148561264 151360736 153548944 155130176 156125232 
1246.782 156558208 156449504 155808224 154634320 152921616 150662864 
1249.675 147851872 144484656 140563488 136101216 131129416 125702816 
1252.568 119905488 113849224 107654760 101452592 95366480 89495640 83922784 
1255.943 78704520 73869472 69426544 65364332 61657912 58271952 55167792 
1259.319 52307984 49657004 47186884 44877276 42713920 40689504 38800800 
1262.694 37046688 35426240 33937512 32576922 31339768 30220384 29213124 
1266.069 28312020 27510868 26802112 26177768 25629322 25149180 24732492 
1269.444 24377318 24084248 23855466 23692792 23596962 23567506 23604096 
1272.820 23707594 23880706 24127786 24451624 24851660 25320652 25844410 
1276.195 26401016 26962076 27497278 27973628 28358104 28622856 28744584 
1279.570 28708796 28512626 28165062 27686138 27102066 26444822 25745466 
1282.945 25031088 24326154 23649580 23016124 22437212 21920402 21469302 
1286.321 21083536 20759486 20491074 20272302 20099060 19968908 19880936 
1289.696 19834042 19824782 19847430 19894602 19958986 20035350 20121654 
1293.071 20218318 20326568 20446826 20577504 20716076 20860394 21010012 
1296.446 21167472 21337240 21524032 21730862 21958076 22204272 22467568 
1299.822 22748096 23048406 23372944 23727156 24114824 24537478 24994866 
1303.197 25486256 26012078 26574606 27176980 27820956 28505410 29224786 
1306.572 29969674 30727398 31484310 32225914 32936864 33601868 34204504 
1309.947 34729296 35164636 35504292 35749264 35906328 35986560 36001500 
1313.323 35959488 35865052 35718900 35520116 35268124 34964200 34611436 
1316.698 34214864 33780152 33313420 32823034 32319102 31814434 31324026 
1320.073 30861386 30437122 30056624 29719922 29423652 29163938 28938804 
1323.448 28750000 28601586 28498404 28444132 28440524 28487364 28584848 
1326.823 28734602 28939440 29201786 29521524 29893458 30307316 30750088 
1330.199 31209086 31674556 32141808 32609638 33078152 33546526 34010960 
1333.574 34464848 34900496 35309848 35685012 36018956 36303732 36530484 
1336.949 36691548 36781624 36801564 36759336 36670960 36557372 36439668 
1340.324 36336584 36260796 36219016 36214656 36249524 36325744 36445684 
1343.700 36610828 36820752 37073176 37364712 37693664 38059464 38463368 
1347.075 38905624 39382544 39885592 40400532 40910220 41399076 41854076 
1350.450 42266712 42631636 42944156 43199032 43390524 43514048 43568404 
1353.825 43557488 43490092 43377564 43231568 43062464 42878280 42686100 
1357.201 42494808 42315436 42161728 42048296 41987272 41987672 42055416 
1360.576 42194700 42412564 42720316 43131544 43659840 44310472 45075760 
1363.951 45932508 46845428 47771884 48662140 49466400 50135020 50618072 
1367.326 50876116 50883752 50636872 50153060 49468740 48631196 47684160 
1370.702 46666168 45605652 44520520 43427652 42347136 41305232 40338424 
1374.077 39485840 38780688 38245192 37885780 37698144 37674040 37809864 
1377.452 38110068 38586944 39255584 40128068 41208020 42486516 43938856 
1380.827 45518992 47160920 48769820 50225884 51407876 52197216 52503984 
1384.203 52280100 51516800 50246972 48537812 46501912 44284348 42044212 
1387.578 39939640 38087208 36546740 35325196 34388232 33680812 33139906 
1390.953 32709376 32342732 32005250 31677052 31351768 31036624 30748560 
1394.328 30511654 30349418 30276654 30297012 30400446 30566610 30764456 
1397.704 30956878 31106312 31179036 31157572 31046340 30871312 30670784 
1401.079 30484072 30345616 30278218 30297046 30412138 30630284 30954528 
1404.454 31379334 31886708 32441228 32992560 33488364 33880692 34139908 
1407.829 34261148 34262548 34179660 34053748 33927516 33834624 33797412 
1411.205 33830112 33939084 34126004 34387840 34716732 35100112 35521876 
1414.580 35967804 36428608 36902268 37393060 37907436 38449432 39018528 
1417.955 39610656 40223724 40862600 41541828 42279276 43084232 43955100 
1421.330 44877420 45832564 46803836 47786420 48789212 49832784 50940380 
1424.706 52127572 53397340 54740468 56143940 57598760 59105844 60672968 
1428.081 62308600 64015336 65786520 67609512 69473976 71379680 73338840 
1431.456 75367624 77479584 79674904 81941112 84252000 86577352 88887888 
1434.831 91145144 93303808 95308288 97103928 98658488 99984480 101144704 
1438.207 102221688 103299168 104440272 105673576 106989824 108335080 
1441.100 109619296 110711256 111458528 111719776 111373384 110349392 
1443.993 108641384 106307496 103457160 100222056 96749176 93172024 89610072 
1447.368 86182184 82994528 80135024 77656584 75562808 73813000 72338384 
1450.743 71071040 69960624 68986752 68155240 67484096 66984900 66650040 
1454.118 66449256 66335552 66260636 66182488 66083944 65978752 65906628 
1457.494 65908672 66005364 66192672 66451648 66762896 67113080 67495632 
1460.869 67905712 68334096 68765544 69175856 69533584 69808720 69978528 
1464.244 70038016 70003016 69908704 69797008 69702272 69650384 69656840 
1467.619 69731768 69885968 70131224 70478568 70936376 71506576 72183504 
1470.995 72949672 73779224 74641536 75511032 76377936 77255672 78180648 
1474.370 79198296 80359952 81714448 83298080 85133440 87223592 89552448 
1477.745 92089440 94797152 97641904 100590312 103616960 106706536 109852896 
1481.120 113064944 116364296 119782488 123347688 127076088 130960808 
1484.013 134969968 139038880 143062912 146910768 150413792 153373856 
1486.906 155592880 156873456 157046384 155997904 153688816 150185856 
1489.800 145671296 140445856 134872176 129290552 123976920 119090248 
1492.693 114684888 110761960 107297176 104280112 101740384 99737080 98337736 
1496.068 97570840 97387160 97635088 98074872 98448504 98507104 98057632 
1499.443 96999736 95316336 93077752 90410528 87478640 84439056 81402056 
1502.818 78432344 75524560 72607552 69557080 66221968 62477028 58297040 
1506.194 53835044 49409484 45374372 41953440 39170144 36899060 34975264 
1509.569 33256720 31653672 30127682 28676442 27315594 26058518 24910746 
1512.944 23865512 22908984 22024928 21197808 20413172 19655568 18912748 
1516.319 18179278 17462602 16782200 16162148 15620219 15156844 14752370 
1519.695 14369301 13967715 13520149 13031419 12540306 12102213 11757933 
1523.070 11514897 11349128 11220754 11093235 10943324 10769146 10585803 
1526.445 10416044 10276037 10167822 10081846 10005821 9934251 9871777 
1529.820 9829918 9820055 9844627 9894284 9949202 9986293 9992361 9971171 
1533.678 9945473 9943540 9986021 10075776 10200657 10341352 10479989 
1537.053 10605427 10712054 10797713 10858520 10885427 10865484 10790443 
1540.428 10666921 10517532 10370908 10248116 10151881 10068146 9972086 
1543.803 9842357 9668789 9459698 9236289 9024937 8843207 8693598 8565332 
1547.661 8441460 8308877 8163335 8012442 7870440 7751557 7660932 7593895 
1551.518 7538600 7484188 7426245 7368612 7321231 7294981 7295925 7322276 
1555.376 7366455 7418256 7468716 7508561 7526058 7505932 7432210 7300878 
1559.233 7131927 6966307 6844776 6787894 6795231 6850667 6932740 7019239 
1563.091 7094507 7151497 7193773 7233122 7283391 7354222 7446266 7552119 
1566.948 7660224 7761677 7851985 7932931 8010383 8090988 8179777 8278887 
1570.805 8390449 8518158 8667300 8842531 9045404 9271998 9512155 9752141 
1574.663 9979783 10189395 10387537 10591405 10822510 11093846 11407224 
1578.038 11756434 12133525 12534781 12960612 13414949 13900484 14415059 
1581.413 14951542 15497993 16041419 16571378 17079722 17559332 18002866 
1584.789 18400250 18740568 19014786 19219108 19357144 19440332 19486974 
1588.164 19517716 19552858 19611126 19707746 19855824 20067622 20353304 
1591.539 20720420 21171124 21700628 22297356 22945660 23631422 24344060 
1594.914 25079880 25841386 26634844 27467698 28344982 29268344 30234344 
1598.290 31233722 32248862 33254392 34217948 35099648 35860876 36466336 
1601.665 36887408 37107928 37123196 36942744 36587508 36089272 35485168 
1605.040 34808444 34087224 33340360 32576564 31798784 31006376 30197474 
1608.415 29370930 28527168 27669116 26804438 25946510 25114914 24334038 
1611.791 23626348 23007074 22480654 22039012 21664334 21332508 21019228 
1615.166 20703462 20373270 20031186 19694572 19389744 19141398 18963590 
1618.541 18856200 18807686 18798518 18806580 18810212 18790076 18734168 
1621.916 18639630 18514650 18375396 18240784 18126212 18037852 17974130 
1625.292 17927722 17890430 17854730 17814476 17765666 17705298 17632516 
1628.667 17548948 17459360 17370344 17288548 17218596 17161026 17111496 
1632.042 17060594 16995330 16900550 16760090 16560467 16295018 15969845 
1635.417 15607166 15241325 14908161 14630560 14414581 14251296 14124800 
1638.792 14016923 13912356 13802274 13684525 13564074 13449945 13351289 
1642.168 13272948 13213065 13163027 13109204 13036506 12929957 12779139 
1645.543 12580313 12338930 12069882 11795416 11540825 11326987 11166899 
1648.918 11064105 11013226 11000788 11005104 10996574 10934966 10776822 
1652.293 10493465 10097819 9656117 9253212 8945918 8740656 8611767 8525794 
1656.151 8456427 8388253 8314821 8236707 8157156 8080050 8006907 7936880 
1660.008 7866662 7792103 7708080 7610147 7495751 7365781 7226147 7086997 
1663.866 6960954 6859116 6787355 6745591 6727418 6722135 6716111 6696090 
1667.723 6652248 6579681 6480522 6362354 6237362 6117345 6012311 5928498 
1671.581 5868444 5830528 5808566 5792616 5768977 5723180 5645901 5537860 
1675.438 5413172 5292444 5195456 5131379 5097652 5083337 5075962 5067011 
1679.295 5054507 5043914 5044317 5063022 5100099 5146031 5181104 5181339 
1683.153 5125110 5005132 4837272 4657923 4505095 4399212 4340574 4316446 
1687.010 4311459 4312263 4309485 4298442 4277026 4245840 4207832 4168857 
1690.868 4136608 4118779 4121388 4145439 4186052 4232055 4268894 4282045 
1694.725 4262704 4214490 4155275 4110417 4098843 4125268 4179127 4241156 
1698.583 4286429 4292351 4245907 4152866 4040414 3942735 3886165 3877239 
1702.440 3907294 3961259 4023324 4079879 4120953 4141793 4144034 4135170 
1706.297 4125035 4122258 4131758 4153903 4185885 4223523 4264210 4306640 
1710.155 4352255 4403229 4461474 4526958 4597776 4670315 4740688 4806650 
1714.012 4867093 4922451 4972352 5014517 5043948 5054909 5044183 5014986 
1717.870 4978386 4949998 4942994 4964242 5012171 5079783 5156895 5233585 
1721.727 5301668 5355236 5390124 5404349 5396767 5367681 5318204 5251493 
1725.584 5171615 5082633 4988508 4890683 4789061 4682372 4570452 4456519 
1729.442 4347502 4252365 4178558 4128747 4097673 4071584 4029912 3952599 
1733.299 3827061 3658286 3470906 3300566 3175150 3104897 3083573 3096187 
1737.157 3126289 3158762 3182426 3190571 3181625 3158562 3127790 3096621 
1741.014 3070158 3050905 3038392 3030050 3022676 3013201 3000155 2983774 
1744.872 2965992 2949045 2935235 2925094 2918122 2912084 2904245 2891970 
1748.729 2872558 2843841 2803354 2749433 2682549 2605908 2526882 2454468 
1752.586 2396691 2358478 2339123 2333160 2330995 2322666 2299849 2259379 
1756.444 2204759 2145218 2091611 2051860 2028457 2017838 2013577 2008018 
1760.301 1995003 1971936 1939651 1901844 1863807 1830731 1806775 1794331 
1764.159 1793932 1804412 1822180 1841778 1857052 1862742 1856885 1842311 
1768.016 1826672 1818786 1824609 1844673 1872525 1897817 1908100 1895188 
1771.874 1858283 1805477 1749783 1703177 1671910 1655446 1648860 1646964 
1775.731 1646998 1648761 1653982 1663728 1676999 1689672 1696724 1693431 
1779.588 1678563 1654348 1626643 1601667 1583409 1571704 1563191 1552749 
1783.446 1535791 1510254 1476674 1438608 1400113 1364746 1335597 1314426 
1787.303 1302628 1301465 1311003 1330046 1354741 1379238 1396290 1399149 
1791.161 1383991 1351550 1307380 1259293 1215365 1180910 1157355 1143402 
1795.018 1136791 1135429 1138020 1143502 1151142 1159814 1168252 1175063 
1798.875 1179183 1179914 1177256 1171375 1163069 1153202 1143701 1136691 
1802.733 1134598 1139050 1150744 1168418 1189781 1211976 1232743 1251484 
1806.590 1268698 1286111 1304389 1323366 1341114 1354342 1360591 1358863 
1810.448 1350287 1337790 1325094 1314393 1307048 1302163 1298341 1294552 
1814.305 1290996 1288737 1289866 1296347 1309075 1328052 1352681 1382063 
1818.163 1415537 1452338 1491801 1532765 1573699 1613240 1650557 1685448 
1822.020 1718213 1748619 1775899 1798823 1815991 1827903 1837319 1849465 
1825.877 1870063 1903108 1949036 2004756 2063678 2118613 2164265 2199231 
1829.735 2226806 2253051 2284893 2326264 2377401 2435175 2495789 2555745 
1833.592 2613275 2667646 2718990 2766972 2810291 2847176 2875660 2894839 
1837.450 2905012 2907914 2905413 2899709 2892404 2884432 2876394 2867855 
1841.307 2857716 2843341 2821229 2787580 2740763 2682682 2620175 2563810 
1845.165 2523283 2504553 2507419 2526815 2554011 2580709 2601742 2615742 
1849.022 2625509 2635009 2647911 2664213 2681649 2695918 2703453 2703253 
1852.879 2697619 2690650 2686583 2687883 2694484 2704420 2715223 2725459 
1856.737 2735261 2745798 2757969 2771674 2785246 2796451 2804054 2808323 
1860.594 2811258 2815827 2824197 2837104 2853713 2872658 2893338 2917355 
1864.452 2947411 2986143 3034288 3088845 3143977 3191138 3223149 3235567 
1868.309 3228991 3208529 3181392 3154256 3130527 3110170 3090380 3067956 
1872.167 3039793 3004159 2960521 2908849 2849444 2782845 2709755 2631743 
1876.024 2550345 2467697 2384564 2301081 2216948 2131566 2044869 1958422 
1879.881 1874389 1795129 1722072 1654814 1591823 1531235 1471853 1414340 
1883.739 1360724 1313495 1274447 1243775 1219618 1199516 1180944 1162172 
1887.596 1142771 1122473 1100781 1076765 1050126 1021198 992736 968460 
1891.454 952421 947008 951790 962914 974803 982640 983703 979053 972677 
1895.793 969091 971847 980946 994131 1007448 1018308 1025880 1031161 1036143 
1900.133 1042155 1048798 1054743 1058330 1059559 1060190 1063445 1072181 
1903.990 1087162 1106162 1124732 1138053 1142737 1138651 1127921 1113670 
1907.848 1098788 1083840 1068295 1050658 1030929 1010703 992437 979651 
1911.705 973176 972578 975633 980282 985928 993500 1004691 1020135 1037704 
1916.045 1053082 1060124 1054178 1034316 1004725 972810 945580 927251 916625 
1920.384 909254 898994 881862 857759 830669 806435 790236 784527 787979 
1924.724 797605 810120 823896 839034 856065 874591 892619 906797 914135 
1929.063 913836 907893 900322 895276 895176 899393 905037 909188 910383 
1933.403 909951 911612 918086 930604 947075 963147 974803 980149 980880 
1937.743 981411 986725 998481 1015153 1032224 1043517 1044812 1035180 
1941.600 1017279 995392 973674 954612 938275 924760 915463 912674 919946 
1945.940 938773 967929 1002931 1036210 1062482 1080053 1091546 1102741 
1949.797 1120247 1146624 1179847 1214335 1242911 1260955 1268166 1267867 
1953.655 1264876 1262749 1262184 1260058 1252648 1236997 1213305 1184997 
1957.512 1156225 1130944 1110647 1094469 1080485 1067996 1058330 1054045 
1961.369 1057134 1068893 1087162 1109218 1132539 1156824 1183502 1213638 
1965.227 1246733 1278069 1300867 1307380 1293788 1262882 1222875 1185097 
1969.084 1158916 1149780 1156325 1173900 1197323 1223373 1252448 1286344 
1972.942 1324829 1364114 1397154 1415969 1418329 1409487 1401509 1410351 
1976.799 1449146 1520928 1617530 1721573 1813662 1878715 1909997 1908500 
1980.656 1881943 1840048 1790505 1739736 1692600 1652918 1624149 1609449 
1984.514 1608052 1617264 1630900 1642474 1647330 1645168 1638882 1633993 
1988.371 1635224 1645002 1661133 1681090 1701681 1721972 1745059 1773803 
1992.229 1811266 1857318 1907834 1956891 1999263 2031886 2054390 2069005 
1996.086 2078360 2083354 2084453 2081357 2074032 2064577 2055522 2049929 
1999.944 2048131 2048098 2045202 2035481 2016873 1990176 1961118 1935158 
2003.801 1918151 1912427 1917885 1932162 1952598 1977794 2007452 2040375 
2007.658 2074665 2104896 2126571 2136128 2134862 2127104 2120412 2121311 
2011.516 2132698 2153409 2178817 2204326 2228604 2253484 2283793 2323399 
2015.373 2373770 2431310 2490023 2544013 2591109 2633209 2676681 2725692 
2019.231 2781878 2841073 2896273 2941005 2973232 2996185 3017572 3044965 
2023.088 3082138 3125254 3166439 3195644 3206726 3199716 3180424 3159029 
2026.946 3144811 3143243 3155024 3177687 3207694 3243145 3285275 3334054 
2030.803 3390520 3453071 3519739 3589291 3663499 3746208 3841870 3951964 
2034.660 4072655 4193747 4303361 4390711 4450192 4484975 4502450 4513833 
2038.518 4527728 4549190 4578187 4612009 4647273 4681568 4715532 4749029 
2042.375 4782059 4812982 4839082 4858080 4869539 4875068 4878419 4883311 
2046.233 4892894 4908343 4929622 4956332 4987401 5021724 5056217 5086187 
2050.090 5105296 5107709 5089874 5052931 5002786 4948021 4897619 4858046 
2053.948 4830169 4810435 4792981 4772344 4745947 4715934 4686559 4661908 
2057.805 4644158 4631499 4620448 4607421 4591180 4573466 4557293 4546880 
2061.662 4542862 4543264 4543230 4537638 4523208 4500509 4472186 4442359 
2065.520 4415011 4391413 4371398 4353727 4337295 4322034 4308213 4296032 
2069.377 4284488 4271371 4254272 4232356 4207096 4181669 4160526 4147346 
2073.235 4142930 4145205 4150324 4154037 4153435 4148818 4140589 4131223 
2077.092 4121589 4111788 4100516 4087271 4072621 4058173 4046099 4037704 
2080.949 4032454 4028240 4022522 4013392 4001554 3988980 3979383 3975704 
2084.807 3978580 3985937 3995066 4002423 4005801 4005667 4002992 3998879 
2088.664 3993427 3984767 3970388 3948520 3918762 3883892 3847686 3815429 
2092.522 3790861 3776689 3773748 3781903 3800588 3828332 3863231 3901878 
2096.379 3938990 3968816 3986539 3989582 3978948 3958919 3935446 3913613 
2100.237 3896663 3885229 3877673 3871388 3864535 3856144 3845781 3834148 
2104.094 3820744 3805802 3790126 3775519 3765326 3763053 3771041 3788388 
2107.951 3811451 3833747 3848556 3852233 3844778 3829769 3813356 3801156 
2111.809 3795841 3796878 3800721 3803429 3801891 3795641 3786215 3775954 
2115.666 3767030 3760212 3754764 3750052 3744838 3739156 3732974 3726357 
2119.524 3718837 3709446 3697583 3683882 3671184 3662563 3661695 3670449 
2123.381 3687157 3707442 3725287 3735714 3734945 3722680 3701226 3674192 
2127.239 3644854 3615685 3587687 3561496 3537076 3514862 3495522 3478922 
2131.096 3464794 3453505 3445356 3442083 3447126 3463023 3491414 3530395 
2134.953 3574926 3617924 3653508 3677834 3691735 3698686 3703465 3708411 
2138.811 3713457 3715128 3708878 3692771 3666373 3632926 3596207 3559358 
2142.668 3522178 3483231 3440212 3393191 3345908 3304473 3275327 3261873 
2146.526 3263442 3273724 3284942 3290350 3286577 3274792 3258167 3239239 
2150.383 3218509 3193474 3160364 3117078 3063585 3003625 2941339 2879829 
2154.240 2819062 2757436 2695118 2638543 2601842 2604708 2669447 2808223 
2158.098 3019807 3283573 3566139 3832176 4052219 4211746 4311292 4361391 
2161.955 4376084 4369993 4354330 4335789 4319792 4310121 4308749 4315776 
2165.813 4329062 4344691 4358045 4366244 4367617 4363768 4356672 4348105 
2169.670 4337830 4325280 4309016 4289039 4267690 4248818 4236706 4234364 
2173.528 4242193 4257986 4279033 4301822 4324410 4346164 4365809 4382075 
2177.385 4391882 4393355 4385289 4370796 4354932 4344323 4344959 4358547 
2181.242 4382879 4412333 4439815 4461206 4475232 4484975 4493846 4505698 
2185.100 4521768 4540183 4559135 4575810 4590142 4602666 4614855 4626677 
2188.957 4637058 4644024 4645933 4642952 4637293 4632169 4630963 4635384 
2192.815 4645464 4659463 4676645 4696909 4722130 4754924 4795929 4843906 
2196.672 4895609 4945474 4989312 5025511 5055312 5081627 5107139 5132084 
2200.530 5154347 5170039 5176376 5173258 5164440 5156224 5154615 5163701 
2204.387 5183686 5211116 5241432 5270274 5296100 5319780 5343663 5369224 
2208.244 5396968 5425686 5453367 5478968 5503296 5528095 5555547 5586725 
2212.102 5620424 5654293 5685915 5712974 5736308 5757461 5778815 5801951 
2215.959 5826902 5852021 5875195 5894910 5910562 5922620 5931857 5938340 
2219.817 5941430 5940590 5934678 5924669 5912409 5900452 5890577 5883625 
2223.674 5878889 5875027 5871870 5870090 5871870 5880132 5896052 5918488 
2227.531 5944588 5969244 5988593 6000721 6006601 6009490 6013488 6021886 
2231.389 6036367 6057131 6083171 6113649 6148430 6187382 6229597 6273565 
2235.246 6316125 6354419 6386261 6411917 6432935 6452776 6473963 6497674 
2239.104 6522968 6547926 6570531 6590076 6608309 6627317 6650296 6678122 
2242.961 6710526 6744783 6777898 6807785 6833837 6857736 6881939 6909544 
2246.819 6942234 6980651 7024122 7070932 7118892 7165274 7207315 7242555 
2250.676 7268970 7286052 7295824 7301957 7309842 7324938 7350784 7388463 
2254.533 7435986 7489076 7542544 7591703 7633414 7666227 7689767 7704202 
2258.391 7710104 7708519 7700390 7688788 7676951 7668486 7666496 7672870 
2262.248 7687608 7709227 7735063 7762688 7789506 7814098 7835623 7853841 
2266.106 7869024 7881912 7893756 7906172 7920581 7937824 7957700 7979265 
2269.963 8000494 8020508 8038160 8054194 8069923 8087308 8107799 8132172 
2273.821 8159992 8190819 8223301 8257307 8291754 8326777 8361703 8395583 
2277.678 8428149 8458826 8487849 8516400 8545596 8576720 8610179 8646343 
2281.535 8684404 8724260 8765709 8808919 8854129 8901340 8949435 8996926 
2285.393 9042224 9084379 9123054 9159193 9193543 9226779 9258560 9287670 
2289.250 9312856 9333134 9348944 9362114 9375724 9392890 9415778 9445509 
2293.108 9481540 9522113 9565602 9610010 9653983 9696605 9736926 9774609 
2296.965 9809142 9840798 9870659 9900182 9931574 9966425 10005788 10049495 
2300.823 10096632 10145843 10195807 10245504 10294901 10343932 10392797 
2304.198 10441702 10491122 10541328 10593273 10648584 10708725 10775294 
2307.573 10849177 10930379 11017984 11110536 11206202 11302841 11398753 
2310.948 11492067 11581386 11665787 11745133 11820032 11892288 11963671 
2314.323 12036837 12113797 12195780 12283743 12378066 12478410 12584269 
2317.699 12694691 12808213 12922890 13037394 13150117 13260854 13369740 
2321.074 13477458 13583526 13686338 13781820 13864940 13931139 13977057 
2324.449 14002995 14012679 14013056 14012132 14017881 14036497 14071098 
2327.824 14122198 14187547 14263588 14346013 14430576 14513443 14592214 
2331.200 14665173 14732386 14795426 14856967 14919614 14985872 15056256 
2334.575 15130322 15206014 15280620 15352494 15420843 15486421 15550361 
2337.950 15613899 15677685 15741035 15802676 15861301 15915535 15964620 
2341.325 16007967 16044376 16071504 16085429 16080718 16051251 15991949 
2344.701 15900068 15777042 15630145 15472893 15322905 15200283 15125210 
2348.076 15113409 15174583 15311682 15519936 15787866 16098289 16432814 
2351.451 16773246 17104226 17416626 17705920 17971542 18214798 18436998 
2354.826 18639180 18821770 18985742 19132776 19265242 19385450 19494912 
2358.202 19593656 19680912 19756152 19819058 19870842 19913332 19948544 
2361.577 19977616 20001312 20019424 20032194 20040832 20047182 20053636 
2364.952 20061686 20071820 20082784 20092642 20098888 20099824 20095104 
2368.327 20085144 20070778 20052840 20031082 20005268 19974736 19939454 
2371.703 19899944 19857418 19813614 19769816 19727616 19687984 19651790 
2375.078 19620070 19593690 19573378 19559410 19551958 19550640 19555424 
2378.453 19566758 19585406 19612410 19648912 19695508 19752130 19817846 
2381.828 19891722 19972794 20060264 20153826 20252928 20356464 20463080 
2385.204 20570418 20676668 20779922 20879514 20975202 21067432 21156826 
2388.579 21243424 21327010 21407340 21484028 21557110 21627000 21694046 
2391.954 21758732 21820814 21879944 21935702 21988016 22037372 22084434 
2395.329 22130002 22174528 22218186 22260282 22300462 22338762 22375774 
2398.705 22412648 22451272 22492972 22538372 22587514 22639974 22694784 
2402.080 22751552 22810110 22870738 22934202 23001066 23071748 23146634 
2405.455 23225658 23308612 23395220 23484746 23576460 23669664 23763972 
2408.830 23859316 23956502 24056022 24158610 24264480 24372832 24482998 
2412.206 24593752 24704852 24816296 24928924 25043688 25160590 25279102 
2415.581 25397334 25512854 25623942 25729118 25828270 25922416 26013168 
2418.956 26102216 26191070 26280860 26372708 26467816 26567278 26671696 
2422.331 26781318 26895798 27013694 27133384 27253250 27372052 27489972 
2425.707 27607144 27724880 27844024 27965888 28091534 28221988 28358316 
2429.082 28501162 28650852 28806718 28967634 29131870 29298046 29465278 
2432.457 29633500 29803524 29976206 30151692 30329770 30509238 30688742 
2435.832 30867362 31045272 31223682 31404198 31588882 31778994 31974972 
2439.208 32176920 32384176 32596424 32813742 33036106 33263836 33497236 
2442.583 33736424 33981504 34232576 34489560 34751368 35016708 35283432 
2445.958 35548484 35809420 36064572 36313532 36557444 36797960 37036408 
2449.333 37273364 37507304 37736164 37957660 38170084 38373124 38568044 
2452.708 38756380 38939764 39118984 39292980 39460260 39618748 39766728 
2456.084 39902952 40027376 40140168 40242304 40334424 40417624 40492468 
2459.459 40559872 40620080 40672876 40717708 40753588 40779828 40796172 
2462.834 40803412 40802612 40795004 40781652 40761888 40734632 40697764 
2466.209 40649188 40587448 40512004 40423440 40323192 40212968 40094452 
2469.585 39969500 39839940 39706744 39570948 39433156 39293272 39150528 
2472.960 39004100 38853336 38698312 38539728 38379496 38219540 38061492 
2476.335 37906428 37754488 37605316 37458140 37312064 37166544 37021108 
2479.710 36875684 36730236 36584732 36439812 36296312 36155200 36017196 
2483.086 35882436 35750556 35620020 35489660 35358516 35226872 35096020 
2486.461 34968332 34846032 34730944 34623244 34521884 34425068 34330672 
2489.836 34236880 34142524 34047408 33951340 33854328 33756264 33657540 
2493.211 33558300 33459372 33361576 33265554 33171416 33078224 32984514 
2496.587 32888398 32788016 32682188 32570600 32453046 32329668 32200862 
2499.962 32066178 31925898 31780458 31630650 31477898 31323884 31170032 
2503.337 31017444 30865974 30715840 30566434 30417574 30269442 30122214 
2506.712 29977128 29834540 29695050 29559152 29426878 29297622 29170778 
2510.088 29044890 28918546 28790678 28660976 28530070 28400054 28273684 
2513.463 28153856 28042790 27941364 27849076 27764474 27685854 27612018 
2516.838 27542500 27477546 27418038 27364430 27316688 27274136 27236314 
2520.213 27202590 27172748 27147070 27125448 27107498 27092296 27078402 
2523.589 27064966 27051038 27037038 27023674 27011332 27000402 26989752 
2526.964 26977870 26963240 26944660 26921814 26895976 26868692 26841552 
2530.339 26815434 26790518 26765990 26740970 26714612 26686706 26657110 
2533.714 26626178 26593698 26559742 26524272 26487716 26450842 26415278 
2537.090 26382322 26353344 26328700 26308600 26292794 26281072 26273362 
2540.465 26269878 26271040 26276600 26285752 26297438 26310008 26322398 
2543.840 26333594 26343626 26352218 26359260 26364364 26366688 26366194 
2547.215 26362886 26357852 26352570 26348344 26346374 26345774 26345458 
2550.591 26343452 26338276 26329440 26317260 26303636 26290400 26279312 
2553.966 26271250 26266322 26263822 26262836 26262590 26261958 26260584 
2557.341 26257558 26252736 26245662 26237002 26227218 26217220 26207648 
2560.716 26198990 26191106 26183786 26176746 26170344 26165416 26162882 
2564.092 26163586 26167668 26174356 26182694 26191564 26200362 26209900 
2567.467 26221690 26237670 26259282 26286984 26319970 26356512 26394856 
2570.842 26433660 26472608 26512332 26554106 26599088 26648584 26702986 
2574.217 26762326 26826888 26896292 26970044 27047616 27127530 27208480 
2577.593 27288848 27367606 27444578 27520224 27595810 27672366 27750876 
2580.968 27831838 27914934 27999602 28085134 28170896 28256074 28339960 
2584.343 28421916 28501020 28576320 28647738 28715132 28779138 28840320 
2587.718 28899352 28957010 29013612 29069478 29124924 29180026 29234816 
2591.094 29289470 29343704 29397592 29451910 29507408 29565502 29628108 
2594.469 29696078 29769882 29848736 29930870 30014086 30096964 30178898 
2597.844 30260240 30342384 30426318 30512862 30601914 30693010 30785476 
2601.219 30879636 30976306 31077162 31183416 31295396 31412282 31532086 
2604.594 31652030 31770046 31885102 31997584 32108952 32221060 32335450 
2607.970 32452296 32571424 32691334 32811060 32929360 33045686 33159826 
2611.345 33271924 33382184 33490866 33598576 33705700 33813064 33920888 
2614.720 34029128 34137148 34243796 34347888 34448348 34544952 34638280 
2618.095 34729472 34819788 34910552 35002664 35096236 35191332 35287708 
2621.471 35384896 35482688 35580600 35678288 35774988 35870308 35963952 
2624.846 36055644 36145656 36234500 36322824 36411344 36500824 36591796 
2628.221 36684772 36779712 36876548 36974852 37073828 37172716 37271196 
2631.596 37368864 37466088 37563116 37660384 37758212 37856496 37954880 
2634.972 38052776 38149860 38245844 38340516 38433828 38525388 38614904 
2638.347 38702044 38786484 38868952 38949732 39030268 39111404 39193532 
2641.722 39276624 39360124 39443460 39526376 39608984 39692260 39776932 
2645.097 39863544 39952064 40041544 40130536 40217620 40301664 40382384 
2648.473 40460464 40537024 40613640 40691508 40771640 40854340 40939672 
2651.848 41027104 41116260 41206420 41297328 41388724 41480764 41574060 
2655.223 41669204 41767428 41869328 41975484 42086008 42200432 42318500 
2658.598 42439748 42563616 42690048 42819004 42950556 43085040 43222640 
2661.974 43363648 43508664 43657900 43811660 43969544 44131188 44295724 
2665.349 44462408 44630816 44800932 44973292 45148068 45325892 45506300 
2668.724 45688464 45871744 46055284 46239160 46423664 46610056 46799036 
2672.099 46991312 47186664 47384360 47583624 47783644 47984460 48186444 
2675.475 48390368 48596804 48806152 49018532 49233984 49452480 49674464 
2678.850 49900572 50131788 50368704 50611556 50860244 51114032 51372484 
2682.225 51635268 51902168 52173344 52449100 52729516 53014724 53304724 
2685.600 53599416 53898476 54201304 54507088 54814212 55121180 55426372 
2688.976 55728568 56027024 56322028 56613940 56902920 57189104 57471920 
2692.351 57750572 58024740 58294160 58559532 58821580 59080976 59338064 
2695.726 59592100 59841844 60085984 60323520 60553992 60777684 60995088 
2699.101 61207256 61414228 61616520 61814096 62007212 62196668 62383224 
2702.477 62568100 62752628 62937968 63125380 63316048 63511288 63712260 
2705.852 63920008 64134576 64355508 64581588 64811096 65042384 65274104 
2709.227 65505288 65735436 65963940 66189700 66411220 66626824 66834660 
2712.602 67033304 67221288 67397520 67560656 67709288 67841600 67956536 
2715.978 68053608 68133336 68197184 68246960 68284344 68309824 68323704 
2719.353 68325056 68313232 68288256 68250528 68201448 68142560 68075664 
2722.728 68001728 67921632 67836248 67746696 67654120 67560112 67466288 
2726.103 67373216 67281752 67192048 67104416 67019352 66937892 66860780 
2729.479 66788664 66721588 66659428 66601796 66548572 66500380 66458480 
2732.854 66424468 66399328 66383772 66376940 66377284 66382656 66391380 
2736.229 66401840 66413188 66425040 66437168 66449024 66460332 66470332 
2739.604 66478676 66485168 66489296 66491224 66490300 66486052 66477828 
2742.979 66465236 66447936 66426360 66400216 66369832 66334592 66293984 
2746.355 66247748 66195912 66139192 66079200 66017324 65955104 65893672 
2749.730 65833480 65774256 65716012 65658660 65602468 65547360 65493612 
2753.105 65440640 65387636 65333680 65277836 65219424 65158212 65093496 
2756.480 65024256 64949252 64866416 64774364 64672104 64559712 64438284 
2759.856 64308932 64173020 64030924 63881928 63725232 63559928 63385784 
2763.231 63203244 63013620 62818484 62619576 62418068 62215364 62013556 
2766.606 61814824 61623048 61441972 61275432 61126540 60996840 60886504 
2769.981 60794644 60719604 60659552 60612884 60578256 60554220 60538984 
2773.357 60530720 60527328 60526452 60526528 60525500 60522148 60515100 
2776.732 60502912 60484632 60459192 60425984 60384288 60334336 60276012 
2780.107 60209856 60136140 60055812 59969868 59879952 59787696 59694964 
2783.482 59602708 59511652 59422052 59333504 59245272 59156796 59067348 
2786.858 58975988 58881836 58782696 58676864 58561736 58435224 58295600 
2790.233 58141964 57973884 57791488 57595544 57386832 57167144 56938540 
2793.608 56703976 56467088 56231768 56002296 55781804 55573396 55379240 
2796.983 55200712 55038276 54891736 54760536 54643392 54538456 54443908 
2800.359 54357344 54276800 54200292 54125936 54051852 53976244 53897012 
2803.734 53812280 53720292 53619660 53509648 53389880 53260260 53120944 
2807.109 52971976 52813516 52645688 52468988 52283992 52091748 51893172 
2810.484 51689384 51481476 51270420 51058128 50846428 50638064 50435388 
2813.860 50241540 50059052 49890392 49737136 49601288 49484040 49386872 
2817.235 49310888 49256404 49223668 49211720 49219548 49245712 49288876 
2820.610 49347488 49420436 49506172 49603104 49708492 49819628 49933172 
2823.985 50045776 50154468 50256756 50350360 50434344 50507700 50570048 
2827.361 50621720 50663160 50695068 50717784 50731824 50736928 50732864 
2830.736 50719500 50696932 50666064 50628164 50585236 50538964 50491248 
2834.111 50443536 50396832 50352404 50311556 50275168 50244704 50220824 
2837.486 50204200 50195716 50196832 50209812 50238420 50287112 50361260 
2840.862 50465868 50605300 50782508 51000256 51260240 51565008 51917812 
2844.237 52322824 52784668 53307196 53892212 54537816 55236380 55974780 
2847.612 56731240 57477592 58180304 58800868 59302700 59653908 59830776 
2850.987 59823020 59633836 59279912 58787288 58189360 57522644 56820392 
2854.363 56112984 55425616 54775120 54173264 53625436 53132064 52689976 
2857.738 52293968 51937980 51616124 51323408 51056228 50811636 50587136 
2861.113 50380648 50189916 50012988 49848056 49694152 49550552 49417204 
2864.488 49294296 49182032 49080560 48990156 48910608 48841856 48783648 
2867.864 48735716 48697428 48668552 48648684 48637976 48636272 48643536 
2871.239 48658508 48679080 48702244 48724076 48741868 48753656 48760072 
2874.614 48763888 48769040 48780348 48801444 48834812 48881012 48939384 
2877.989 49008704 49088048 49177136 49276184 49385796 49506876 49639692 
2881.365 49784696 49942056 50112000 50294404 50488904 50694288 50908560 
2884.740 51129016 51352644 51576420 51798260 52016368 52229544 52436612 
2888.115 52635964 52825564 53003116 53165992 53312180 53440356 53549976 
2891.490 53641256 53715452 53774252 53819668 53854064 53879720 53898288 
2894.865 53910928 53917832 53918772 53912956 53899900 53879192 53851252 
2898.241 53816180 53774288 53725052 53667912 53601852 53526552 53442080 
2901.616 53350016 53252508 53152060 53051600 52953332 52859504 52772656 
2904.991 52695624 52631996 52585992 52561796 52562880 52592876 52654028 
2908.366 52749088 52881284 53054672 53274232 53545176 53872068 54257616 
2911.742 54701980 55201992 55750948 56338284 56951044 57572160 58182424 
2915.117 58762176 59290544 59748684 60121752 60398300 60571740 60640392 
2918.492 60605608 60471604 60243656 59928788 59534260 59068564 58541296 
2921.867 57962412 57343192 56695784 56031700 55362792 54700476 54054480 
2925.243 53433572 52843860 52289636 51772280 51291524 50845608 50431440 
2928.618 50045928 49686164 49349564 49034036 48738012 48460012 48198884 
2931.993 47953600 47722764 47505176 47299372 47103676 46916704 46737632 
2935.368 46566052 46402132 46246824 46101040 45965512 45840704 45726860 
2938.744 45623904 45531908 45451440 45383088 45327256 45284264 45252968 
2942.119 45231348 45216456 45204612 45191820 45174500 45149500 45114064 
2945.494 45066424 45005520 44931620 44846304 44752924 44656628 44562996 
2948.869 44478124 44407352 44353520 44317736 44298952 44294184 44299244 
2952.245 44310180 44323316 44335608 44344964 44349996 44350328 44345848 
2955.620 44337368 44325920 44312676 44299136 44286548 44276020 44268464 
2958.995 44264500 44264280 44267768 44274184 44282516 44291580 44300092 
2962.370 44307796 44314324 44320784 44329188 44341740 44361664 44391648 
2965.746 44434664 44493316 44569200 44663420 44775624 44903912 45044588 
2969.121 45192700 45342044 45485584 45617064 45730544 45821036 45885296 
2972.496 45921204 45927760 45905588 45856460 45782676 45687656 45575184 
2975.871 45448904 45311772 45166228 45013644 44854864 44690192 44519892 
2979.247 44344452 44164976 43982928 43800516 43620456 43445964 43280000 
2982.622 43125876 42985708 42861092 42751980 42657664 42575864 42503872 
2985.997 42438284 42375632 42312732 42247100 42176148 42098092 42010920 
2989.372 41912460 41800152 41670552 41519956 41344844 41142776 40913312 
2992.748 40658284 40382456 40093072 39797740 39503952 39217612 38941468 
2996.123 38676148 38420036 38171024 37927468 37688928 37456916 37233868 
2999.498 37022588 36825440 36643816 36477360 36324700 36183792 36052440 
3002.873 35928752 35811472 35699832 35593332 35491600 35394352 35300936 
3006.249 35211132 35124436 35040988 34960792 34884556 34812396 34744728 
3009.624 34681092 34620768 34562748 34505920 34449420 34393256 34337772 
3012.999 34283880 34232540 34184392 34139228 34096252 34053964 34010568 
3016.374 33964848 33915868 33863464 33807980 33749960 33690160 33629252 
3019.750 33567896 33506866 33447028 33389450 33335138 33284836 33238656 
3023.125 33195448 33153712 33110726 33063528 33008896 32944158 32867134 
3026.500 32776936 32673616 32558386 32433372 32301254 32164610 32026190 
3029.875 31888168 31752404 31620062 31492290 31369648 31252380 31140484 
3033.250 31033600 30931010 30831966 30735934 30642304 30551076 30462534 
3036.626 30376744 30293922 30213992 30136276 30060246 29985222 29910566 
3040.001 29835748 29759804 29681676 29599552 29511664 29415994 29311232 
3043.376 29196824 29073162 28941778 28804630 28663630 28520870 28378088 
3046.751 28236732 28098460 27964616 27836500 27714992 27600438 27492408 
3050.127 27390052 27292200 27197970 27106934 27018876 26934048 26852442 
3053.502 26773812 26697382 26622338 26548258 26474790 26402392 26332222 
3056.877 26265230 26202228 26143738 26089198 26038074 25989282 25942252 
3060.252 25896424 25851830 25808472 25766666 25726622 25688970 25653996 
3063.628 25622256 25594280 25570346 25550454 25534220 25520410 25508040 
3067.003 25495426 25481406 25465034 25445640 25423084 25397790 25370004 
3070.378 25340252 25309062 25276294 25241842 25205358 25166594 25125236 
3073.753 25081846 25036950 24991462 24946434 24902218 24858886 24815698 
3077.129 24771742 24725966 24677846 24627450 24575520 24523244 24471990 
3080.504 24422672 24376126 24332460 24291812 24254074 24218970 24186354 
3083.879 24155596 24125964 24096542 24066386 24034798 24001742 23967916 
3087.254 23934094 23901464 23870972 23843214 23818082 23795542 23775206 
3090.630 23757148 23741294 23728172 23717882 23710498 23705774 23703116 
3094.005 23702382 23703082 23705496 23709590 23715782 23723902 23733842 
3097.380 23745040 23756798 23768418 23779546 23790012 23799810 23809122 
3100.755 23817838 23825958 23833272 23839854 23845594 23850914 23856164 
3104.131 23861590 23867298 23873142 23878536 23883086 23886096 23887568 
3107.506 23887846 23887600 23887846 23889598 23893482 23899714 23907766 
3110.881 23917322 23927408 23937104 23946278 23954750 23962838 23970786 
3114.256 23978876 23986860 23994388 24000760 24005138 24007520 24007800 
3117.632 24006538 24004648 24003142 24002546 24003386 24005558 24008150 
3121.007 24010776 24012280 24012248 24010354 24006678 24001426 23995054 
3124.382 23987910 23980206 23972082 23963538 23954856 23946560 23939102 
3127.757 23933464 23930174 23929682 23931714 23935530 23940046 23944038 
3131.133 23946592 23946908 23945298 23942600 23939486 23937350 23937246 
3134.508 23939520 23944388 23951706 23960948 23971872 23983568 23995858 
3137.883 24008010 24019530 24030282 24040190 24049190 24058052 24067158 
3141.258 24077070 24088206 24100464 24113460 24126628 24139344 24150762 
3144.634 24160782 24169608 24177772 24186004 24195006 24205306 24217182 
3148.009 24230880 24245876 24262274 24280144 24299240 24319458 24340694 
3151.384 24362072 24382646 24401362 24417344 24430172 24440302 24448962 
3154.759 24457584 24468064 24481386 24498318 24518686 24541790 24566262 
3158.135 24591438 24616370 24640952 24665150 24689104 24713164 24737858 
3161.510 24763392 24790404 24819310 24850712 24884430 24920186 24957172 
3164.885 24993988 25029824 25063556 25094834 25123866 25151462 25178602 
3168.260 25206272 25235626 25267548 25302740 25341446 25383738 25429056 
3171.635 25476242 25523888 25570556 25615016 25656806 25695824 25732984 
3175.011 25769162 25805342 25841738 25878522 25915134 25951186 25986398 
3178.386 26021154 26055526 26089972 26124490 26158520 26191070 26220846 
3181.761 26247068 26268892 26286456 26300642 26312612 26324264 26337116 
3185.136 26352466 26371126 26393024 26417250 26442392 26466586 26488278 
3188.512 26506416 26520998 26532620 26542552 26552098 26562066 26572776 
3191.887 26583870 26595212 26606698 26618746 26632836 26649782 26670780 
3195.262 26696044 26724972 26756262 26788332 26820334 26851668 26882650 
3198.637 26913990 26945928 26978752 27011790 27044160 27074734 27102876 
3202.013 27128588 27152466 27175746 27199802 27225978 27254978 27287190 
3205.388 27322614 27360408 27399756 27439392 27478676 27516624 27553410 
3208.763 27589456 27625436 27662476 27701430 27742716 27786658 27832862 
3212.138 27880802 27930056 27979882 28029962 28079796 28129040 28177260 
3215.514 28224638 28271386 28317924 28364824 28412188 28460122 28507814 
3218.889 28554664 28600066 28643950 28687098 28730708 28776234 28825130 
3222.264 28877892 28934270 28993314 29053818 29115040 29176234 29237438 
3225.639 29299146 29361642 29425070 29489110 29553478 29617678 29681322 
3229.015 29744582 29807782 29871062 29934776 29998856 30062944 30126688 
3232.390 30189126 30249832 30307954 30363136 30415300 30464950 30513006 
3235.765 30560710 30609166 30659690 30712640 30768120 30825742 30885150 
3239.140 30946238 31009330 31074598 31141980 31211042 31280618 31348634 
3242.516 31413458 31474120 31530910 31585072 31638988 31694836 31754326 
3245.891 31817998 31885282 31954746 32024868 32094322 32162756 32230232 
3249.266 32296936 32364040 32431800 32500856 32571706 32644644 32719664 
3252.641 32796770 32875388 32954202 33032778 33110120 33185792 33260726 
3256.017 33335674 33411458 33489220 33568864 33649844 33730980 33810880 
3259.392 33888252 33962160 34032068 34097724 34159300 34217448 34272624 
3262.767 34325976 34378728 34431992 34487016 34544308 34604480 34667060 
3266.142 34731696 34797460 34863336 34928256 34991172 35050832 35106688 
3269.518 35158348 35206172 35250872 35293496 35335080 35376128 35416568 
3272.893 35455896 35493648 35529248 35562584 35594336 35625160 35655480 
3276.268 35685804 35716096 35745844 35774880 35803052 35830472 35857100 
3279.643 35883512 35909100 35933936 35957656 35980368 36002904 36026088 
3283.019 36050672 36077248 36105004 36132908 36158944 36181740 36200396 
3286.394 36215236 36227552 36238968 36251144 36265120 36281040 36298472 
3289.769 36316520 36333992 36350096 36364436 36377116 36388756 36400284 
3293.144 36412968 36427816 36445684 36466372 36488964 36511780 36532756 
3296.520 36550020 36562816 36570964 36575684 36578564 36581448 36585380 
3299.895 36591148 36599008 36608844 36621032 36636028 36654088 36675612 
3303.270 36700344 36727388 36756052 36785340 36814732 36844124 36873592 
3306.645 36902736 36931164 36957896 36982032 37003104 37021756 37039296 
3310.021 37057804 37079420 37105404 37136080 37171492 37210724 37253396 
3313.396 37299140 37348172 37400936 37457276 37516512 37578180 37640976 
3316.771 37704576 37769416 37836324 37906536 37980808 38059212 38141288 
3320.146 38225400 38310404 38395496 38480528 38566196 38653364 38742652 
3323.521 38834384 38927912 39022440 39116772 39209816 39300852 39389436 
3326.897 39475212 39558024 39637552 39713828 39786408 39855336 39920896 
3330.272 39983376 40043508 40102156 40159976 40217260 40273856 40329156 
3333.647 40381728 40429804 40472064 40507636 40536664 40559872 40578572 
3337.022 40594140 40607128 40617644 40625248 40629176 40628960 40624628 
3340.398 40616700 40605348 40590684 40572096 40548704 40519564 40484104 
3343.773 40442640 40396312 40346572 40294760 40241900 40188252 40133516 
3347.148 40077480 40020216 39961328 39901460 39840408 39777620 39712300 
3350.523 39643144 39569164 39490088 39406376 39318840 39228712 39137256 
3353.899 39044916 38952340 38859384 38766564 38674084 38582272 38491500 
3357.274 38401612 38312648 38224248 38136328 38048868 37962508 37877752 
3360.649 37794792 37713144 37632124 37550436 37466956 37380888 37292244 
3364.024 37201160 37108144 37013640 36918032 36821328 36723532 36625248 
3367.400 36526664 36428856 36332012 36236340 36141552 36046604 35950816 
3370.775 35853500 35754516 35653684 35552048 35449680 35346904 35243940 
3374.150 35140784 35037360 34933748 34830164 34727176 34625184 34524932 
3377.525 34426288 34329960 34235732 34143456 34052208 33961156 33868620 
3380.901 33773236 33673760 33569580 33460412 33347264 33230856 33113160 
3384.276 32995492 32879320 32765896 32656540 32551888 32452580 32358616 
3387.651 32269490 32183840 32100494 32017272 31932566 31845060 31753972 
3391.026 31658872 31560664 31460370 31359856 31261034 31166008 31075560 
3394.402 30989862 30907528 30825812 30742052 30653470 30558612 30457628 
3397.777 30352368 30244894 30138336 30034432 29933782 29836244 29740608 
3401.152 29645844 29551208 29456592 29361890 29267742 29174286 29081806 
3404.527 28989984 28898750 28808028 28717574 28626926 28535590 28442398 
3407.903 28346114 28246208 28142012 28034378 27923768 27811666 27698852 
3411.278 27585678 27471898 27357054 27240972 27123474 27005514 26888080 
3414.653 26772650 26660528 26552240 26448062 26347466 26249180 26151832 
3418.028 26053696 25953684 25850460 25743954 25634592 25523502 25412544 
3421.404 25302914 25195490 25090270 24986128 24881518 24774794 24665290 
3424.779 24553114 24439286 24325418 24212944 24102950 23995542 23890122 
3428.154 23785428 23680686 23574922 23468098 23360428 23252224 23143872 
3431.529 23035896 22928404 22821844 22716184 22612050 22509720 22409650 
3434.905 22311832 22215990 22121878 22028518 21935144 21841336 21746050 
3438.280 21648766 21549310 21447232 21342358 21235004 21126146 21016618 
3441.655 20908406 20802794 20700370 20601374 20503754 20404838 20301292 
3445.030 20190410 20070604 19942820 19810112 19676960 19548180 19427338 
3448.406 19315712 19211836 19112660 19013990 18912402 18805854 18694246 
3451.781 18579004 18462340 18346120 18231730 18119648 18009392 17900580 
3455.156 17792830 17686006 17580414 17476158 17373308 17271206 17168920 
3458.531 17065662 16960290 16852496 16742114 16629487 16516237 16403394 
3461.906 16293263 16187219 16086495 15991054 15900206 15812092 15724303 
3465.282 15635023 15543218 15448412 15351670 15254263 15157427 15061710 
3468.657 14967043 14872465 14776983 14679876 14580906 14480521 14379165 
3472.032 14277353 14175668 14074041 13972471 13870755 13769336 13668831 
3475.407 13570056 13473800 13380265 13289654 13201896 13115932 13030838 
3478.783 12945318 12858279 12768391 12675859 12580518 12484105 12388532 
3482.158 12296491 12209889 12130219 12056902 11988297 11922120 11855409 
3485.533 11785440 11711023 11631344 11547221 11459781 11370794 11281893 
3488.908 11194336 11108632 11025019 10942848 10861543 10780083 10697756 
3492.284 10614018 10528564 10441600 10353365 10264231 10174640 10085441 
3495.659 9997549 9912048 9829986 9752480 9679800 9611671 9546533 9483336 
3499.516 9419740 9354530 9286418 9214729 9139127 9059174 8975142 8887440 
3503.374 8797254 8706715 8618797 8536134 8461325 8394942 8335761 8281318 
3507.231 8228029 8172315 8111917 8046262 7976127 7903810 7831911 7762857 
3511.089 7697895 7637562 7581689 7529530 7480143 7432447 7384957 7336463 
3514.946 7285345 7230763 7172584 7110977 7047055 6982334 6918263 6856389 
3518.803 6797654 6742561 6690807 6642054 6594920 6548363 6500903 6451734 
3522.661 6400619 6348334 6295820 6244051 6193331 6143019 6091303 6036501 
3526.518 5976735 5912006 5843189 5772704 5702835 5635294 5570783 5508161 
3530.376 5446488 5384421 5321658 5259173 5198441 5140667 5086220 5033958 
3534.233 4982173 4928785 4872421 4812781 4751441 4690779 4632905 4579694 
3538.091 4531545 4488054 4448083 4410258 4373206 4336124 4298609 4260061 
3541.948 4220713 4180264 4138849 4096201 4051417 4003527 3950994 3892350 
3545.805 3826928 3755600 3680641 3605528 3534437 3470471 3415632 3369115 
3549.663 3329347 3293255 3257600 3219978 3178688 3133397 3084574 3032920 
3553.520 2980004 2927095 2875760 2827633 2784012 2745831 2713089 2685016 
3557.378 2660012 2636043 2610908 2582976 2551278 2515817 2477460 2438107 
3561.235 2400090 2366107 2338856 2319768 2309142 2305778 2306111 2305311 
3565.093 2298117 2278997 2244325 2192704 2126139 2048897 1966777 1885803 
3568.950 1810767 1744161 1687244 1639315 1599106 1564454 1533629 1504536 
3572.807 1475843 1446819 1417099 1386817 1356569 1327022 1298906 1272785 
3576.665 1249557 1229121 1211611 1195994 1180479 1163534 1143502 1119749 
3580.522 1093008 1065106 1039099 1017876 1003762 997584 998880 1004791 
3584.380 1012330 1017445 1015585 1002798 975799 932995 875322 806900 734473 
3588.719 665576 607207 563611 535577 520914 515440 514644 513848 510398 
3593.059 502635 490395 473843 453444 429132 401836 372719 343934 318137 
3597.398 297048 281432 270060 260180 248576 232696 211645 186253 159205 
3601.738 133385 111178 93580 81484 74823 73729 78534 88344 101335 113830 
3606.560 120757 117310 100175 69951 30815 -10403 -46915 -74147 -91870 
3610.899 -102968 -112442 -124798 -142519 -164711 -187796 -207237 -218563 
3614.757 -219623 -210615 -194320 -175210 -158550 -150104 -154609 -174680 
3618.614 -209952 -255785 -304792 -348132 -378093 -391534 -388521 -372962 
3622.472 -349688 -322870 -293600 -260918 -221312 -171964 -112077 -44728 
3626.329 23128 80523 115586 119365 89537 33267 -33497 -91672 -126785 -133443 
3631.151 -113899 -75837 -27864 21603 67002 105876 139019 169149 200672 
3635.490 236210 277055 322348 370032 417756 464489 510895 558501 609862 
3639.830 666472 728897 796344 867951 943389 1023456 1110746 1206893 1312731 
3644.170 1427371 1546631 1664925 1776431 1875587 1958356 2022165 2065277 
3648.027 2085685 2081723 2052825 2001827 1936655 1869431 1814627 1782387 
3651.885 1778095 1799521 1838617 1883973 1923442 1946773 1946074 1919083 
3655.742 1869065 1804678 1737408 1678696 1636587 1613706 1608185 1613872 
3659.599 1622918 1627342 1621089 1601634 1570906 1533796 1496456 1464273 
3663.457 1440237 1424745 1417598 1419692 1433987 1465503 1519431 1598973 
3667.314 1704574 1836255 1996933 2199730 2469996 2845275 3367111 4064159 
3671.172 4948859 6015940 7252056 8640733 10160191 11772707 13389867 14858031 
3675.029 15970532 16503571 16318686 15417513 13930283 12047806 9961271 
3678.404 7842505 5822906 4007874 2475694 1260257 355474 -283269 -718215 
3682.262 -1014571 -1224430 -1378142 -1491020 -1568843 -1615886 -1640280 
3685.637 -1653814 -1668766 -1695798 -1740088 -1800939 -1873394 -1950620 
3689.012 -2027668 -2101305 -2169721 -2231467 -2283943 -2324680 -2352363 
3692.387 -2367753 -2373652 -2374542 -2374113 -2374706 -2376914 -2379946 
3695.763 -2382615 -2383966 -2383406 -2380407 -2374706 -2365776 -2354011 
3699.138 -2341224 -2331272 -2329129 -2339972 -2366105 -2406110 -2453820 
3702.513 -2500932 -2539738 -2565003 -2575972 -2574852 -2565333 -2550378 
3705.888 -2531767 -2509003 -2481660 -2449768 -2414842 -2380209 -2349859 
3709.264 -2327976 -2317594 -2320198 -2336083 -2364655 -2404297 -2451711 
3712.639 -2502382 -2550180 -2589509 -2616253 -2629196 -2629394 -2620502 
3716.014 -2606636 -2591419 -2575972 -2560227 -2542308 -2520962 -2496188 
3719.389 -2470557 -2447231 -2429999 -2420245 -2417214 -2417675 -2417675 
3722.765 -2414117 -2406373 -2395961 -2386240 -2380704 -2382022 -2390754 
3726.140 -2405648 -2423409 -2439784 -2450723 -2452502 -2442848 -2421893 
3729.515 -2391842 -2356944 -2322736 -2294688 -2276066 -2267331 -2265155 
3732.890 -2264661 -2262881 -2260673 -2263046 -2277615 -2310805 -2362909 
3736.266 -2427527 -2492498 -2545042 -2577421 -2587302 -2577619 -2554265 
3739.641 -2522082 -2483538 -2439191 -2389271 -2335721 -2285262 -2249498 
3743.016 -2242708 -2276857 -2353418 -2458268 -2563455 -2641415 -2677080 
3746.391 -2670757 -2633247 -2579694 -2525112 -2480276 -2451547 -2440542 
3749.767 -2445418 -2463506 -2492169 -2529592 -2572876 -2617076 -2655576 
3753.142 -2681427 -2690219 -2681888 -2660055 -2630678 -2599686 -2571788 
3756.517 -2549719 -2534039 -2524915 -2522971 -2529296 -2545305 -2571327 
3759.892 -2603540 -2636178 -2660977 -2671745 -2665620 -2644247 -2613487 
3763.268 -2581341 -2554924 -2539310 -2535555 -2541484 -2551794 -2561611 
3766.643 -2567671 -2569186 -2567572 -2565530 -2565629 -2569911 -2578969 
3770.018 -2591913 -2606899 -2621061 -2631765 -2637067 -2636178 -2629657 
3773.393 -2619151 -2606735 -2594285 -2582823 -2571690 -2559601 -2545668 
3776.769 -2530021 -2514670 -2503403 -2500570 -2508905 -2528209 -2554924 
3780.144 -2582362 -2604726 -2617768 -2620600 -2616023 -2607624 -2599489 
3783.519 -2593659 -2590333 -2587928 -2584667 -2579331 -2572151 -2565003 
3786.894 -2560326 -2559436 -2562994 -2570043 -2578969 -2587664 -2594713 
3790.270 -2599390 -2600839 -2598929 -2593066 -2583218 -2569746 -2554133 
3793.645 -2538717 -2526463 -2520138 -2521060 -2528407 -2538256 -2544943 
3797.020 -2542472 -2526726 -2496715 -2455731 -2410888 -2371773 -2348903 
3800.395 -2350353 -2379023 -2429307 -2487293 -2535884 -2562072 -2560622 
3803.771 -2534863 -2494376 -2452733 -2422947 -2414479 -2431448 -2469272 
3807.146 -2517437 -2562072 -2593198 -2606504 -2604067 -2591057 -2572744 
3810.521 -2552190 -2529560 -2502316 -2467724 -2424727 -2375266 -2324746 
3813.896 -2280812 -2251575 -2242741 -2254542 -2280252 -2307707 -2324285 
3817.271 -2320824 -2295710 -2253124 -2203348 -2158445 -2130552 -2129167 
3820.647 -2157160 -2208656 -2270264 -2326559 -2365413 -2381528 -2377573 
3824.022 -2360635 -2339576 -2321549 -2311728 -2310475 -2315584 -2321615 
3827.397 -2323296 -2317265 -2302697 -2281241 -2255992 -2230709 -2208194 
3830.772 -2190260 -2176809 -2166820 -2157885 -2147137 -2132069 -2111230 
3834.148 -2084356 -2053226 -2021039 -1993235 -1974864 -1970312 -1981691 
3837.523 -2007220 -2042112 -2079509 -2113143 -2138894 -2156269 -2166457 
3840.898 -2173051 -2179150 -2187326 -2199194 -2215216 -2234764 -2256421 
3844.273 -2278142 -2297622 -2312321 -2320264 -2319869 -2310311 -2291590 
3847.649 -2263705 -2226621 -2179315 -2120924 -2051181 -1971862 -1888306 
3851.024 -1810145 -1750913 -1727614 -1753817 -1834397 -1958504 -2101965 
3854.399 -2235555 -2337665 -2400805 -2428647 -2430394 -2415995 -2393390 
3857.774 -2367753 -2341620 -2316342 -2292315 -2270297 -2250685 -2233940 
3861.150 -2219666 -2207205 -2195930 -2186238 -2179908 -2179051 -2185315 
3864.525 -2197678 -2212150 -2221677 -2219204 -2200678 -2166919 -2124650 
3867.900 -2083696 -2056326 -2052039 -2073936 -2116341 -2165765 -2207666 
3871.275 -2231797 -2235951 -2225699 -2210930 -2201139 -2202853 -2216633 
3874.651 -2237697 -2258069 -2269341 -2266771 -2250026 -2222732 -2190524 
3878.026 -2160127 -2137212 -2125310 -2125310 -2134641 -2148291 -2159764 
3881.401 -2163325 -2155280 -2135861 -2108724 -2080597 -2059986 -2054776 
3884.776 -2069319 -2102162 -2145158 -2186007 -2212018 -2216040 -2197315 
3888.152 -2161940 -2119111 -2079212 -2051478 -2041387 -2049665 -2072617 
3891.527 -2103613 -2134937 -2160490 -2177436 -2184392 -2181623 -2169886 
3894.902 -2149774 -2122408 -2089203 -2052138 -2014376 -1978162 -1946299 
3898.277 -1920272 -1900842 -1887580 -1879695 -1876231 -1877056 -1881972 
3901.653 -1891143 -1904966 -1923571 -1946596 -1973347 -2002470 -2032219 
3905.028 -2060019 -2083828 -2101701 -2112219 -2115055 -2110835 -2101206 
3908.403 -2088049 -2074034 -2061207 -2051050 -2044355 -2040497 -2038287 
3911.778 -2035879 -2031328 -2023710 -2012563 -1998710 -1983769 -1970246 
3915.154 -1960318 -1955469 -1956096 -1960944 -1968366 -1975886 -1982021 
3918.529 -1985880 -1987332 -1986639 -1983967 -1978624 -1970510 -1959229 
3921.904 -1945672 -1931554 -1919942 -1913609 -1914499 -1922581 -1936040 
3925.279 -1951346 -1964276 -1971895 -1972720 -1967014 -1956294 -1942539 
3928.655 -1927629 -1912850 -1899555 -1888933 -1882500 -1882005 -1888570 
3932.030 -1901964 -1920305 -1940427 -1958306 -1970609 -1975787 -1973808 
3935.405 -1966915 -1957481 -1948047 -1940065 -1933368 -1927068 -1919712 
3938.780 -1910871 -1900512 -1890219 -1882005 -1878244 -1880421 -1888504 
3942.156 -1901436 -1916809 -1931455 -1942802 -1949136 -1949598 -1945507 
3945.531 -1938580 -1930927 -1924792 -1921493 -1921757 -1925056 -1930531 
3948.906 -1936700 -1942440 -1946827 -1949697 -1950917 -1950521 -1948608 
3952.281 -1945309 -1941087 -1936601 -1932676 -1930004 -1929014 -1929476 
3955.656 -1930663 -1931356 -1930663 -1927958 -1923208 -1917468 -1911926 
3959.032 -1907803 -1906054 -1907275 -1911234 -1917468 -1925155 -1933302 
3962.407 -1940724 -1946233 -1948707 -1947586 -1942671 -1934688 -1924660 
3965.782 -1913840 -1903679 -1895168 -1888570 -1883720 -1880520 -1878046 
3969.157 -1875934 -1873394 -1869699 -1864123 -1856304 -1846340 -1834990 
3972.533 -1823805 -1814797 -1809320 -1808363 -1811399 -1816744 -1822155 
3975.908 -1825455 -1825785 -1823145 -1818724 -1814335 -1811069 -1809749 
3979.283 -1809848 -1810673 -1811300 -1811333 -1811036 -1811300 -1812488 
3982.658 -1814863 -1817932 -1820737 -1821858 -1820770 -1816909 -1810475 
3986.034 -1802325 -1793251 -1784572 -1777510 -1773188 -1772891 -1776850 
3989.409 -1785034 -1795989 -1807274 -1816084 -1820209 -1818361 -1811201 
3992.784 -1800774 -1789588 -1780546 -1775102 -1773452 -1774211 -1775860 
3996.159 -1776950 -1776421 -1774937 -1773353 -1772891 -1774409 -1778137 
3999.535 -1783516 -1789489 -1794933 
##END=
