
##TITLE=Z345_3_e
##JCAMP-DX=5.01  $$ Nicolet v. 1
##DATATYPE=INFRARED SPECTRUM
##ORIGIN=UniL
##OWNER=Nicolet
##LONGDATE=2011/09/14
##TIME=10:31:21
##SPECTROMETER/DATA SYSTEM=Nicolet iS5
##DATA PROCESSING=
Ratio against background
%Transmittance->Absorbance
Truncated
ElementMultiply or ElementDivide
##COMMENTS=
Number of sample scans: 32
Collection length: 51.21 sec
Sample gain: 2.0
Background collected on: Mer Sep 14 10:08:15 2011 (GMT+02:00);
Number of background scans: 32
Background gain: 2.0
Sample spacing:  1.000
Number of scan points: 12415
Resolution points: 8192
Number of FFT points: 65536
Apodization: N-B fort;
Phase correction: Mertz;
Laser frequency: 15798.0 cm-1
Number of rejected sample scans: 0
Number of rejected background scans: 0
Bench serial number: ASB1000141;
##RESOLUTION=4.000
##XUNITS=1/CM
##YUNITS=ABSORBANCE
##FIRSTX=649.893372
##LASTX=4000.122314
##FIRSTY=0.105274
##MAXX=4000.122314
##MINX=649.893372
##MAXY=0.522856
##MINY=-0.001724
##XFACTOR=1.000000
##YFACTOR=1.000000E-009
##NPOINTS=6950
##DELTAX=0.482117
##ZPD=6100
##XYDATA=(X++(Y..Y))
649.893 105274168 105474064 105810064 106236232 106690272 107126808 
652.786 107540608 107974088 108495840 109171768 110029376 111051840 
655.679 112185672 113377752 114599672 115865416 117218096 118708272 
658.571 120364656 122180600 124124184 126163464 128294320 130553808 
661.464 133007896 135716416 138704912 141941600 145351216 148840688 
664.357 152345968 155850576 159363392 162888112 166355248 169552080 
667.250 172135888 173724304 174089312 173287616 171587632 169278400 
670.142 166534704 163415104 159920736 156066112 151931120 147662928 
673.035 143422928 139357008 135537456 131968272 128619000 125467704 
675.928 122524504 119829904 117422376 115309512 113452000 111778952 
678.820 110214808 108710360 107258576 105885400 104623960 103486720 
681.713 102455160 101487536 100544664 99609824 98701072 97858440 97124856 
685.088 96520736 96034832 95631760 95273920 94940936 94634752 94374064 
688.463 94171936 94018072 93873032 93678240 93375080 92930840 92344328 
691.838 91642016 90857872 90016880 89125928 88179400 87173736 86123480 
695.212 85061608 84034056 83078976 82210976 81417608 80669320 79938944 
698.587 79215872 78513800 77860600 77284376 76795224 76382040 76017952 
701.962 75678240 75352136 75048336 74786272 74583296 74440080 74339136 
705.337 74250752 74149888 74029128 73902632 73798664 73743216 73750872 
708.712 73819472 73939592 74108664 74340552 74664040 75110136 75687464 
712.086 76365408 77064840 77677496 78088112 78201960 77975648 77419072 
715.461 76589424 75565720 74436344 73284048 72176384 71174104 70326680 
718.836 69666720 69209304 68945776 68851536 68892736 69041984 69285640 
722.211 69621128 70045800 70541744 71060104 71525168 71843208 71921600 
725.586 71699480 71158376 70327464 69268304 68062568 66794424 65534452 
728.961 64344176 63271776 62349220 61593648 61002100 60553648 60213244 
732.335 59943584 59716900 59518868 59350936 59221540 59136828 59093204 
735.710 59076616 59067692 59052280 59026960 58999520 58982972 58986688 
739.085 59009996 59042072 59067656 59076916 59071336 59064732 59076500 
742.460 59121676 59203692 59314016 59437364 59559340 59673900 59783816 
745.835 59895808 60012972 60130276 60234600 60312976 60359084 60378540 
749.209 60387104 60403556 60440680 60498916 60568696 60637264 60699296 
752.584 60761752 60842708 60961760 61130968 61347440 61595328 61852528 
755.959 62102120 62340036 62573992 62817528 63079708 63360712 63652604 
759.334 63947268 64244852 64559640 64916552 65343648 65858544 66465392 
762.709 67155272 67917528 68749896 69668704 70706928 71915464 73356072 
766.083 75097064 77225160 79841488 83047280 86925264 91483608 96611704 
769.458 102020864 107263672 111780632 114966904 116361912 115746624 
772.351 113219472 109157112 104128912 98764416 93576144 88938184 85042592 
775.726 81919032 79493984 77639816 76226736 75134912 74272576 73576056 
779.101 72998776 72512944 72105568 71774720 71525448 71363944 71292944 
782.475 71310592 71411544 71591160 71848056 72184640 72602936 73101960 
785.850 73673960 74306424 74987216 75709040 76474216 77292888 78179824 
789.225 79148472 80206960 81360656 82615400 83983648 85489352 87166080 
792.600 89051576 91183848 93591464 96291632 99287992 102570752 106113784 
795.975 109868816 113768960 117723216 121623440 125368800 128874328 
798.867 132089776 135005104 137638544 140017376 142155376 144046320 
801.760 145669360 147013216 148103856 149025952 149920128 150982432 
804.653 152419328 154418192 157132304 160648096 164982848 170073312 
807.546 175781056 181877888 188035520 193870352 198932640 202759968 
810.438 204968448 205266656 203514672 199732496 194082048 186839584 
813.331 178343888 168993920 159192064 149302352 139656272 130500864 
816.224 121997048 114240000 107258792 101042120 95554792 90748336 86566832 
819.598 82946840 79823328 77129056 74799504 72781792 71033456 69523400 
822.973 68230064 67133960 66215096 65453432 64828024 64322964 63928224 
826.348 63639364 63454652 63370452 63377960 63463128 63608332 63795456 
829.723 64009076 64236136 64462616 64672680 64846300 64961568 65002204 
833.098 64962648 64853488 64699368 64535728 64399124 64317004 64306788 
836.473 64372996 64510620 64709716 64957724 65242140 65547400 65856420 
839.847 66152000 66418052 66645064 66831336 66982692 67107736 67213248 
843.222 67299592 67360720 67386336 67367144 67299824 67188800 67044556 
846.597 66879644 66706172 66532896 66366480 66213740 66083208 65984844 
849.972 65929188 65923288 65969952 66067048 66210540 66397048 66626676 
853.347 66901556 67224968 67596888 68013192 68465384 68943992 69442680 
856.721 69961248 70505384 71083680 71705264 72375456 73095576 73865112 
860.096 74685248 75561152 76502832 77522480 78629784 79830936 81126192 
863.471 82513416 83991120 85562256 87235424 89024728 90945408 93014488 
866.846 95250768 97675544 100317432 103210792 106387456 109867368 113641576 
870.221 117661824 121824504 125974056 129924448 133456408 136356304 
873.113 138444224 139575984 139675616 138739792 136844336 134134592 
876.006 130808848 127105128 123249760 119446024 115859880 112599640 
878.899 109733352 107295312 105293768 103722296 102563192 101791064 
881.792 101371784 101265584 101432168 101829176 102417744 103162512 
884.684 104026424 104971800 105959656 106947992 107900384 108790000 
887.577 109601136 110330816 110983808 111568096 112090152 112554816 
890.470 112967976 113340152 113690000 114043624 114428016 114867656 
893.362 115376664 115955592 116590624 117255760 117917136 118531024 
896.255 119050008 119427128 119617840 119592624 119345000 118897760 
899.148 118301144 117625376 116952128 116353208 115886224 115590944 
902.040 115488824 115592720 115911760 116454880 117230936 118246760 
904.933 119503656 120998120 122723224 124673480 126846136 129242408 
907.826 131863848 134708176 137764800 141015648 144434976 147996720 
910.719 151677952 155457776 159317904 163235232 167178176 171108896 
913.611 174985344 178767152 182424960 185937040 189285520 192449824 
916.504 195396224 198075968 200432096 202400864 203924160 204956560 
919.397 205461696 205416432 204810752 203653168 201977024 199845232 
922.289 197355072 194622288 191771328 188928016 186198544 183677712 
925.182 181452848 179599904 178192096 177291280 176928256 177089936 
928.075 177698640 178615920 179630256 180485792 180929584 180721456 
930.967 179694496 177782960 175031792 171596400 167712400 163679424 
933.860 159790848 156300192 153403424 151204272 149728816 148938352 
936.753 148756912 149089040 149838224 150923888 152272000 153812368 
939.646 155476832 157182736 158834352 160329424 161551296 162385152 
942.538 162732752 162516544 161703728 160315968 158438080 156205568 
945.431 153784976 151358048 149077280 147055200 145360240 144013680 
948.324 143008688 142321904 141927712 141800080 141913024 142239312 
951.216 142746480 143400256 144171168 145036544 145984704 147012560 
954.109 148119888 149303904 150556512 151865456 153219456 154612944 
957.002 156047728 157530608 159067792 160659424 162297472 163968112 
959.894 165657488 167358768 169073968 170812528 172584016 174392096 
962.787 176231104 178088768 179950560 181808128 183662192 185520752 
965.680 187393728 189285872 191194080 193108896 195021056 196926848 
968.573 198831232 200744352 202675392 204624368 206579664 208520000 
971.465 210424032 212277808 214080544 215842672 217581872 219315440 
974.358 221055456 222812576 224601344 226443360 228371920 230425520 
977.251 232637040 235028624 237605024 240358320 243275104 246345696 
980.143 249568688 252946608 256477536 260144176 263904208 267696496 
983.036 271442848 275056896 278460000 281577184 284340128 286694208 
985.929 288599072 290044704 291061472 291730400 292175776 292536672 
988.821 292957920 293554880 294400576 295533728 296964576 298690528 
991.714 300705792 303003392 305570688 308381216 311396864 314572224 
994.607 317865088 321251680 324727840 328304992 331996864 335807488 
997.500 339725088 343728672 347798080 351927904 356131584 360436960 
1000.392 364870464 369442912 374143712 378946464 383823584 388759488 
1003.285 393758688 398838688 404016800 409294080 414650368 420050720 
1006.178 425464288 430879232 436309024 441781440 447320064 452922624 
1009.070 458555136 464156800 469662688 475028000 480232736 485276576 
1011.963 490156672 494846816 499289728 503412064 507143072 510445344 
1014.856 513320320 515799232 517915200 519680864 521080608 522084064 
1017.748 522670976 522855584 522688992 522247008 521601088 520788416 
1020.641 519808000 518629856 517221632 515565024 513663584 511525344 
1023.534 509139008 506454720 503387744 499827808 495677600 490876672 
1026.427 485402656 479266496 472490784 465096576 457106944 448563680 
1029.320 439551904 430203200 420696544 411237984 402014240 393192128 
1032.213 384904192 377243552 370288864 364102976 358724320 354163488 
1035.106 350384416 347303488 344787584 342680192 340829536 339096544 
1037.999 337380544 335614464 333751616 331761888 329624608 327330688 
1040.892 324887840 322321920 319671616 316972128 314245504 311491968 
1043.785 308695040 305833760 302899872 299906496 296891072 293902400 
1046.678 290985120 288172832 285482176 282919264 280490848 278209632 
1049.571 276093888 274162464 272423456 270869280 269477664 268221824 
1052.464 267079584 266041216 265108400 264286496 263572432 262948480 
1055.357 262380208 261822816 261235568 260584080 259844400 258998368 
1058.250 258023744 256892320 255574112 254045104 252301808 250366480 
1061.144 248288800 246131696 243960048 241834000 239800864 237901504 
1064.037 236179488 234679552 233450400 232536368 231964400 231739856 
1066.930 231842928 232236704 232870608 233689312 234638800 235658496 
1069.823 236682128 237641664 238465216 239094592 239495312 239660464 
1072.716 239609344 239375424 238995248 238495888 237893872 237201408 
1075.609 236433056 235612592 234773664 233949936 233169760 232449456 
1078.502 231792912 231198304 230665872 230201696 229817008 229520400 
1081.395 229310688 229171920 229076448 228995808 228906992 228802384 
1084.288 228687616 228575648 228476192 228390464 228310160 228224240 
1087.181 228126112 228018912 227914608 227828976 227774624 227756352 
1090.074 227775072 227835248 227951584 228155744 228490976 228999296 
1092.967 229712496 230638800 231760944 233037920 234415296 235834800 
1095.860 237234272 238554368 239738784 240732096 241492160 241995616 
1098.753 242244192 242262128 242087056 241753712 241276672 240643904 
1101.646 239818672 238756256 237415344 235773664 233833760 231618720 
1104.540 229166128 226518112 223723904 220837232 217914208 215016832 
1107.433 212200000 209503152 206945248 204521456 202209040 199976848 
1110.326 197797280 195651360 193528448 191422160 189324368 187221296 
1113.219 185098064 182942192 180751600 178536480 176318368 174124144 
1116.112 171978272 169901872 167911952 166023008 164252448 162617184 
1119.005 161129536 159790032 158580992 157465280 156387872 155290192 
1121.898 154118384 152830112 151401824 149823920 148095968 146222528 
1124.791 144210048 142068288 139810496 137455984 135028800 132553248 
1127.684 130054384 127554776 125073760 122630624 120243136 117926272 
1130.577 115690704 113538752 111464688 109455440 107496424 105576424 
1133.470 103692216 101850376 100064912 98354536 96735680 95222136 93823144 
1136.845 92543968 91388520 90359448 89457864 88681672 88024240 87474752 
1140.221 87018808 86641576 86329984 86072816 85860544 85682520 85524904 
1143.596 85370240 85199192 84991528 84731696 84409320 84019224 83560872 
1146.971 83036008 82449272 81808008 81125312 80421432 79721640 79056560 
1150.346 78457000 77948296 77551040 77278432 77137256 77130368 77256584 
1153.722 77511032 77882640 78353560 78898824 79485112 80076896 80637768 
1157.097 81130944 81523928 81785448 81885016 81796168 81496944 80973648 
1160.472 80224456 79259176 78098424 76767312 75295184 73710704 72039592 
1163.847 70308600 68543408 66768268 65007128 63279444 61599488 59977020 
1167.223 58417404 56924032 55500044 54149240 52876084 51684940 50579280 
1170.598 49561136 48632120 47793892 47049800 46404748 45864784 45436280 
1173.973 45125240 44935992 44873160 44941468 45148028 45502724 46018408 
1177.348 46709040 47590168 48676820 49983356 51525304 53318624 55380672 
1180.724 57730928 60387184 63365312 66676432 70323056 74295728 78565376 
1184.099 83080656 87751512 92443680 96990000 101178496 104784072 107606784 
1187.474 109481608 110318896 110112200 108937424 106935648 104288160 
1190.367 101208192 97899112 94542552 91292344 88249472 85468984 82959912 
1193.742 80693664 78613504 76648080 74730184 72800600 70818808 68767440 
1197.118 66648960 64484448 62305348 60151932 58064584 56077728 54219288 
1200.493 52506156 50944364 49531276 48257828 47111908 46080448 45152444 
1203.868 44318764 43571772 42904760 42310540 41781472 41310520 40891656 
1207.243 40521824 40200648 39930852 39717092 39564484 39478220 39462836 
1210.619 39522276 39661040 39883192 40192688 40592464 41083588 41665300 
1213.994 42335192 43089720 43925148 44836640 45818096 46860336 47949748 
1217.369 49069948 50201072 51321840 52413584 53458940 54443796 55358504 
1220.744 56197296 56960376 57654148 58293212 58898304 59492536 60099912 
1224.120 60739344 61422584 62154268 62932564 63751748 64603508 65479012 
1227.495 66368520 67260632 68143528 69005160 69835576 70629264 71386080 
1230.870 72111952 72816472 73514200 74223200 74964728 75766752 76663296 
1234.245 77691648 78894136 80311592 81979896 83931056 86190632 88778976 
1237.621 91713912 95008888 98671800 102700600 107082456 111789848 116781576 
1240.996 122010960 127424432 132963944 138571264 144178000 149704720 
1243.889 155067568 160172304 164925488 169242384 173037360 176226336 
1246.782 178721696 180422832 181227920 181046000 179804016 177467648 
1249.675 174043952 169582880 164171152 157930576 151017792 143604640 
1252.568 135881424 128043472 120260232 112682144 105426624 98568888 92158456 
1255.943 86217424 80746208 75730336 71142528 66947556 63102656 59564588 
1259.319 56293244 53252172 50413804 47759084 45275440 42956264 40798028 
1262.694 38798516 36955444 35265356 33723280 32323598 31059650 29924306 
1266.069 28910542 28010346 27215360 26516594 25905426 25374112 24917518 
1269.444 24532744 24219250 23977650 23808808 23712880 23690204 23741890 
1272.820 23871358 24084318 24388604 24790264 25290798 25882990 26549244 
1276.195 27260306 27976348 28653294 29243072 29699910 29987956 30081764 
1279.570 29971802 29664718 29182330 28557812 27828234 27033970 26210886 
1282.945 25388374 24591192 23836948 23138420 22504976 21941800 21450050 
1286.321 21027644 20669302 20368166 20117282 19911184 19746582 19621178 
1289.696 19532966 19478348 19451976 19448164 19460744 19486108 19522810 
1293.071 19571022 19631336 19703066 19783686 19869974 19959298 20051380 
1296.446 20148828 20256540 20380112 20523276 20687580 20871970 21074806 
1299.822 21294992 21533330 21791582 22072338 22377134 22706060 23058364 
1303.197 23434140 23834918 24264656 24728176 25229132 25768320 26342218 
1306.572 26943814 27562764 28188608 28810188 29415746 29993354 30529852 
1309.947 31011570 31426922 31768158 32032396 32222308 32344088 32405276 
1313.323 32411486 32365684 32268170 32118656 31917054 31665466 31367618 
1316.698 31029508 30657026 30256476 29835676 29403478 28971142 28551548 
1320.073 28156966 27797042 27476840 27196594 26952910 26740686 26556782 
1323.448 26400560 26273960 26180090 26121570 26099964 26115412 26168864 
1326.823 26262450 26399996 26586442 26825090 27116702 27458380 27845404 
1330.199 28273190 28738848 29242044 29783864 30363880 30978298 31618320 
1333.574 32270058 32916992 33540514 34120840 34639748 35078596 35420740 
1336.949 35654328 35773800 35782940 35695156 35533852 35327928 35105752 
1340.324 34893604 34710376 34567984 34474172 34434356 34453692 34537776 
1343.700 34691324 34917376 35217240 35591280 36040560 36567860 37176256 
1347.075 37867488 38638336 39478948 40371984 41295068 42225516 43140404 
1350.450 44018716 44841528 45587916 46236060 46765348 47157004 47400064 
1353.825 47492536 47442048 47264128 46978980 46610128 46180600 45713868 
1357.201 45234620 44765852 44330656 43949456 43636688 43401768 43248660 
1360.576 43179268 43196760 43308440 43524448 43855532 44306476 44872056 
1363.951 45534408 46266140 47034068 47798696 48518920 49151236 49647348 
1367.326 49964248 50067232 49938304 49580856 49018792 48290780 47437872 
1370.702 46499480 45507772 44485060 43451604 42428896 41443256 40529752 
1374.077 39727184 39069604 38583108 38281128 38168420 38249100 38533280 
1377.452 39039368 39795016 40828348 42161984 43806312 45753148 47971284 
1380.827 50396832 52935216 55447260 57756668 59684888 61059568 61752860 
1384.203 61699312 60890280 59373120 57238016 54631108 51739208 48766744 
1387.578 45920464 43356216 41160300 39352976 37902592 36750972 35830364 
1390.953 35080320 34449996 33899572 33403012 32944586 32519426 32132070 
1394.328 31794042 31519190 31318612 31196304 31147462 31158532 31207234 
1397.704 31265662 31304654 31298530 31235182 31120338 30977658 30839614 
1401.079 30737534 30696282 30728786 30839294 31026730 31288524 31621310 
1404.454 32018948 32468646 32946874 33419330 33849240 34203140 34461656 
1407.829 34624068 34707544 34740996 34755424 34779832 34834220 34930336 
1411.205 35075904 35276928 35539752 35868400 36262740 36715312 37212280 
1414.580 37739236 38285144 38846088 39425536 40029664 40661888 41319372 
1417.955 41993440 42675832 43365372 44074892 44825584 45633256 46504824 
1421.330 47433180 48404556 49405660 50433488 51498260 52620700 53823344 
1424.706 55120240 56512564 57990924 59544824 61171512 62880516 64690216 
1428.081 66618828 68675880 70857816 73152120 75546280 78037944 80635648 
1431.456 83350704 86187720 89135616 92171408 95260544 98370736 101475440 
1434.831 104537584 107504624 110296176 112812432 114966304 116723392 
1437.724 118121320 119239120 120167624 120976840 121699384 122330496 
1440.617 122829560 123132056 123150312 122788064 121961296 120604024 
1443.510 118691512 116246016 113340024 110080008 106580616 102959272 
1446.404 99315312 95735512 92310192 89129352 86274608 83800792 81717216 
1449.779 79988008 78546200 77322496 76262280 75338976 74552024 73912920 
1453.154 73426840 73080240 72835896 72639864 72437264 72183424 71867840 
1456.529 71523920 71222128 71034816 71000832 71119504 71363784 71701160 
1459.905 72104440 72554728 73036456 73531776 74021072 74480352 74883432 
1463.280 75209288 75446024 75597936 75685056 75742048 75806792 75909936 
1466.655 76074992 76316984 76645304 77067728 77590736 78220720 78964080 
1470.030 79828984 80825744 81964808 83253928 84693640 86278896 88001240 
1473.406 89863144 91887464 94109544 96575032 99324856 102378280 105729064 
1476.781 109344184 113178792 117186632 121334304 125606000 129990192 
1479.674 134475728 139047872 143683744 148363808 153076464 157818864 
1482.567 162588800 167372800 172129888 176792032 181257344 185389472 
1485.460 189040800 192046896 194238624 195461392 195575216 194472816 
1488.353 192099744 188480448 183748736 178152928 172052912 165848016 
1491.246 159882864 154408016 149537792 145275600 141571680 138356704 
1494.139 135578976 133224400 131310000 129863056 128881680 128306120 
1497.032 127996968 127746912 127339136 126564144 125258264 123335008 
1499.925 120778496 117651392 114071448 110197856 106191080 102170456 
1502.818 98215920 94335888 90466552 86486840 82242528 77607408 72566984 
1506.194 67306592 62191468 57613780 53805680 50766348 48329000 46290984 
1509.569 44480764 42790152 41171156 39617332 38142264 36758580 35470532 
1512.944 34270436 33142698 32069850 31034916 30021080 29012052 27995962 
1516.319 26972300 25958222 24986196 24092304 23301970 22615924 22007986 
1519.695 21429128 20827370 20167814 19456828 18745722 18106866 17593870 
1523.070 17216974 16946714 16732680 16528387 16302895 16051047 15788965 
1526.445 15542566 15330491 15155642 15007205 14871711 14743423 14629326 
1529.820 14544519 14503165 14509263 14551611 14606229 14644337 14647935 
1533.196 14618703 14581352 14567612 14601775 14687553 14811574 14951850 
1536.571 15088433 15209102 15308902 15387439 15443502 15469150 15450884 
1539.946 15378617 15257214 15109703 14966392 14849355 14760563 14681898 
1543.321 14583065 14437427 14232396 13977297 13698785 13430123 13195440 
1546.697 13000009 12833262 12675484 12510193 12330033 12141157 11958358 
1550.072 11797186 11665038 11558246 11466347 11378753 11291890 11209976 
1553.447 11142660 11099556 11084600 11093948 11119205 11150819 11182641 
1556.822 11208854 11220346 11201204 11130014 10993686 10805423 10606785 
1560.198 10445639 10350039 10324658 10354348 10415637 10483281 10538545 
1563.573 10573309 10592084 10608857 10640367 10697824 10781068 10879992 
1566.948 10979787 11068523 11140655 11198110 11248296 11299474 11357597 
1570.323 11424980 11503839 11598638 11715788 11861539 12037995 12240629 
1573.698 12456689 12668968 12862647 13031180 13184100 13344523 13539564 
1577.074 13784454 14078593 14410059 14765842 15138076 15526048 15933650 
1580.449 16364340 16816160 17280620 17743574 18190506 18611754 19003120 
1583.824 19365320 19699738 20005234 20277230 20509486 20698146 20845168 
1587.199 20959242 21055152 21148548 21253096 21378276 21529500 21710868 
1590.575 21928800 22191894 22510490 22893020 23342454 23855710 24425756 
1593.950 25045900 25713264 26430454 27204178 28041340 28945676 29915608 
1597.325 30945100 32025832 33148740 34302312 35471680 36636928 37769960 
1600.700 38839856 39815388 40668944 41382748 41949536 42372380 42662488 
1604.076 42836188 42910064 42895764 42798636 42616284 42341328 41964824 
1607.451 41480292 40887720 40194504 39415052 38569164 37683220 36787032 
1610.826 35914032 35099144 34370196 33743836 33222024 32792088 32430802 
1614.201 32109092 31799532 31479680 31138740 30782168 30430902 30114542 
1617.577 29858710 29676780 29566884 29515600 29501166 29498612 29483684 
1620.952 29433510 29332750 29177156 28975604 28748656 28521650 28316440 
1624.327 28143426 28001228 27880484 27769066 27655802 27532262 27393298 
1627.702 27236562 27062040 26872322 26672226 26468874 26268856 26077834 
1631.078 25897478 25724020 25548204 25355286 25126922 24842468 24484752 
1634.453 24045796 23535918 22986638 22444364 21954242 21542450 21211796 
1637.828 20947524 20728170 20531996 20342192 20149800 19952844 19756706 
1641.203 19569636 19399654 19250314 19118856 18995920 18867550 18717942 
1644.579 18531074 18294518 18003176 17661850 17287824 16907956 16553136 
1647.954 16248371 16008174 15834840 15719425 15644468 15583331 15501805 
1651.329 15355343 15096529 14697424 14177824 13616825 13111117 12721747 
1654.704 12451609 12269735 12138125 12027912 11922461 11815265 11706053 
1658.080 11597516 11492203 11390522 11290700 11188964 11080896 10961844 
1661.455 10828047 10677821 10513220 10341556 10174063 10023996 9902386 
1664.830 9814260 9758106 9726016 9705787 9682477 9642296 9575222 9477409 
1668.688 9352464 9210330 9064925 8929412 8813721 8723584 8659965 8619675 
1672.545 8595274 8575672 8546474 8493288 8407610 8292057 8162761 8042346 
1676.402 7950951 7897366 7877627 7879247 7888492 7895274 7896691 7897569 
1680.260 7906375 7930873 7971267 8018820 8054261 8053620 7994925 7870677 
1684.117 7696951 7511224 7352975 7243701 7184071 7161299 7160086 7166352 
1687.975 7169990 7165072 7148398 7119667 7081844 7041128 7006343 6986543 
1691.832 6988395 7013582 7057360 7108384 7151834 7172516 7161400 7120879 
1695.689 7068406 7028634 7020081 7048166 7102994 7166621 7216007 7229652 
1699.547 7195693 7118488 7022304 6937689 6888167 6879145 6902979 6945769 
1703.404 6993513 7034292 7059280 7064904 7053420 7032238 7010720 6996914 
1707.262 6994961 7004457 7022102 7043283 7064836 7085616 7107137 7132197 
1711.119 7163455 7201824 7245756 7291713 7335149 7372488 7401438 7420616 
1714.977 7428537 7421694 7393821 7337811 7249361 7131220 6995803 6861607 
1718.834 6745490 6657564 6599058 6563904 6543082 6527105 6509312 6485466 
1722.691 6454155 6415919 6372441 6325471 6276557 6228152 6183113 6143994 
1726.549 6112977 6090093 6073595 6060054 6047085 6034385 6024709 6023533 
1730.406 6035292 6061197 6096847 6131325 6148464 6132904 6075443 5981573 
1734.264 5872642 5778345 5721770 5710020 5737148 5789594 5852928 5913450 
1738.121 5961249 5990911 6002132 5999478 5991113 5985469 5987485 5998470 
1741.979 6015839 6034754 6050042 6057702 6056157 6046480 6031294 6013689 
1745.836 5996051 5978952 5961652 5942404 5919362 5890812 5854943 5809608 
1749.693 5751786 5678798 5589981 5488699 5383448 5285132 5204275 5147373 
1753.551 5114817 5101306 5097015 5091115 5073816 5040596 4993200 4939508 
1757.408 4889912 4852317 4830002 4820620 4818208 4814992 4804003 4781356 
1761.266 4746081 4701397 4652832 4607421 4571524 4550060 4545373 4556858 
1765.123 4580799 4610435 4638163 4656315 4660535 4651928 4636120 4621486 
1768.980 4614386 4616061 4621720 4622624 4608091 4571993 4515340 4447615 
1772.838 4383079 4333312 4303695 4292284 4292485 4297103 4301822 4305402 
1776.695 4308949 4314438 4322068 4329597 4333580 4329597 4315609 4292418 
1780.553 4263775 4234698 4208701 4187123 4167619 4146744 4120318 4085598 
1784.410 4042520 3993227 3941632 3892651 3851263 3821646 3807206 3809746 
1788.268 3829000 3861794 3902079 3941465 3970822 3982259 3972093 3942000 
1792.125 3899103 3853069 3813590 3786750 3773848 3772946 3781101 3794738 
1795.982 3811618 3829635 3847854 3865371 3881451 3896027 3908899 3919832 
1799.840 3928525 3934510 3936817 3935346 3930531 3924111 3918395 3916422 
1803.697 3920066 3930331 3946380 3966777 3989582 4012857 4036133 4059310 
1807.555 4082555 4105767 4128145 4148216 4164641 4176016 4181770 4182238 
1811.412 4177822 4169826 4159791 4149755 4142094 4139719 4144971 4159188 
1815.270 4182138 4211579 4244067 4275921 4304264 4328259 4349075 4369022 
1819.127 4391079 4417321 4449054 4486916 4531277 4582339 4639871 4702469 
1822.984 4767688 4831509 4889510 4938469 4978017 5011031 5042171 5076129 
1826.842 5115622 5160215 5206321 5249213 5285300 5313474 5336350 5358859 
1830.699 5386937 5423640 5469271 5521484 5576321 5630393 5681417 5728317 
1834.557 5771395 5811085 5847286 5879628 5906900 5928196 5942740 5950936 
1838.414 5953859 5953724 5952985 5953456 5956345 5960779 5963936 5961014 
1842.271 5946368 5915633 5867571 5806887 5742755 5687661 5651339 5638080 
1846.129 5645733 5667687 5695584 5722140 5744098 5761322 5776834 5794228 
1849.986 5815753 5841409 5869183 5896354 5921108 5943983 5966556 5991348 
1853.844 6019770 6051117 6083373 6113985 6141036 6164528 6185668 6206741 
1857.701 6229362 6253732 6279045 6303585 6326480 6347628 6367532 6387068 
1861.559 6406100 6423990 6439358 6452137 6463571 6476923 6496766 6525994 
1865.416 6565148 6610765 6656016 6692153 6711232 6708877 6685356 6646158 
1869.273 6598890 6551592 6509076 6472820 6440602 6408656 6373013 6330145 
1873.131 6278271 6216993 6147355 6071276 5991113 5909453 5827741 5746548 
1876.988 5664733 5580919 5493027 5399786 5302171 5201995 5102614 5007545 
1880.846 4919301 4838914 4765879 4698684 4635920 4576948 4522103 4472387 
1884.703 4428936 4392451 4362496 4338232 4318721 4302123 4287031 4271002 
1888.561 4251629 4226735 4195988 4160493 4124399 4092589 4069243 4056968 
1892.418 4055028 4060146 4067470 4072855 4074093 4071383 4067069 4064193 
1896.275 4064326 4067169 4070514 4071885 4069711 4064025 4056668 4049978 
1900.133 4045831 4044962 4046400 4048473 4049310 4047604 4043156 4035865 
1903.990 4026300 4014963 4002222 3989181 3977778 3969485 3965807 3966777 
1907.848 3970622 3974200 3974166 3968214 3956311 3940228 3922674 3906191 
1911.705 3892250 3881016 3871789 3864569 3859755 3858217 3861092 3867878 
1915.563 3876002 3882421 3883591 3877673 3865972 3851999 3840299 3833814 
1919.420 3832544 3833446 3832243 3824788 3809312 3787418 3762752 3739892 
1923.277 3722848 3713457 3711251 3715729 3725053 3738722 3756134 3776121 
1927.135 3796410 3814593 3828332 3837123 3843207 3850595 3863097 3883123 
1930.992 3909802 3939292 3966610 3987643 4001252 4009880 4017873 4029009 
1934.850 4045430 4066066 4087505 4106102 4119749 4128848 4135672 4143299 
1938.707 4152431 4162065 4169124 4169927 4161563 4144302 4120218 4092723 
1942.564 4064861 4037571 4009713 3979818 3946346 3910370 3874230 3842371 
1946.422 3819173 3807674 3809278 3822883 3845814 3874798 3905723 3935413 
1950.279 3960657 3979951 3992892 4000952 4006336 4011485 4017639 4024160 
1954.137 4028407 4027270 4018074 4000517 3976173 3948887 3921504 3896596 
1957.994 3873996 3852367 3830137 3807072 3784477 3765125 3751322 3743835 
1961.852 3741462 3742064 3743702 3747010 3754563 3770974 3799351 3839597 
1965.709 3886833 3933139 3968783 3987241 3985569 3966877 3936015 3898568 
1969.566 3858785 3818103 3776689 3734979 3694308 3658553 3632157 3618558 
1973.424 3619828 3635598 3664468 3706005 3760680 3829635 3913479 4009345 
1977.281 4110551 4206962 4288102 4345528 4376084 4380971 4364738 4334484 
1981.139 4297773 4260429 4227772 4203482 4189397 4185985 4192074 4203984 
1984.996 4217568 4228943 4235535 4237475 4236974 4237074 4240219 4247011 
1988.854 4256346 4265348 4272709 4278330 4284688 4294928 4312497 4338265 
1992.711 4370729 4406309 4440987 4471416 4496859 4517885 4536433 4554079 
1996.568 4572060 4590711 4609932 4629623 4650019 4670884 4690813 4707325 
2000.426 4716369 4714426 4699186 4671152 4632805 4588300 4543163 4500843 
2004.283 4464721 4435631 4414107 4399748 4392920 4392451 4397505 4406878 
2008.141 4418024 4430074 4443765 4460704 4484071 4516813 4558867 4607454 
2011.998 4657722 4702770 4737807 4760184 4772110 4777269 4781959 4791909 
2015.855 4810938 4840858 4880898 4928550 4981469 5036137 5090008 5141338 
2019.713 5189186 5233853 5276513 5318673 5361676 5406127 5451823 5497994 
2023.570 5544841 5592565 5641672 5692663 5743896 5792112 5833215 5863843 
2027.428 5882818 5894137 5904280 5920705 5950029 5993532 6048026 6107936 
2031.285 6167519 6225093 6282541 6346417 6423183 6516712 6624895 6740980 
2035.143 6854740 6958496 7047257 7120610 7181511 7233122 7276921 7312402 
2039.000 7338586 7355873 7366927 7378285 7397326 7430727 7481660 7548444 
2042.857 7626670 7707945 7785424 7852964 7906847 7945586 7969951 7983315 
2046.715 7990403 7998436 8014466 8043696 8086464 8138182 8189704 8230190 
2050.572 8251127 8249202 8227657 8195208 8162052 8137811 8127649 8130755 
2054.430 8141896 8154084 8160904 8159891 8152193 8142099 8134435 8133456 
2058.287 8139566 8151551 8165225 8176503 8181094 8177076 8164010 8143719 
2062.145 8119310 8094431 8072185 8054903 8042886 8034346 8026651 8016424 
2066.002 8001270 7980582 7955744 7929388 7905059 7884949 7870103 7859846 
2069.859 7852289 7845103 7837006 7828133 7819529 7813592 7812749 7818046 
2073.717 7829617 7845204 7861837 7875839 7884207 7886164 7882823 7877324 
2077.574 7873679 7875400 7884072 7898985 7916836 7933371 7944810 7949500 
2081.432 7948488 7945181 7943764 7947712 7958579 7975283 7995229 8014871 
2085.289 8031376 8043359 8050413 8052775 8050514 8043359 8029992 8009944 
2089.146 7982977 7949872 7912280 7872363 7831776 7792373 7756617 7726765 
2093.004 7706158 7697996 7704674 7726159 7760091 7801515 7844225 7882857 
2096.861 7913326 7933978 7945282 7948151 7943055 7930097 7909109 7880596 
2100.719 7847296 7812749 7782253 7760023 7748285 7746228 7750714 7757021 
2104.576 7760968 7759855 7753345 7742382 7728958 7714859 7700897 7687338 
2108.434 7673612 7659279 7644509 7629570 7615171 7602256 7592141 7585532 
2112.291 7582936 7583644 7585465 7584959 7577811 7559941 7529463 7486919 
2116.148 7436289 7383744 7335822 7297172 7270014 7253269 7243835 7238209 
2120.006 7233897 7229887 7227124 7226619 7228438 7231470 7233189 7230527 
2123.863 7221094 7204250 7180770 7153080 7123540 7093968 7065308 7037895 
2127.721 7011259 6984927 6958226 6930686 6901700 6871470 6840872 6812329 
2131.578 6788533 6773220 6768946 6776451 6793784 6817243 6842117 6864266 
2135.436 6881333 6892846 6900421 6905403 6907995 6907658 6901531 6887662 
2139.293 6864199 6831413 6790654 6744783 6696090 6647638 6600807 6557445 
2143.150 6517721 6481329 6447193 6413195 6377586 6338920 6298206 6257362 
2147.008 6219615 6187819 6163150 6143624 6125444 6104408 6076518 6041911 
2150.865 6001930 5960308 5919026 5877949 5833719 5780864 5715459 5636066 
2154.723 5546686 5455883 5375665 5318908 5296972 5318774 5388279 5506081 
2158.580 5665404 5855145 6059382 6259245 6437138 6579950 6681319 6743436 
2162.438 6775542 6791192 6802568 6819464 6845854 6880929 6921024 6961762 
2166.295 6999507 7033282 7061671 7083595 7097909 7103803 7100637 7090465 
2170.152 7076859 7063624 7054262 7050524 7052039 7057326 7066049 7078274 
2174.010 7095585 7119094 7148465 7180500 7210617 7234065 7248047 7252999 
2177.867 7253471 7255156 7263511 7281268 7308325 7342764 7381554 7422874 
2181.725 7466255 7511460 7557648 7601987 7640226 7668048 7682752 7684674 
2185.582 7677254 7664844 7652703 7642789 7636078 7631998 7629233 7627783 
2189.439 7628727 7631897 7637191 7643497 7649399 7654761 7661944 7675063 
2193.297 7699176 7737458 7789202 7849860 7912955 7971470 8022027 8064252 
2197.154 8101891 8138790 8176840 8215130 8249843 8277940 8298035 8312558 
2201.012 8327352 8348259 8378896 8418521 8462643 8505013 8541406 8570738 
2204.869 8595780 8621467 8652292 8689542 8732306 8777034 8820957 8863091 
2208.727 8904012 8944361 8983836 9019625 9047772 9064993 9071015 9069222 
2212.584 9067699 9073925 9093143 9126776 9170903 9220415 9269358 9315463 
2216.441 9358795 9401084 9443410 9484419 9520691 9548361 9565331 9573122 
2220.299 9576001 9579388 9587348 9600187 9615465 9629151 9638433 9643752 
2224.156 9648833 9658963 9678207 9707515 9744686 9785182 9824867 9861778 
2228.014 9896792 9932149 9969205 10007584 10044138 10075301 10098192 
2231.389 10113318 10123696 10134854 10151270 10175861 10208629 10248014 
2234.764 10291644 10338604 10388860 10443162 10501815 10563395 10625019 
2238.139 10683832 10737797 10787081 10833381 10879142 10925554 10973194 
2241.515 11020431 11066620 11111454 11157211 11206338 11260605 11319573 
2244.890 11379671 11436478 11485433 11524322 11555285 11582509 11611400 
2248.265 11645230 11684779 11727873 11772094 11815606 11858882 11904786 
2251.640 11956416 12015411 12080953 12149608 12216773 12278734 12333510 
2255.016 12380623 12420308 12452461 12475410 12487925 12489629 12482979 
2258.391 12473807 12469135 12474966 12494267 12526153 12565783 12607770 
2261.766 12647818 12684934 12721065 12759484 12802104 12849371 12898997 
2265.141 12947639 12992498 13032682 13069252 13103843 13137925 13171839 
2268.517 13205038 13236634 13267106 13298365 13332873 13372679 13417991 
2271.892 13466999 13516730 13564484 13609440 13652931 13697417 13744815 
2275.267 13795741 13848315 13899527 13946810 13989957 14030577 14072432 
2278.642 14118160 14168890 14223392 14279168 14333410 14385878 14437872 
2282.018 14492443 14551919 14616921 14685086 14752815 14816442 14874180 
2285.393 14926679 14976543 15026242 15076906 15127028 15174102 15215244 
2288.768 15249904 15279591 15307803 15338420 15374017 15415006 15459468 
2292.143 15504929 15550052 15594527 15640106 15688438 15740486 15795460 
2295.519 15851747 15906943 15959600 16010134 16059848 16109981 16161665 
2298.894 16214596 16268013 16321369 16375247 16431231 16491318 16556473 
2302.269 16625874 16697040 16766427 16831796 16892558 16950814 17009766 
2305.644 17072484 17140312 17211942 17284344 17354686 17421350 17485474 
2309.020 17549568 17616472 17688008 17764180 17842644 17920780 17996510 
2312.395 18069248 18139788 18208994 18277516 18344876 18410206 18473438 
2315.770 18535814 18600272 18670172 18748006 18834262 18926660 19021398 
2319.145 19115360 19206260 19294478 19381188 19467224 19551508 19630434 
2322.521 19698698 19751888 19787398 19806852 19814274 19815592 19816596 
2325.896 19821660 19833590 19854540 19885930 19928944 19984590 20052108 
2329.271 20129080 20210994 20292890 20370598 20442066 20508164 20571216 
2332.646 20634346 20698874 20764732 20830324 20894812 20957850 21021246 
2336.021 21087708 21159818 21238484 21323042 21411308 21501262 21592140 
2339.397 21684222 21778622 21876146 21975398 22073766 22167102 22251564 
2342.772 22324460 22384110 22429710 22460972 22477546 22481072 22476012 
2346.147 22471720 22479780 22513594 22584302 22697716 22853556 23045366 
2349.522 23262886 23494086 23726806 23952370 24164880 24361654 24541754 
2352.898 24705308 24852502 24983916 25101400 25208236 25308010 25403902 
2356.273 25497042 25586020 25667738 25739946 25802494 25858476 25913130 
2359.648 25971272 26036106 26107106 26181218 26254284 26323806 26389646 
2363.023 26453732 26518708 26585772 26654468 26723280 26790236 26855720 
2366.399 26921674 26991446 27067928 27151902 27241466 27333166 27423896 
2369.774 27512176 27598246 27684690 27773764 27866282 27961576 28057918 
2373.149 28153644 28248330 28343426 28440312 28540792 28644942 28751734 
2376.524 28859654 28967916 29077058 29188850 29305136 29426596 29552094 
2379.900 29678624 29803238 29923522 30039828 30154106 30269834 30389642 
2383.275 30514712 30643690 30774878 30905892 31036090 31166364 31298492 
2386.650 31433940 31572956 31713870 31854544 31993196 32129430 32264314 
2390.025 32399670 32536746 32674934 32812420 32946482 33074826 33197452 
2393.401 33316102 33432964 33550068 33667348 33782692 33893516 33997524 
2396.776 34094064 34185400 34274740 34364848 34457492 34552412 34648472 
2400.151 34744908 34841940 34941576 35046196 35157272 35274736 35396184 
2403.526 35519144 35641600 35763260 35886212 36012840 36145188 36283488 
2406.902 36425688 36569016 36711520 36852996 36995056 37140340 37290764 
2410.277 37446440 37605712 37766236 37926240 38085940 38247076 38412108 
2413.652 38582312 38756924 38933168 39107960 39279088 39446436 39612828 
2417.027 39781508 39954896 40133188 40314612 40495924 40675096 40852012 
2420.403 41028780 41208716 41394412 41586244 41782280 41979460 42175384 
2423.778 42368836 42561208 42754540 42950556 43149440 43349736 43549576 
2427.153 43747708 43944800 44143112 44345224 44552752 44764824 44979280 
2430.528 45193512 45405568 45616144 45827300 46041616 46260536 46482476 
2433.904 46704536 46923496 47137320 47346740 47554564 47764076 47977024 
2437.279 48193104 48409520 48623040 48832288 49038340 49244452 49454744 
2440.654 49671788 49895556 50123716 50352704 50580324 50806048 51031412 
2444.029 51258004 51485984 51713156 51936000 52151000 52357020 52556112 
2447.405 52752828 52952284 53157156 53366764 53577528 53784680 53984464 
2450.780 54176304 54361852 54544128 54724756 54902900 55075588 55239016 
2454.155 55391020 55532204 55665252 55794088 55921148 56046212 56166904 
2457.530 56280116 56384156 56480300 56571740 56662336 56754500 56848080 
2460.906 56940356 57028004 57108716 57183056 57253628 57323608 57394280 
2464.281 57464432 57530096 57586688 57631032 57662396 57682832 57695396 
2467.656 57701716 57701600 57692252 57671364 57637008 57590168 57533084 
2471.031 57468784 57398440 57321264 57234688 57136416 57026340 56907416 
2474.406 56784820 56663548 56546944 56434904 56324324 56210872 56091604 
2477.782 55965660 55834284 55700132 55564544 55427388 55287256 55142472 
2481.157 54992736 54839516 54685140 54531544 54378672 54223976 54063936 
2484.532 53896072 53719988 53538732 53356836 53178612 53005704 52836904 
2487.907 52668652 52497072 52320620 52140500 51959936 51782284 51608924 
2491.283 51438540 51267700 51092716 50911356 50723892 50532564 50339604 
2494.658 50145992 49950680 49751480 49546280 49334940 49119584 48903780 
2498.033 48690496 48480684 48272716 48063508 47849672 47629728 47404352 
2501.408 47175732 46945904 46715236 46482700 46246716 46006472 45763788 
2504.784 45522340 45286544 45059400 44841160 44628868 44418364 44205692 
2508.159 43989932 43772700 43557488 43347360 43143768 42945252 42749388 
2511.534 42554004 42359084 42167424 41983108 41809528 41648088 41497864 
2514.909 41356252 41221100 41091892 40969496 40856412 40753772 40660756 
2518.285 40574424 40491124 40408168 40325444 40245644 40172332 40108404 
2521.660 40055132 40010552 39971608 39936044 39902808 39872732 39847672 
2525.035 39828244 39812844 39798356 39780924 39757796 39728820 39696000 
2528.410 39662020 39628660 39595808 39561220 39522748 39479604 39433988 
2531.786 39389980 39351996 39322288 39299836 39280100 39257944 39229292 
2535.161 39193680 39153648 39113836 39078048 39047452 39020628 38994672 
2538.536 38966948 38936972 38906568 38877828 38852432 38829784 38807316 
2541.911 38781960 38752396 38719652 38687304 38658724 38635400 38615772 
2545.287 38595204 38569056 38533932 38490848 38444072 38399800 38362268 
2548.662 38332520 38307764 38282940 38253444 38217368 38176196 38133908 
2552.037 38094588 38060512 38031580 38005288 37979396 37952528 37925120 
2555.412 37899012 37875876 37856352 37840228 37826600 37815144 37807512 
2558.788 37805452 37809972 37820780 37834516 37846844 37853568 37853208 
2562.163 37847168 37840264 37837516 37842396 37855376 37873740 37893880 
2565.538 37913368 37931808 37951368 37975128 38005612 38043008 38085256 
2568.913 38130180 38176452 38224716 38277544 38337184 38404252 38476652 
2572.289 38550228 38620516 38685708 38747036 38809056 38877324 38956292 
2575.664 39047092 39147772 39254132 39362048 39469188 39575372 39681768 
2579.039 39789820 39899540 40010192 40120868 40231580 40343768 40459516 
2582.414 40580500 40706244 40833732 40958168 41075392 41183032 41282424 
2585.790 41376768 41470520 41566696 41665192 41763820 41859328 41949204 
2589.165 42033372 42114084 42194296 42276500 42361532 42448732 42536576 
2592.540 42624728 42713556 42804928 42900008 42998328 43097664 43194672 
2595.915 43286548 43372620 43455120 43537924 43625292 43719380 43819980 
2599.291 43924120 44029276 44133648 44237828 44344196 44455692 44573644 
2602.666 44697612 44824924 44952932 45080132 45207004 45335348 45467480 
2606.041 45604144 45744312 45885700 46026032 46164236 46301596 46440480 
2609.416 46583164 46730436 46881084 47032552 47182600 47330560 47477788 
2612.792 47626696 47779388 47936096 48094600 48251680 48404556 48552188 
2616.167 48696648 48840856 48988080 49139028 49292032 49443196 49589472 
2619.542 49729448 49864784 49999192 50136884 50280084 50428724 50579764 
2622.917 50729776 50876188 51018256 51157384 51295476 51433540 51571124 
2626.292 51706476 51838020 51965164 52089544 52213772 52340388 52470748 
2629.668 52604096 52737972 52870020 52998740 53124688 53249284 53374596 
2633.043 53501364 53628884 53755312 53879344 54000372 54119968 54239820 
2636.418 54361772 54485636 54609688 54730696 54845940 54954452 55056932 
2639.793 55155864 55253616 55351616 55449784 55546888 55642048 55735088 
2643.169 55827240 55920316 56015300 56111888 56207480 56299544 56385856 
2646.544 56465884 56541400 56615300 56690048 56766316 56843320 56918712 
2649.919 56990752 57059552 57126516 57194888 57267316 57345196 57427708 
2653.294 57512696 57598076 57682868 57767604 57854092 57944084 58038524 
2656.670 58137040 58238304 58341300 58445836 58552824 58663780 58779208 
2660.045 58898380 59019332 59139864 59258184 59374868 59491964 59612704 
2663.420 59739636 59873788 60013544 60156840 60301172 60445560 60590716 
2666.795 60738472 60890508 61047252 61207448 61369112 61530496 61691100 
2670.171 61851652 62014436 62180912 62351244 62524392 62698648 62872708 
2673.546 63046872 63222980 63403772 63591144 63785596 63985348 64187692 
2676.921 64390092 64591200 64792060 64994432 65200404 65411052 65625860 
2680.296 65843544 66062764 66282824 66504316 66728124 66954636 67183040 
2683.672 67411760 67638544 67862592 68084112 68305392 68528312 68754056 
2687.047 68981816 69208920 69432024 69649064 69859552 70065776 70270544 
2690.422 70476696 70684936 70894168 71101784 71306024 71506032 71703040 
2693.797 71899120 72095832 72293424 72490160 72683928 72872616 73055736 
2697.173 73234624 73411152 73586928 73761864 73934288 74101504 74261920 
2700.548 74415112 74563080 74709024 74855872 75005208 75157008 75309968 
2703.923 75462816 75615328 75768488 75924144 76083800 76248184 76416608 
2707.298 76588584 76763872 76943192 77127912 77319296 77516816 77717880 
2710.674 77918392 78113456 78299320 78474024 78637880 78791824 78936968 
2714.049 79072856 79198368 79312064 79413656 79504288 79586984 79664560 
2717.424 79738720 79809072 79873624 79929704 79975392 80010720 80037416 
2720.799 80057736 80073384 80084024 80088448 80084704 80071912 80051472 
2724.175 80025896 79997936 79969608 79940776 79909504 79873304 79830576 
2727.550 79781720 79728648 79674072 79619616 79565688 79511136 79454120 
2730.925 79394040 79331520 79268480 79206960 79148032 79090624 79032632 
2734.300 78971704 78906728 78838464 78769232 78701112 78634904 78569664 
2737.676 78502448 78430088 78351064 78265832 78176328 78085104 77993488 
2741.051 77900632 77804352 77702224 77592672 77476024 77354648 77230584 
2744.426 77105080 76977128 76844544 76705280 76558592 76406024 76251176 
2747.801 76097696 75947896 75801856 75658040 75514072 75368888 75223512 
2751.177 75080320 74942016 74810128 74683672 74559456 74434016 74304376 
2754.552 74169032 74028304 73882672 73731904 73574800 73408600 73231296 
2757.927 73042296 72843232 72637040 72427088 72214728 71999464 71779368 
2761.302 71551696 71315400 71071264 70821768 70569768 70317096 70063904 
2764.677 69809576 69553192 69296008 69041008 68792992 68556784 68335376 
2768.053 68129736 67938408 67759832 67592744 67438072 67297616 67173680 
2771.428 67066716 66975356 66896112 66824728 66757948 66693656 66631228 
2774.803 66570512 66510500 66449024 66383540 66311620 66232576 66147372 
2778.178 66058404 65967872 65876892 65784440 65689028 65588668 65483132 
2781.554 65373844 65263508 65154516 65048000 64942868 64837068 64727976 
2784.929 64615116 64498864 64380980 64263180 64145060 64024820 63899084 
2788.304 63763992 63617616 63459292 63289792 63109824 62919200 62716528 
2791.679 62500252 62269592 62026016 61773332 61516908 61261356 61010148 
2795.055 60764764 60525384 60291924 60066240 59850896 59649384 59464228 
2798.430 59295444 59140396 58995192 58855804 58719876 58587404 58459636 
2801.805 58338156 58222732 58111248 57999824 57885060 57764728 57638368 
2805.180 57507852 57374692 57239832 57102784 56961468 56814164 56659996 
2808.556 56499204 56333076 56162676 55988464 55810060 55626984 55440300 
2811.931 55252676 55068216 54891996 54727196 54574820 54433616 54301280 
2815.306 54176380 54059844 53954412 53864416 53793716 53743580 53713052 
2818.681 53699216 53699068 53710920 53734580 53770652 53819556 53879572 
2822.057 53947280 54017668 54085740 54148792 54205848 54257504 54304808 
2825.432 54347580 54384604 54413524 54431928 54439628 54437072 54425652 
2828.807 54406876 54381152 54347652 54305900 54256264 54200668 54142708 
2832.182 54085888 54032600 53982736 53934304 53884336 53830772 53774180 
2835.558 53716804 53662060 53612764 53569580 53531572 53496568 53463664 
2838.933 53434060 53411724 53401800 53408916 53436348 53485024 53554512 
2842.308 53644816 53757152 53894948 54062284 54262312 54496420 54763204 
2845.683 55058888 55378416 55715800 56064424 56414984 56755404 57069904 
2849.059 57339716 57546892 57677080 57721620 57679500 57556616 57363424 
2852.434 57112268 56816468 56489504 56144016 55793180 55449596 55123100 
2855.809 54820792 54545592 54296400 54069792 53862016 53670836 53494808 
2859.184 53333944 53188012 53055532 52933832 52820624 52714180 52614644 
2862.560 52524068 52444724 52377732 52322412 52276180 52236044 52199608 
2865.935 52166544 52138036 52116368 52103068 52098284 52100828 52109344 
2869.310 52123056 52143492 52172668 52212352 52262352 52319684 52379080 
2872.685 52434444 52481364 52518568 52547848 52573016 52598336 52627024 
2876.061 52660536 52699140 52743024 52793236 52851160 52918040 52994248 
2879.436 53078332 53167604 53259848 53354140 53451560 53554700 53666560 
2882.811 53787828 53917308 54051176 54185236 54316600 54444208 54569000 
2886.186 54692772 54815904 54937044 55052308 55157332 55248388 55323876 
2889.562 55383756 55429456 55461904 55481372 55486752 55477720 55454828 
2892.937 55420760 55379316 55334188 55286996 55237248 55182576 55120428 
2896.312 55049672 54971376 54888012 54801768 54712728 54617468 54509680 
2899.687 54383404 54233364 54058084 53859840 53643240 53413340 53174344 
2903.063 52928892 52679276 52428164 52180104 51940520 51715100 51508260 
2906.438 51322176 51156788 51011360 50885688 50781652 50703372 50654636 
2909.813 50639852 50660740 50717860 50810036 50935948 51094396 51283396 
2913.188 51499604 51736524 51984400 52230888 52463568 52670412 52842704 
2916.563 52974520 53062272 53103532 53096456 53040216 52935592 52785564 
2919.939 52595380 52371376 52119056 51842132 51541612 51217516 50870488 
2923.314 50503680 50123604 49739368 49360144 48993680 48644572 48314632 
2926.689 48004108 47713112 47442676 47194348 46969084 46766304 46582684 
2930.064 46414188 46256332 46106900 45965400 45833708 45713644 45605508 
2933.440 45507508 45416200 45327516 45238776 45149208 45059696 44972152 
2936.815 44887672 44806296 44727176 44650200 44576396 44508956 44452096 
2940.190 44409188 44382104 44369884 44369588 44377040 44389188 44403684 
2943.565 44419060 44434696 44448280 44456832 44457456 44447948 44427836 
2946.941 44399612 44366656 44333224 44302072 44274552 44250960 44231408 
2950.316 44216732 44208260 44207304 44213688 44225172 44237864 44247292 
2953.691 44250520 44247440 44240836 44235076 44234564 44241716 44256576 
2957.066 44277524 44302952 44332308 44366912 44408492 44458264 44515308 
2960.442 44576396 44637092 44693352 44743336 44787672 44829440 44872312 
2963.817 44918976 44971416 45031100 45099540 45179980 45276504 45393056 
2967.192 45531648 45691448 45868024 46054988 46245904 46435540 46620788 
2970.567 46799924 46971152 47131596 47277096 47402984 47505844 47584880 
2973.943 47642228 47682052 47708824 47725688 47734344 47734860 47727132 
2977.318 47712264 47692700 47671700 47652136 47635680 47622628 47612792 
2980.693 47606508 47605436 47612464 47631020 47663300 47709156 47766260 
2984.068 47830692 47898468 47966552 48032460 48094120 48148312 48190440 
2987.444 48215284 48217580 48194588 48146092 48074204 47982200 47870944 
2990.819 47739484 47584732 47402836 47192060 46954580 46696492 46426872 
2994.194 46154100 45885148 45623024 45368156 45118988 44874264 44633900 
2997.569 44399244 44172348 43955136 43749360 43556352 43378040 43216564 
3000.945 43073768 42950848 42846468 42757536 42679192 42606744 42537016 
3004.320 42469448 42405588 42347540 42296696 42252728 42213652 42177064 
3007.695 42141648 42107876 42077868 42054068 42037056 42025848 42017420 
3011.070 42008404 41996468 41981396 41964716 41948588 41933804 41919356 
3014.446 41902352 41879800 41849736 41812556 41770240 41725628 41679964 
3017.821 41632552 41580880 41521776 41454156 41378992 41299768 41220848 
3021.196 41145728 41075284 41008276 40941860 40873196 40800756 40724148 
3024.571 40643256 40557544 40464648 40361548 40245356 40114908 39971644 
3027.947 39818840 39661040 39501300 39341728 39182548 39023708 38865872 
3031.322 38711100 38561668 38419276 38283116 38150620 38016968 37878336 
3034.697 37733056 37582696 37431308 37283036 37140700 37004476 36871572 
3038.072 36738312 36602104 36462440 36320772 36179364 36038972 35898344 
3041.448 35754336 35603328 35442416 35271716 35093180 34910048 34724844 
3044.823 34538852 34351832 34163100 33972980 33783552 33598144 33420152 
3048.198 33251710 33092416 32939974 32791518 32645180 32500536 32359044 
3051.573 32222346 32091218 31964734 31840604 31716614 31591308 31465538 
3054.948 31341262 31220230 31103642 30990398 30878568 30765880 30651832 
3058.324 30537248 30424682 30316376 30213494 30115252 30019696 29924908 
3061.699 29830566 29737804 29649498 29567664 29492798 29423262 29355792 
3065.074 29287766 29217518 29146008 29075536 29008120 28944682 28883876 
3068.449 28822616 28758214 28689432 28616698 28541996 28467126 28392626 
3071.825 28317254 28238676 28155024 28066012 27973734 27881580 27792238 
3075.200 27707114 27625118 27543840 27460992 27375934 27289836 27205414 
3078.575 27124780 27048498 26974734 26900664 26823648 26742802 26659754 
3081.950 26577002 26497470 26421898 26349084 26276282 26201454 26124210 
3085.326 26046556 25971658 25902438 25839698 25781854 25725356 25666580 
3088.701 25603980 25538366 25472516 25409452 25351422 25298174 25248374 
3092.076 25200056 25151636 25103714 25057378 25013678 24972860 24933942 
3095.451 24895272 24856432 24818434 24783530 24754518 24732736 24717022 
3098.827 24704256 24690296 24671988 24648808 24622752 24597084 24574782 
3102.202 24556726 24541160 24525242 24506416 24484084 24459792 24436446 
3105.577 24416256 24399572 24384958 24369292 24350264 24327518 24302674 
3108.952 24278776 24257964 24240938 24225836 24210282 24192204 24171290 
3112.328 24149712 24129850 24113738 24101060 24089396 24075108 24055810 
3115.703 24031400 24004086 23977370 23954050 23934514 23916940 23897790 
3119.078 23874158 23845594 23813880 23781822 23752072 23725336 23699618 
3122.453 23672252 23641218 23606510 23570828 23538122 23511432 23491322 
3125.829 23476072 23461978 23445610 23425746 23403436 23381372 23362350 
3129.204 23347036 23333960 23320708 23304558 23284768 23262640 23240444 
3132.579 23220800 23204440 23190774 23177668 23164108 23149918 23136778 
3135.954 23126574 23120738 23118258 23117242 23114588 23108718 23100260 
3139.330 23092152 23087296 23088240 23094390 23102950 23110046 23112352 
3142.705 23108822 23101098 23091908 23083628 23076814 23070314 23062034 
3146.080 23050434 23035828 23020246 23006410 22996594 22990724 22987126 
3149.455 22983702 22979022 22973954 22971336 22973710 22982724 22997502 
3152.831 23014306 23029014 23038414 23041908 23041698 23040964 23042606 
3156.206 23047358 23053928 23059586 23062068 23061368 23058818 23057072 
3159.581 23058190 23062800 23069614 23077442 23085478 23094494 23106864 
3162.956 23124828 23148834 23177634 23207378 23234430 23256348 23273652 
3166.332 23288754 23305360 23326022 23350916 23378436 23405886 23431656 
3169.707 23455928 23480584 23507760 23538646 23572158 23605322 23635094 
3173.082 23659902 23680196 23699020 23720052 23745074 23774016 23804712 
3176.457 23834184 23860576 23884240 23907382 23932834 23962070 23994388 
3179.833 24027130 24057422 24083514 24105928 24127084 24149712 24174968 
3183.208 24202154 24228288 24249730 24264902 24274080 24279830 24285470 
3186.583 24293108 24302674 24312730 24321036 24327132 24332424 24339890 
3189.958 24352156 24370098 24391478 24412296 24428348 24437252 24439566 
3193.333 24438794 24439390 24443948 24453060 24464980 24476548 24486118 
3196.709 24494322 24503400 24516372 24535024 24558374 24583690 24607674 
3200.084 24628328 24646178 24663432 24683352 24707412 24735436 24764376 
3203.459 24790860 24812856 24830468 24845764 24861518 24879798 24900606 
3206.834 24922468 24943662 24963594 24983846 25007466 25037300 25074578 
3210.210 25117582 25162732 25205710 25243738 25276610 25306428 25336354 
3213.585 25368738 25404044 25441178 25477822 25512890 25546344 25579554 
3216.960 25614276 25651182 25689568 25727748 25764522 25799540 25834390 
3220.335 25871770 25913376 25959452 26007962 26055702 26099930 26139866 
3223.711 26176960 26214688 26255938 26302156 26351726 26401898 26448942 
3227.086 26491168 26528782 26564040 26599440 26636748 26675996 26715670 
3230.461 26754890 26793162 26831612 26871828 26914658 26958974 27002164 
3233.836 27041270 27074170 27101466 27126330 27152536 27183330 27219310 
3237.212 27257518 27294140 27325262 27349220 27367606 27383876 27401556 
3240.587 27422802 27447086 27472322 27496324 27518388 27539392 27561812 
3243.962 27587796 27617596 27649554 27681018 27709446 27734416 27757586 
3247.337 27781748 27809616 27842046 27877588 27913698 27948184 27979988 
3250.713 28010240 28041024 28073576 28107934 28142544 28175386 28204908 
3254.088 28232170 28259682 28290306 28325848 28365284 28405608 28443034 
3257.463 28475406 28502826 28528230 28555336 28586794 28622432 28659240 
3260.838 28692972 28720760 28741894 28758888 28775810 28795776 28819606 
3264.214 28845348 28869286 28888478 28902008 28912420 28923008 28937458 
3267.589 28957258 28981412 29007130 29032278 29055872 29079114 29103950 
3270.964 29131730 29161884 29191934 29218618 29239634 29254662 29266180 
3274.339 29277276 29290462 29306482 29323710 29340266 29354588 29367174 
3277.715 29380220 29395818 29414894 29435814 29455280 29469712 29477762 
3281.090 29480812 29482868 29488364 29500138 29517976 29538722 29558088 
3284.465 29573516 29585116 29595864 29609414 29628214 29651556 29676000 
3287.840 29696860 29711266 29719178 29724144 29731098 29743516 29762394 
3291.216 29785602 29808954 29829076 29845046 29858568 29872766 29890052 
3294.591 29910424 29931404 29949756 29962820 29970808 29976242 29982916 
3297.966 29993282 30008122 30024916 30040468 30052754 30062128 30071574 
3301.341 30084960 30105380 30133330 30166286 30201096 30234842 30267098 
3304.717 30299534 30334068 30371948 30411604 30449630 30482826 30509414 
3308.092 30531418 30553314 30580868 30617344 30662748 30713244 30763354 
3311.467 30808418 30847262 30881806 30916458 30955312 30999898 31049506 
3314.842 31101864 31154474 31207270 31261816 31320642 31385426 31455632 
3318.218 31528700 31601284 31671028 31738180 31805166 31875190 31950324 
3321.593 32030146 32111734 32191298 32266170 32336414 32404598 32474254 
3324.968 32547850 32625712 32705658 32784618 32860414 32932826 33003714 
3328.343 33075720 33149454 33224098 33296462 33363544 33424340 33481062 
3331.719 33537578 33598540 33666204 33739072 33812488 33880692 33939300 
3335.094 33987704 34029272 34068552 34110016 34155000 34202032 34247132 
3338.469 34287392 34321280 34350184 34376864 34403764 34431308 34458392 
3341.844 34482424 34501508 34515680 34526620 34536520 34547144 34557796 
3345.219 34565940 34569528 34566768 34558764 34548648 34539932 34535088 
3348.595 34534048 34534080 34531680 34524180 34510764 34492396 34471160 
3351.970 34448204 34423456 34395872 34363956 34327700 34289044 34251108 
3355.345 34216692 34186616 34159444 34131880 34100300 34063424 34021964 
3358.720 33978856 33937260 33898604 33862492 33826528 33788456 33747276 
3362.096 33704016 33660724 33619124 33578596 33536144 33487790 33430208 
3365.471 33363224 33290096 33216442 33147346 33085268 33029348 32975398 
3368.846 32918852 32856804 32789334 32719198 32649394 32581780 32515104 
3372.221 32446512 32372576 32291438 32204360 32114838 32026474 31941768 
3375.597 31860784 31780992 31699896 31615716 31529274 31442240 31357006 
3378.972 31273636 31190322 31104034 31012104 30913790 30811442 30708194 
3382.347 30607566 30510588 30415586 30318898 30217720 30110814 30000098 
3385.722 29889198 29780918 29676354 29574086 29470670 29363592 29252748 
3389.098 29140906 29032458 28931084 28837380 28748232 28659240 28565562 
3392.473 28465606 28361074 28256322 28155340 28059792 27967586 27874054 
3395.848 27774682 27667174 27553516 27438366 27327554 27224814 27131092 
3399.223 27043526 26958584 26872570 26784596 26695020 26605216 26515328 
3402.599 26424082 26329158 26228906 26123154 26014504 25906448 25802178 
3405.974 25702330 25605280 25507548 25405764 25299194 25188924 25077774 
3409.349 24968544 24862186 24757324 24652070 24544770 24436446 24330006 
3412.724 24229198 24136576 24051292 23969492 23885502 23795192 23697272 
3416.100 23594022 23489958 23389484 23294244 23202868 23111442 23015948 
3419.475 22914852 22809412 22702568 22597984 22497542 22400438 22304368 
3422.850 22207518 22109048 22010566 21913990 21820326 21728600 21635184 
3426.225 21536322 21429756 21316534 21200558 21087152 20980522 20881114 
3429.601 20786108 20690604 20590532 20484892 20376222 20269038 20167606 
3432.976 20073694 19985560 19898834 19809662 19715998 19619030 19521736 
3436.351 19427338 19337224 19250488 19164148 19075438 18983112 18887656 
3439.726 18790906 18694282 18597748 18499368 18397796 18292688 18186292 
3443.102 18082548 17985702 17897232 17815304 17734220 17647492 17550156 
3446.477 17441734 17325478 17207840 17094988 16990092 16893076 16801418 
3449.852 16711950 16623085 16534926 16448576 16364925 16282668 16199118 
3453.227 16111184 16017353 15918285 15817452 15718704 15624374 15534014 
3456.603 15444738 15352802 15256220 15155677 15054712 14957338 14866431 
3459.978 14781028 14697699 14611986 14520809 14424274 14325671 14229555 
3463.353 14139108 14054636 13973362 13891179 13805694 13716909 13627731 
3466.728 13541923 13462009 13386962 13313193 13235815 13151347 13059520 
3470.104 12963820 12868586 12778081 12693395 12613467 12535190 12456587 
3473.479 12377452 12299968 12226349 12157377 12091038 12023075 11949298 
3476.854 11867192 11778222 11686788 11598162 11516020 11440220 11367529 
3480.229 11293489 11214770 11131714 11047960 10968572 10897115 10834672 
3483.604 10778045 10722649 10664476 10601625 10534640 10465359 10395580 
3486.980 10324963 10251678 10173894 10090935 10004940 9919980 9840120 
3490.355 9767424 9700197 9634876 9567228 9494951 9419063 9343696 9273522 
3494.212 9211616 9157569 9108064 9058733 9006331 8950924 8894712 8841482 
3498.070 8793501 8750123 8708236 8663379 8612578 8555024 8492342 8427102 
3501.927 8361061 8293949 8224180 8150370 8073906 7998671 7930097 7873174 
3505.785 7829482 7795949 7766736 7734759 7694893 7646330 7591972 7536981 
3509.642 7485571 7439761 7398539 7359412 7319749 7279078 7237771 7197445 
3513.500 7158302 7119330 7078678 7034528 6987587 6940012 6895135 6855851 
3517.357 6822393 6791966 6760398 6724289 6682765 6638050 6594550 6555393 
3521.214 6521723 6490410 6457081 6417096 6369079 6314847 6259278 6207010 
3525.072 6159554 6115430 6070168 6019669 5961719 5898302 5833618 5771831 
3528.929 5715089 5661410 5607199 5548902 5485075 5418339 5353156 5294356 
3532.787 5243679 5199681 5157901 5113409 5063793 5009556 4953249 4898457 
3536.644 4846218 4794756 4740487 4680363 4613951 4544502 4477810 4418727 
3540.501 4370461 4332275 4300383 4270668 4240788 4210609 4182004 4155910 
3544.359 4131089 4102657 4064661 4012589 3945978 3869917 3791830 3720241 
3548.216 3659556 3609203 3564970 3521576 3474847 3424182 3371552 3319998 
3552.074 3271487 3225753 3180724 3134565 3087844 3043297 3004960 2976301 
3555.931 2957419 2945142 2934300 2919623 2898408 2871357 2841840 2812792 
3559.789 2785813 2759536 2731527 2700219 2667313 2637343 2616509 2609375 
3563.646 2615809 2629943 2641477 2639243 2614009 2562577 2488091 2398824 
3567.503 2304878 2214783 2134429 2066808 2013111 1973400 1947006 1931031 
3571.361 1920747 1910130 1894289 1870229 1839482 1806076 1776199 1753642 
3575.218 1738905 1728259 1716483 1698920 1674072 1643672 1612242 1583077 
3579.076 1557438 1533762 1508758 1481029 1451905 1426208 1410185 1408656 
3582.933 1423017 1449612 1481694 1511219 1531900 1539548 1532133 1509091 
3586.791 1470490 1417066 1352115 1282057 1216462 1165395 1136093 1130346 
3590.648 1143701 1167355 1191675 1208620 1214933 1211544 1202573 1191808 
3594.505 1179714 1164498 1143136 1113836 1078725 1042952 1012861 992370 
3598.363 981710 976795 971615 961984 947075 930571 917422 912541 916758 
3602.702 927915 941928 955144 967331 980548 997817 1020168 1045044 1066235 
3607.042 1076566 1071550 1051554 1023522 997020 979983 975633 980747 989016 
3611.382 993898 992105 984898 976928 973873 978721 991673 1009906 1029866 
3615.721 1048731 1065040 1077263 1083043 1079156 1061984 1030729 989780 
3619.579 947905 917223 907229 921374 956572 1005289 1059725 1114999 1171774 
3623.918 1234604 1309108 1397819 1497487 1598308 1687410 1751380 1780790 
3627.776 1775034 1742963 1701614 1669416 1661133 1682687 1732717 1805843 
3631.633 1895687 1996001 2100601 2203227 2298949 2385597 2465231 2543246 
3635.490 2627109 2721858 2828800 2944341 3062417 3177153 3285709 3389484 
3639.348 3493017 3600951 3714961 3833446 3952699 4070046 4185784 4304967 
3643.205 4434292 4579392 4740386 4911693 5081895 5238581 5371405 5475377 
3647.063 5551150 5602970 5634287 5645666 5635663 5604715 5559909 5516014 
3650.920 5490343 5495880 5536317 5603038 5680410 5748932 5791172 5796343 
3654.778 5760953 5690078 5595586 5492893 5396498 5316091 5256457 5217253 
3658.635 5194148 5179864 5165177 5140332 5096646 5030171 4942927 4842533 
3662.492 4738712 4641278 4555217 4480622 4414107 4352389 4294928 4244100 
3666.350 4203416 4174242 4153468 4134467 4111521 4088575 4084628 4137244 
3670.207 4293790 4593021 5057591 5690146 6483380 7430660 8528430 9770237 
3674.065 11115567 12465896 13656418 14469456 14722514 14340841 13372645 
3677.440 11953624 10250355 8432440 6641179 4995513 3586485 2458200 1613140 
3681.297 1014489 606610 329013 131992 -15208 -129832 -219556 -289528 -346013 
3685.637 -397492 -452805 -519529 -601033 -695985 -798260 -898658 -988488 
3689.494 -1060815 -1113168 -1146216 -1163367 -1168257 -1164953 -1155964 
3692.870 -1142547 -1125197 -1104244 -1080679 -1057046 -1036751 -1023364 
3696.245 -1019794 -1026405 -1041908 -1062699 -1085967 -1110061 -1135409 
3699.620 -1163730 -1197072 -1236159 -1279935 -1325193 -1368101 -1405390 
3702.995 -1435542 -1457635 -1471802 -1477548 -1474279 -1461862 -1440760 
3706.371 -1413415 -1383096 -1354426 -1331040 -1315481 -1309204 -1312244 
3709.746 -1325094 -1348282 -1381907 -1424149 -1470481 -1513077 -1544345 
3713.121 -1557749 -1551972 -1529685 -1497855 -1462952 -1431216 -1405984 
3716.496 -1388215 -1376919 -1370776 -1368761 -1370776 -1376754 -1385738 
3719.872 -1396175 -1405456 -1411401 -1412689 -1409683 -1404069 -1397364 
3723.247 -1390692 -1383525 -1375301 -1366383 -1358423 -1354162 -1356111 
3726.622 -1364368 -1375466 -1384054 -1383823 -1371536 -1348580 -1320304 
3729.997 -1294735 -1278448 -1274253 -1279274 -1285981 -1285882 -1274517 
3733.373 -1255322 -1238340 -1236457 -1259386 -1308874 -1377217 -1449578 
3736.748 -1510106 -1549099 -1564320 -1559631 -1541010 -1512879 -1477283 
3740.123 -1434453 -1385375 -1334442 -1289482 -1262425 -1266720 -1311021 
3743.498 -1395481 -1505450 -1614565 -1693323 -1724115 -1706888 -1655563 
3746.874 -1588651 -1522983 -1472792 -1446176 -1446737 -1471967 -1514365 
3750.249 -1563791 -1610010 -1645463 -1666390 -1671638 -1662528 -1641171 
3753.624 -1610010 -1571913 -1530115 -1488114 -1449512 -1418501 -1398388 
3756.999 -1390891 -1395845 -1410674 -1431877 -1455059 -1476623 -1493233 
3760.375 -1502808 -1503535 -1494058 -1474708 -1447101 -1415166 -1384747 
3763.750 -1361891 -1351883 -1356210 -1372130 -1392641 -1409386 -1416652 
3767.125 -1413052 -1402715 -1392443 -1390032 -1399940 -1421771 -1449842 
3770.500 -1477085 -1496799 -1506540 -1507761 -1504459 -1500398 -1497921 
3773.875 -1496171 -1492803 -1485275 -1472264 -1454432 -1434651 -1416817 
3777.251 -1404828 -1401228 -1406909 -1421407 -1442147 -1465891 -1487949 
3780.626 -1504162 -1511129 -1507662 -1495379 -1477944 -1461070 -1450040 
3784.001 -1448455 -1456711 -1471802 -1488940 -1503403 -1512318 -1515554 
3787.376 -1514893 -1512219 -1509181 -1505912 -1502148 -1497657 -1493629 
3790.752 -1492143 -1494983 -1502577 -1512846 -1521794 -1525624 -1522587 
3794.127 -1513903 -1504360 -1499870 -1504228 -1516082 -1528926 -1534143 
3797.502 -1524172 -1497921 -1460706 -1424842 -1404564 -1411797 -1450965 
3800.877 -1515917 -1590929 -1654837 -1691144 -1694049 -1668139 -1625096 
3804.253 -1578153 -1539723 -1518955 -1520936 -1545600 -1587165 -1634834 
3807.628 -1675367 -1698009 -1697745 -1675103 -1635692 -1587132 -1537114 
3811.003 -1490492 -1449412 -1413052 -1380255 -1350892 -1328463 -1318322 
3814.378 -1327307 -1358291 -1406810 -1459286 -1497657 -1507002 -1481807 
3817.754 -1427947 -1359942 -1296189 -1253043 -1242008 -1266291 -1319874 
3821.129 -1388414 -1454432 -1503865 -1529487 -1531402 -1514530 -1485011 
3824.504 -1448950 -1411698 -1377547 -1349141 -1327571 -1310889 -1296453 
3827.879 -1281058 -1263516 -1244882 -1228924 -1220003 -1221291 -1232888 
3831.255 -1250664 -1267744 -1277160 -1274154 -1258164 -1232426 -1203151 
3834.630 -1176023 -1155964 -1145951 -1147108 -1159236 -1180814 -1209198 
3838.005 -1239496 -1265531 -1281323 -1283305 -1271742 -1251126 -1229287 
3841.380 -1213692 -1209760 -1219342 -1239199 -1263681 -1285650 -1300417 
3844.756 -1305901 -1302697 -1292951 -1278581 -1260179 -1237613 -1210388 
3848.131 -1178501 -1142911 -1105897 -1069937 -1038503 -1015926 -1008587 
3851.506 -1024851 -1074631 -1164490 -1291068 -1435906 -1570361 -1665861 
3854.881 -1706260 -1693224 -1640511 -1567324 -1490129 -1420879 -1364897 
3858.257 -1321427 -1286245 -1254694 -1224166 -1195254 -1170736 -1153486 
3861.632 -1145191 -1144861 -1150875 -1161516 -1176717 -1197534 -1223968 
3865.007 -1252514 -1276730 -1288392 -1281983 -1257800 -1223406 -1191025 
3868.382 -1174602 -1184647 -1221291 -1273790 -1322814 -1351718 -1352180 
3871.758 -1328694 -1293149 -1260575 -1242470 -1242668 -1256875 -1274980 
3875.133 -1286641 -1283866 -1265068 -1233021 -1193503 -1152164 -1114093 
3878.508 -1083488 -1064021 -1058369 -1067557 -1088744 -1115547 -1138516 
3881.883 -1150280 -1146744 -1130419 -1109400 -1095189 -1098824 -1125726 
3885.259 -1172851 -1228428 -1277556 -1306628 -1309865 -1289912 -1255223 
3888.634 -1215443 -1179790 -1154742 -1143737 -1147471 -1164127 -1190199 
3892.009 -1220300 -1247922 -1267348 -1273955 -1265333 -1242338 -1208372 
3895.384 -1168158 -1126288 -1086364 -1050105 -1018042 -990703 -969644 
3898.760 -956718 -954205 -962470 -979298 -1000058 -1020686 -1037776 -1052221 
3902.617 -1067062 -1086331 -1112143 -1142547 -1172090 -1194197 -1204110 
3905.992 -1201202 -1188976 -1172619 -1157022 -1144530 -1134550 -1124536 
3909.367 -1112176 -1097172 -1081571 -1068648 -1061178 -1059658 -1061641 
3912.743 -1063227 -1060649 -1053411 -1043197 -1034834 -1032388 -1038338 
3916.118 -1051460 -1067888 -1082861 -1093172 -1098560 -1100972 -1102988 
3919.493 -1105335 -1106822 -1104509 -1095916 -1080382 -1060187 -1039098 
3922.868 -1021909 -1011232 -1007298 -1008323 -1011265 -1014009 -1016091 
3926.244 -1018141 -1020884 -1023760 -1024917 -1021446 -1011265 -994802 
3929.619 -975066 -956916 -945410 -943493 -951494 -966999 -986571 -1006835 
3933.476 -1026239 -1044056 -1060352 -1074399 -1084811 -1090330 -1090297 
3936.852 -1085637 -1078828 -1072218 -1068020 -1065607 -1062930 -1057443 
3940.227 -1047692 -1034669 -1021645 -1013083 -1011959 -1018670 -1030140 
3943.602 -1041445 -1047990 -1047527 -1040982 -1031628 -1023033 -1018240 
3946.977 -1018306 -1022074 -1028520 -1036123 -1045312 -1056782 -1070631 
3950.353 -1086000 -1100510 -1111978 -1118654 -1120538 -1119744 -1118852 
3953.728 -1119877 -1123181 -1127577 -1130518 -1130716 -1127841 -1123347 
3957.103 -1119513 -1117828 -1118687 -1120868 -1122454 -1122917 -1122322 
3960.478 -1122719 -1125660 -1132270 -1141226 -1149685 -1154477 -1153486 
3963.854 -1146844 -1136665 -1125495 -1115746 -1107681 -1100212 -1092049 
3967.229 -1082662 -1073474 -1066863 -1065343 -1069805 -1078564 -1087355 
3970.604 -1092511 -1090462 -1081406 -1067524 -1052915 -1041445 -1034735 
3973.979 -1032851 -1034140 -1037148 -1040883 -1045478 -1050998 -1056617 
3977.354 -1060484 -1060120 -1053840 -1041742 -1026339 -1011992 -1002505 
3980.730 -999893 -1003001 -1008786 -1013546 -1014637 -1012554 -1009480 
3984.105 -1008753 -1011827 -1018703 -1026702 -1032950 -1035660 -1035396 
3987.480 -1034867 -1037412 -1044783 -1056352 -1068813 -1077903 -1080580 
3990.855 -1075787 -1064979 -1051361 -1037710 -1025578 -1014835 -1004918 
3994.231 -995430 -988091 -984620 -987033 -995430 -1007662 -1020091 -1028785 
3998.088 -1031297 -1028157 -1021876 -1016025 -1013083 -1013480 
##END=
