
##TITLE=Z345_3_b
##JCAMP-DX=5.01  $$ Nicolet v. 1
##DATATYPE=INFRARED SPECTRUM
##ORIGIN=UniL
##OWNER=Nicolet
##LONGDATE=2011/09/14
##TIME=10:23:37
##SPECTROMETER/DATA SYSTEM=Nicolet iS5
##DATA PROCESSING=
Ratio against background
%Transmittance->Absorbance
Truncated
ElementMultiply or ElementDivide
##COMMENTS=
Number of sample scans: 32
Collection length: 51.22 sec
Sample gain: 2.0
Background collected on: Mer Sep 14 10:08:15 2011 (GMT+02:00);
Number of background scans: 32
Background gain: 2.0
Sample spacing:  1.000
Number of scan points: 12415
Resolution points: 8192
Number of FFT points: 65536
Apodization: N-B fort;
Phase correction: Mertz;
Laser frequency: 15798.0 cm-1
Number of rejected sample scans: 0
Number of rejected background scans: 0
Bench serial number: ASB1000141;
##RESOLUTION=4.000
##XUNITS=1/CM
##YUNITS=ABSORBANCE
##FIRSTX=649.893372
##LASTX=4000.122314
##FIRSTY=0.111059
##MAXX=4000.122314
##MINX=649.893372
##MAXY=0.477830
##MINY=-0.001683
##XFACTOR=1.000000
##YFACTOR=1.000000E-009
##NPOINTS=6950
##DELTAX=0.482117
##ZPD=6100
##XYDATA=(X++(Y..Y))
649.893 111058648 111271232 111612304 112042664 112504584 112958952 
652.786 113404592 113886136 114472520 115226904 116173616 117293920 
655.679 118534592 119843792 121193912 122593888 124074624 125667152 
658.571 127373520 129163848 130987864 132807360 134623024 136484592 
661.464 138472768 140659808 143081328 145712672 148481376 151293168 
664.357 154074160 156788016 159418144 161944832 164298160 166320064 
667.250 167790080 168501936 168384432 167543136 166175616 164439808 
670.142 162391360 160004832 157235552 154079728 150607696 146960608 
673.035 143293632 139745728 136384576 133213144 130205008 127344384 
675.928 124650296 122171336 119952872 118007440 116299888 114762424 
678.820 113323680 111938984 110604888 109349808 108206552 107184272 
681.713 106259544 105385616 104519592 103644144 102779224 101967184 
684.606 101253712 100659200 100170808 99750088 99356720 98968328 98587840 
687.981 98236736 97932408 97669696 97415928 97120008 96732864 96232208 
691.355 95626520 94949056 94235320 93505448 92755920 91968584 91126416 
694.730 90233808 89319216 88428760 87604984 86868112 86211208 85607168 
698.105 85029008 84462808 83917112 83414104 82975800 82606744 82291824 
701.480 82001584 81710456 81409376 81110408 80837000 80611400 80437984 
704.855 80301624 80174520 80032792 79870680 79704800 79566048 79482560 
708.229 79470032 79525976 79638920 79803424 80029968 80343768 80772752 
711.604 81323096 81962240 82610512 83160456 83499264 83536856 83235312 
714.979 82609832 81721728 80651968 79488296 78310704 77182928 76160872 
718.354 75289432 74597504 74096992 73777304 73613576 73573064 73629992 
721.729 73773256 74002056 74314520 74692688 75087608 75424656 75613944 
725.104 75569584 75239472 74614024 73728648 72646880 71446848 70205184 
728.478 68982400 67830432 66789636 65887848 65141388 64549336 64094244 
731.853 63745036 63468152 63237892 63040400 62875772 62748880 62660984 
735.228 62603920 62559604 62507564 62435592 62344472 62247868 62164548 
738.603 62107360 62077084 62062288 62045776 62016040 61973772 61932576 
741.978 61911636 61925276 61975452 62051204 62135764 62213876 62280488 
745.352 62340608 62403916 62475536 62551604 62618272 62661060 62672316 
748.727 62657768 62633924 62621832 62636488 62679516 62740648 62804772 
752.102 62862216 62915408 62978068 63066528 63191860 63352660 63535912 
755.477 63724428 63906416 64082192 64263096 64463540 64691908 64945564 
758.852 65213032 65482056 65749780 66027776 66339568 66712780 67165408 
762.227 67702248 68315632 68995832 69740944 70566184 71502240 72594984 
765.601 73898896 75474408 77398520 79763480 82663616 86177944 90317104 
768.976 94980808 99902440 104667136 108756496 111612480 112812464 112158696 
772.351 109746320 105925784 101223128 96219104 91385608 87067280 83441800 
775.726 80537480 78287808 76575584 75280208 74288568 73512272 72888920 
779.101 72372984 71938496 71575144 71283184 71069120 70939024 70893976 
782.475 70929672 71038832 71214984 71456272 71764400 72141528 72586408 
785.850 73091728 73646120 74239744 74868304 75536816 76257064 77043664 
789.225 77907768 78854288 79884216 80999560 82209336 83534488 85004992 
792.600 86654808 88516984 90615608 92964456 95566144 98412424 101482728 
795.975 104737384 108120616 111554216 114943768 118199832 121246512 
798.867 124038024 126564192 128840400 130891384 132732600 134365472 
801.760 135782624 136986720 138014816 138951584 139924720 141102992 
804.653 142657344 144737728 147462976 150895744 155041232 159838384 
807.546 165161552 170805952 176475536 181823232 186441424 189911584 
810.438 191888624 192112944 190463200 186962336 181760640 175110384 
813.331 167319168 158749056 149765904 140701360 131858360 123463464 
816.224 115664408 108550208 102149200 96453752 91433992 87048080 83245296 
819.598 79966984 77151656 74734952 72654944 70861288 69314048 67984208 
822.973 66851696 65897644 65102696 64447044 63911296 63480960 63148252 
826.348 62910392 62766528 62712736 62739112 62830472 62969336 63138904 
829.723 63327088 63525020 63723432 63910872 64070440 64182504 64232328 
833.098 64214772 64140180 64031772 63922620 63845656 63825124 63874864 
836.473 63996672 64184620 64428024 64714716 65032072 65364376 65693924 
839.847 66003704 66278540 66511072 66703236 66863956 67004696 67132992 
843.222 67248328 67342072 67400928 67412728 67372368 67283536 67156936 
846.597 67005620 66842420 66677004 66516868 66369912 66245928 66155664 
849.972 66109756 66114380 66170216 66272868 66416168 66595696 66811776 
853.347 67068496 67371752 67724632 68125664 68567888 69042368 69542064 
856.721 70064808 70613512 71193904 71811784 72469560 73167016 73902632 
860.096 74677896 75498616 76375808 77322304 78347776 79458688 80655520 
863.471 81937040 83302936 84758080 86311880 87978640 89772240 91706952 
866.846 93798344 96065008 98533336 101237144 104208464 107468624 111010552 
870.221 114787984 118700528 122596968 126297192 129590080 132272392 
873.113 134175120 135166592 135181920 134226336 132380320 129788312 
876.006 126641856 123166952 119574856 116052800 112751512 109767992 
878.899 107162384 104964624 103181664 101807440 100824288 100207240 99922000 
882.274 99928632 100187664 100658480 101304952 102095168 102995768 103971776 
885.648 104986560 106000216 106978168 107895584 108739136 109507528 
888.541 110206568 110843816 111424008 111949616 112423712 112853976 
891.434 113257272 113658192 114082528 114553688 115084528 115675000 
894.327 116311536 116969480 117617816 118217360 118725480 119099656 
897.219 119298904 119294888 119080168 118673920 118120888 117484912 
900.112 116840888 116254936 115781232 115458096 115308392 115347672 
903.005 115588432 116041800 116717232 117619296 118745640 120088200 
905.897 121635712 123380216 125318440 127452344 129785184 132316336 
908.790 135036576 137928496 140967344 144128720 147392304 150741376 
911.683 154162096 157636544 161137888 164631792 168078432 171438240 
914.575 174681008 177784112 180730064 183500336 186067216 188391840 
917.468 190429248 192129696 193448000 194348192 194799952 194781648 
920.361 194281296 193301104 191866304 190028800 187872432 185498544 
923.254 183016928 180538208 178155888 175952880 174005760 172381824 
926.146 171146400 170353728 170030320 170162192 170677520 171451696 
929.039 172298208 172995904 173329984 173100496 172172096 170495264 
931.932 168113184 165160480 161838096 158401392 155100432 152152656 
934.824 149726944 147913024 146733888 146155808 146112032 146518688 
937.717 147290048 148353632 149641168 151087088 152626848 154183872 
940.610 155671584 157000432 158071408 158789840 159076304 158870176 
943.502 158148272 156933232 155301216 153371168 151288720 149212080 
946.395 147273824 145571216 144162080 143063120 142266032 141748368 
949.288 141485760 141454240 141629760 141987632 142499152 143134848 
952.181 143871056 144691040 145588224 146562896 147616464 148745856 
955.073 149941552 151189296 152475536 153793536 155144048 156533792 
957.966 157969584 159452720 160977024 162530512 164101248 165683216 
960.859 167278544 168895520 170542272 172221296 173926784 175647520 
963.751 177371520 179093840 180817376 182552064 184307248 186086128 
966.644 187882944 189685936 191484320 193273760 195059840 196854080 
969.537 198667280 200501104 202345216 204179056 205981248 207737008 
972.429 209443856 211110608 212753088 214387744 216027376 217683904 
975.322 219373776 221119840 222955264 224916240 227032064 229319360 
978.215 231777312 234392640 237146320 240023408 243017008 246123664 
981.108 249336128 252633456 255973840 259301568 262550656 265653248 
984.000 268551968 271195136 273535520 275533088 277154912 278388704 
986.893 279254304 279814016 280168992 280435712 280738400 281177536 
989.786 281817856 282696160 283824640 285205344 286837664 288719296 
992.678 290841376 293180960 295703200 298366016 301129888 303972064 
995.571 306887744 309885344 312974592 316155520 319412864 322723584 
998.464 326065760 329432032 332833728 336295936 339844000 343489632 
1001.356 347226464 351034304 354892000 358788672 362730368 366733568 
1004.249 370813440 374970496 379187200 383434176 387687232 391940160 
1007.142 396209792 400525408 404913344 409377984 413897536 418427584 
1010.035 422921024 427346368 431692288 435962208 440156288 444254176 
1012.927 448211072 451969600 455475744 458702880 461655584 464360544 
1015.820 466842304 469106112 471129600 472877248 474320032 475456608 
1018.713 476316864 476951168 477406368 477702624 477829632 477755296 
1021.605 477449728 476898304 476107264 475087712 473833504 472303264 
1024.498 470423648 468096800 465235008 461781664 457712128 453029088 
1027.391 447743424 441861664 435391392 428356608 420821792 412896320 
1030.284 404735936 396523520 388427488 380599680 373163136 366207808 
1033.177 359814560 354052800 348971552 344595776 340905952 337836064 
1036.070 335273312 333081792 331129536 329296640 327498176 325678624 
1038.963 323799680 321835328 319766272 317583040 315292128 312917376 
1041.856 310495808 308061472 305635712 303218528 300793312 298338688 
1044.750 295845152 293324160 290810272 288349280 285982496 283739456 
1047.643 281632800 279664064 277834624 276151840 274628384 273277088 
1050.536 272100576 271085664 270204704 269426400 268725472 268090432 
1053.429 267522784 267028272 266604720 266233888 265878864 265491456 
1056.322 265026688 264446112 263723376 262840096 261775552 260505584 
1059.215 259005248 257257136 255264784 253057184 250690224 248232720 
1062.108 245753648 243317024 240972944 238764688 236737504 234937360 
1065.001 233412688 232206448 231343712 230826832 230633360 230724064 
1067.894 231047472 231548208 232174288 232868272 233568352 234212208 
1070.787 234733856 235080576 235221920 235153072 234892592 234471232 
1073.680 233921504 233265712 232515968 231680624 230771104 229808800 
1076.573 228825296 227852864 226919600 226041920 225224720 224467680 
1079.466 223772432 223145952 222600544 222145840 221781824 221495136 
1082.359 221261136 221053984 220853056 220651520 220454304 220272496 
1085.252 220114400 219979984 219861440 219748800 219637104 219530544 
1088.146 219441136 219383488 219367920 219396896 219468368 219583712 
1091.039 219754288 220007536 220382096 220914960 221632928 222540448 
1093.932 223618288 224825472 226110416 227420208 228700848 229902544 
1096.825 230979504 231886992 232590976 233073408 233336992 233403008 
1099.718 233302944 233063888 232693488 232174288 231466256 230523536 
1102.611 229305072 227789856 225982080 223907056 221605120 219121072 
1105.504 216506672 213816032 211103936 208428160 205837888 203365888 
1108.397 201024992 198805712 196682336 194621616 192595024 190581536 
1111.290 188568272 186546432 184505680 182432272 180313360 178141056 
1114.183 175919600 173665840 171407552 169175808 166997568 164894480 
1117.076 162882320 160974240 159185184 157530608 156021856 154659952 
1119.969 153428592 152293504 151203248 150102096 148938160 147668864 
1122.862 146268608 144724064 143030576 141189248 139205072 137088368 
1125.755 134854864 132527632 130135072 127705168 125266000 122841520 
1128.648 120450960 118112016 115839504 113644456 111533056 109502888 
1131.542 107544432 105641288 103777256 101940576 100128376 98348216 96615632 
1134.917 94950792 93371912 91894184 90528584 89281816 88159304 87164584 
1138.292 86299144 85560968 84943456 84435512 84022800 83690624 83426464 
1141.667 83219608 83061040 82941264 82847264 82762984 82670424 82550840 
1145.042 82389632 82176984 81907744 81580776 81197328 80761496 80280176 
1148.418 79765872 79238176 78720568 78241072 77826352 77497168 77269016 
1151.793 77150152 77144176 77251752 77471632 77800312 78229288 78743848 
1155.168 79322368 79935240 80550368 81134456 81654024 82079672 82382976 
1158.543 82536216 82514896 82298104 81871736 81232040 80385152 79346272 
1161.919 78135312 76775656 75291088 73704264 72039904 70323176 68578592 
1165.294 66830596 65099352 63399592 61741900 60132864 58577584 57081584 
1168.669 55651092 54293020 53013904 51818348 50709668 49690436 48763592 
1172.044 47933360 47205984 46587700 46084864 45702384 45443012 45309160 
1175.420 45303424 45430472 45698184 46116960 46698852 47457236 48404892 
1178.795 49553892 50917352 52508548 54341644 56432040 58792900 61434912 
1182.170 64363576 67576144 71059096 74780960 78691496 82706944 86706136 
1185.545 90541976 94031984 96986560 99241736 100667840 101201712 100850784 
1188.921 99691648 97852872 95493608 92797320 89936096 87062336 84303136 
1192.296 81740456 79416128 77332440 75459072 73741840 72113984 70513992 
1195.671 68888152 67200832 65437600 63602812 61717300 59811424 57922996 
1199.046 56089532 54342624 52707408 51198800 49821304 48571868 47441568 
1202.422 46419056 45492244 44651268 43887864 43195224 42567492 41998072 
1205.797 41480148 41007436 40574784 40179564 39822036 39505368 39234984 
1209.172 39017220 38859060 38767392 38748736 38809564 38955420 39190704 
1212.547 39517996 39937640 40447736 41044872 41724936 42483628 43315760 
1215.923 44215044 45172296 46173928 47203804 48242648 49269948 50267880 
1219.298 51220240 52113900 52940460 53694984 54378784 54998300 55567672 
1222.673 56106120 56634968 57175948 57746032 58355704 59009272 59705264 
1226.048 60438892 61203060 61990356 62792332 63598856 64399584 65183960 
1229.424 65943496 66673996 67376120 68056056 68723160 69390816 70075008 
1232.799 70794040 71571664 72436480 73419984 74557920 75885072 77432024 
1236.174 79226408 81290016 83639968 86290208 89249944 92522232 96100272 
1239.549 99966920 104092400 108435952 112954048 117599656 122324920 
1242.442 127084272 131824744 136485232 140999840 145292736 149286144 
1245.335 152907472 156081136 158731952 160782560 162145536 162735488 
1248.229 162478016 161315312 159221984 156205696 152307904 147598768 
1251.122 142176704 136169344 129719240 122987112 116140808 109328368 
1254.015 102683304 96311408 90282024 84641376 79411504 74594360 70178312 
1257.390 66140040 62448828 59067576 55958612 53087320 50422288 47939944 
1260.765 45623796 43462628 41450036 39581944 37855412 36267316 34813868 
1264.140 33490222 32290868 31209870 30240524 29376816 28611674 27938360 
1267.516 27349856 26839260 26400842 26030406 25725568 25485588 25310572 
1270.891 25200828 25156412 25177690 25266040 25424700 25658916 25975528 
1274.266 26379752 26872886 27448638 28091710 28776270 29466380 30122142 
1277.641 30698630 31152588 31449542 31563904 31485308 31218448 30782276 
1281.017 30206814 29526026 28777720 27996314 27210880 26447040 25723880 
1284.392 25055588 24452220 23918934 23456522 23062034 22729834 22452774 
1287.767 22224222 22039532 21895764 21791200 21723896 21690352 21685302 
1291.142 21702962 21737238 21784022 21841404 21908694 21986064 22072826 
1294.518 22167170 22267082 22371238 22480374 22597424 22727008 22874090 
1297.893 23042116 23232754 23446136 23681840 23940010 24221948 24529378 
1301.268 24863624 25224776 25611676 26022560 26457042 26916352 27404308 
1304.643 27925286 28482588 29076598 29703780 30357306 31027478 31704102 
1308.019 32376394 33032530 33660512 34247308 34779584 35246308 35640340 
1311.394 35958664 36203096 36378020 36488572 36538200 36528248 36458012 
1314.769 36327004 36135036 35884452 35578656 35223384 34824992 34390816 
1318.144 33930344 33454612 32976794 32511320 32070670 31664576 31297780 
1321.520 30970542 30679890 30421768 30193956 29996654 29832126 29703850 
1324.895 29614274 29565216 29557132 29591110 29669472 29795750 29974182 
1328.270 30207348 30495338 30834634 31220086 31646434 32109272 32606352 
1331.645 33136222 33695996 34280548 34880748 35483616 36074724 36637612 
1335.021 37154740 37609400 37984060 38263036 38435312 38496204 38450372 
1338.396 38311780 38103736 37854652 37591836 37340156 37117420 36934052 
1341.771 36796444 36708532 36674064 36697172 36781804 36931236 37147488 
1345.146 37432532 37788896 38220300 38730664 39321888 39991296 40730480 
1348.521 41524076 42352288 43195004 44031148 44840832 45605248 46303440 
1351.897 46913564 47415588 47791560 48031384 48133280 48104484 47958892 
1355.272 47714628 47392824 47014464 46601460 46177132 45763564 45382684 
1358.647 45053448 44788992 44597104 44480652 44440532 44479516 44604632 
1362.022 44825876 45154136 45594428 46141980 46779848 47481372 48213952 
1365.398 48939124 49617032 50206320 50662716 50947644 51031300 50899660 
1368.773 50557352 50026780 49341884 48537852 47647956 46699184 45711072 
1372.148 44702644 43695784 42717688 41804384 40995056 40323480 39814624 
1375.523 39479888 39321344 39339264 39538828 39933428 40545648 41400204 
1378.899 42518560 43912388 45576616 47484848 49579520 51774260 53941016 
1382.274 55918172 57542996 58659384 59153000 58967108 58097800 56593068 
1385.649 54540408 52078936 49383868 46643808 44046032 41728072 39762372 
1389.024 38160460 36888132 35888444 35096848 34456456 33919344 33448062 
1392.400 33018298 32616674 32241474 31900826 31609944 31384784 31236144 
1395.775 31165046 31162378 31211080 31286954 31362880 31413778 31419408 
1399.150 31372890 31282504 31171278 31067694 30998404 30983246 31032390 
1402.525 31148636 31331364 31578976 31889524 32258284 32674256 33116232 
1405.901 33552862 33950552 34278648 34519196 34671476 34751156 34785396 
1409.276 34803560 34833896 34896548 35003528 35162160 35377240 35652856 
1412.651 35991024 36390304 36843292 37337592 37859896 38399836 38952848 
1416.026 39520208 40106264 40713704 41341856 41987016 42647644 43327840 
1419.402 44041484 44805196 45627772 46507964 47433104 48387184 49356548 
1422.777 50339384 51347052 52401768 53526552 54735956 56031096 57401808 
1426.152 58835660 60326416 61879580 63509108 65230436 67052640 68974280 
1429.527 70986312 73078752 75249600 77505528 79854824 82299472 84827360 
1432.903 87415184 90027448 92629016 95188304 97665176 100011640 102165808 
1436.278 104062584 105657136 106948536 107985944 108838272 109572560 
1439.171 110233048 110833464 111358440 111765072 111993520 111965736 
1442.064 111597400 110816056 109566160 107829072 105628104 103030888 
1444.957 100134008 97039584 93851024 90654432 87524928 84540768 81780288 
1448.332 79314496 77189688 75411296 73944464 72726872 71696080 70803792 
1451.708 70028480 69371696 68845168 68452424 68177952 67983200 67813512 
1455.083 67614776 67345936 67003384 66629568 66305064 66107704 66076152 
1458.458 66205100 66461256 66807412 67212784 67656712 68122368 68591016 
1461.833 69042408 69451888 69794600 70052576 70219440 70306768 70341360 
1465.208 70361584 70404872 70497472 70656664 70891080 71205256 71602568 
1468.584 72085824 72657256 73318056 74070384 74919024 75871144 76935864 
1471.959 78120712 79432040 80871448 82445224 84170256 86070720 88178272 
1475.334 90522544 93117448 95957176 99013392 102246432 105613272 109079296 
1478.709 112624720 116233760 119894136 123593896 127318960 131060808 
1481.603 134819072 138600480 142410048 146240752 150060656 153814064 
1484.496 157416000 160752128 163699072 166118880 167870112 168824736 
1487.389 168866960 167908688 165905248 162876096 158930272 154271824 
1490.282 149197792 144039216 139082288 134534304 130487576 126941112 
1493.175 123848800 121149280 118798912 116789032 115140592 113885448 
1496.068 113030216 112527808 112258520 112039800 111679960 110995624 
1498.961 109845392 108157752 105923368 103200032 100091200 96733816 93264624 
1502.336 89783400 86355816 82984936 79611424 76125768 72390920 68296672 
1505.711 63837096 59187476 54683980 50683232 47391012 44799096 42748688 
1509.087 41050592 39546268 38136328 36778268 35467440 34218020 33042754 
1512.462 31945654 30918698 29946774 29012938 28102102 27200860 26298074 
1515.837 25387498 24472448 23570338 22709482 21919216 21218094 20603458 
1519.212 20050270 19515844 18957948 18351928 17710820 17084648 16537542 
1522.588 16112559 15811782 15602873 15436876 15271320 15079685 14860499 
1525.963 14631519 14419101 14241264 14100258 13984756 13880573 13780726 
1529.338 13689860 13620312 13584107 13584142 13610295 13641647 13654777 
1532.713 13637408 13595629 13555391 13546059 13586364 13674062 13791158 
1536.089 13912733 14017196 14091873 14132981 14143524 14128566 14090058 
1539.464 14025101 13931584 13815511 13694135 13588347 13511159 13459343 
1542.839 13413583 13346130 13234072 13068569 12860395 12634991 12421911 
1546.214 12240356 12092026 11964318 11837703 11697577 11539497 11372359 
1549.590 11212526 11075797 10968062 10883389 10809160 10733653 10652659 
1552.965 10571543 10501645 10453921 10432743 10433218 10443603 10450323 
1556.340 10443433 10415467 10360898 10274476 10154153 10008127 9859710 
1559.715 9741569 9679562 9680545 9735470 9824427 9925302 10016536 10084220 
1563.573 10124985 10147404 10167822 10203778 10265316 10350481 10446929 
1566.948 10538307 10612422 10665325 10703020 10737729 10783106 10848125 
1570.323 10934218 11038953 11159624 11295870 11448452 11616539 11795109 
1573.698 11973276 12138057 12279926 12399646 12513228 12647374 12829406 
1577.074 13070549 13364683 13694168 14042521 14399612 14763819 15139654 
1580.449 15532091 15941245 16361313 16780444 17185742 17568062 17923196 
1583.824 18251496 18554278 18830662 19076582 19286614 19457104 19589738 
1587.199 19692908 19780566 19867408 19966480 20086186 20230608 20402440 
1590.575 20606064 20848366 21138460 21484272 21889142 22351250 22865324 
1593.950 23425886 24030842 24682826 25387426 26150142 26972476 27850702 
1597.325 28776446 29739792 30730812 31738930 32752174 33754868 34725276 
1600.700 35638580 36469256 37194444 37799308 38278088 38634968 38880620 
1604.076 39030596 39099404 39096396 39024396 38878988 38651444 38332012 
1607.451 37914088 37397320 36788260 36100036 35350752 34563968 33767256 
1610.826 32990772 32266560 31619672 31064562 30601772 30218324 29891754 
1614.201 29594444 29301874 28995404 28669858 28335148 28016142 27742680 
1617.577 27537168 27407944 27347846 27339270 27358148 27378582 27376818 
1620.952 27332212 27232470 27077344 26880642 26666482 26462288 26289238 
1624.327 26155034 26054540 25974790 25901206 25821800 25728378 25618038 
1627.702 25490472 25348226 25195070 25036176 24876920 24722038 24574398 
1631.078 24433012 24292442 24141832 23965990 23747350 23467818 23114168 
1634.453 22684834 22197404 21689134 21207168 20792470 20463010 20213598 
1637.828 20023206 19867616 19724598 19578612 19422524 19257172 19089774 
1641.203 18929706 18785128 18658620 18545806 18435614 18312526 18160034 
1644.579 17962770 17711580 17405968 17057976 16690945 16334994 16019313 
1647.954 15762990 15572065 15440550 15353558 15288926 15217715 15105208 
1651.329 14910013 14594167 14145612 13605030 13065428 12621175 12317216 
1654.704 12137989 12039732 11978147 11922699 11857453 11777235 11683826 
1658.080 11582168 11477063 11370895 11263326 11151874 11033108 10903774 
1661.455 10762319 10609162 10449203 10290761 10144182 10019723 9924116 
1664.830 9858151 9816700 9790028 9765391 9729235 9670347 9582403 9465793 
1668.688 9327988 9181495 9040736 8916999 8816865 8741772 8689069 8652867 
1672.545 8623901 8591252 8542081 8465617 8358156 8227590 8093215 7977882 
1676.402 7898750 7859678 7852929 7863693 7877357 7885050 7884881 7882384 
1680.260 7885691 7900234 7923719 7944641 7943291 7897737 7793183 7633010 
1684.117 7443839 7268060 7140786 7073424 7056080 7068911 7093295 7115187 
1687.975 7126403 7123877 7107642 7079991 7044765 7008060 6976880 6957654 
1691.832 6954354 6965937 6986038 7003009 7003783 6977149 6921057 6846257 
1695.689 6775879 6735057 6736572 6776350 6835520 6890860 6918128 6900555 
1699.547 6835520 6740341 6648177 6589705 6579479 6611841 6670047 6735865 
1703.404 6794524 6836361 6856659 6856288 6841444 6821383 6804655 6797217 
1707.262 6800784 6813440 6831716 6851879 6872311 6892711 6915166 6941460 
1711.119 6972873 7008262 7044630 7077331 7101984 7115894 7118084 7109091 
1714.977 7089051 7056282 7006713 6935770 6842319 6731658 6616720 6514223 
1718.834 6436768 6389287 6367835 6363094 6363935 6360909 6348502 6325135 
1722.691 6292491 6254269 6214136 6174409 6135794 6098460 6062742 6029278 
1726.549 5998873 5971730 5947073 5923358 5900116 5878755 5862869 5856992 
1730.406 5864213 5882953 5906665 5922855 5916372 5875295 5797082 5695282 
1734.264 5595653 5527457 5506618 5531619 5588773 5660134 5729929 5785766 
1738.121 5821293 5835498 5832913 5821663 5810581 5806619 5811924 5825558 
1741.979 5843693 5861861 5876001 5883389 5882751 5874691 5860350 5841644 
1745.836 5819749 5795336 5768239 5737785 5703238 5663625 5617537 5563769 
1749.693 5500611 5427699 5346782 5262762 5183921 5118539 5072911 5049110 
1753.551 5043713 5049546 5056049 5053870 5035702 5000205 4952009 4900635 
1757.408 4856538 4825981 4809598 4802763 4797771 4786850 4764472 4729566 
1761.266 4685085 4637828 4594863 4562851 4545407 4543498 4555652 4578489 
1765.123 4607555 4636790 4660703 4674669 4676946 4669645 4658023 4647641 
1768.980 4641546 4638431 4632035 4614252 4578020 4521568 4450929 4379465 
1772.838 4321700 4287265 4277695 4286997 4306372 4327422 4345595 4359952 
1776.695 4371700 4382477 4391715 4397104 4395095 4382711 4360120 4330300 
1780.553 4299212 4272508 4253067 4240420 4230583 4218572 4200036 4173406 
1784.410 4139953 4103025 4067169 4035765 4011753 3996203 3989849 3992424 
1788.268 4002925 4018107 4033491 4042687 4039310 4019177 3982158 3933440 
1792.125 3882688 3839764 3812487 3803329 3809746 3826326 3848188 3871121 
1795.982 3892885 3912544 3929963 3945076 3957347 3966643 3972896 3976239 
1799.840 3977377 3976607 3974434 3970990 3966977 3963399 3962062 3965472 
1803.697 3975236 3992257 4015733 4043557 4072788 4100516 4125135 4145707 
1807.555 4162601 4176517 4187892 4197159 4204352 4209404 4212482 4214122 
1811.412 4214423 4213787 4212649 4210943 4209739 4210040 4213151 4220646 
1815.270 4233025 4249621 4268995 4289239 4308548 4326117 4342348 4358614 
1819.127 4376921 4399012 4425924 4458193 4495889 4538342 4584650 4632671 
1822.984 4679693 4722800 4759648 4789664 4815260 4840556 4869807 4905997 
1826.842 4949060 4995680 5040897 5079884 5110291 5133592 5155219 5181372 
1830.699 5217823 5265881 5323201 5384656 5444911 5500242 5548969 5591357 
1834.557 5628580 5661443 5689575 5711766 5726404 5732951 5732145 5726538 
1838.414 5719320 5713780 5711699 5713109 5715761 5715895 5708879 5689642 
1842.271 5654394 5602400 5536686 5465815 5400759 5353424 5330682 5333331 
1846.129 5355772 5389252 5424478 5454373 5476317 5491819 5505343 5521618 
1849.986 5543700 5571723 5603105 5634153 5662316 5687426 5711061 5736274 
1853.844 5764780 5796881 5830394 5862500 5890476 5913618 5932663 5949626 
1857.701 5966321 5983689 6001326 6018224 6033981 6048832 6064187 6081088 
1861.559 6099636 6118723 6136063 6149842 6159789 6167889 6177366 6191516 
1865.416 6211178 6234034 6255110 6267178 6265127 6246975 6215816 6178811 
1869.273 6143725 6116808 6099367 6088783 6079408 6065262 6042482 6008885 
1873.131 5964575 5911065 5850544 5784423 5713948 5640631 5564843 5487457 
1876.988 5408441 5327562 5243813 5156392 5065435 4972419 4880496 4793215 
1880.846 4714158 4644995 4584951 4531612 4481426 4431547 4380703 4329397 
1884.703 4279502 4233259 4192375 4157014 4126439 4099345 4073691 4047972 
1888.561 4021317 3993160 3964369 3936048 3910705 3890311 3876771 3870786 
1892.418 3871923 3878074 3886867 3895894 3904051 3911440 3918495 3925917 
1896.275 3933607 3940127 3943705 3942769 3937085 3927923 3917826 3909300 
1900.133 3904218 3903082 3904887 3907996 3911139 3913079 3913479 3912276 
1903.990 3908966 3902513 3892216 3877673 3859487 3839497 3820142 3803396 
1907.848 3789959 3779464 3770640 3762585 3755399 3750286 3748715 3751957 
1911.705 3759610 3770105 3780433 3788087 3791596 3790761 3786182 3778728 
1915.563 3768634 3755600 3739624 3721377 3702897 3687491 3678101 3675395 
1919.420 3677600 3680608 3679839 3671886 3656849 3637537 3619327 3607934 
1923.277 3606564 3615718 3632257 3652305 3671686 3688527 3702195 3713256 
1927.135 3722012 3728161 3730935 3730033 3726323 3722480 3721544 3726290 
1930.992 3737519 3754463 3773915 3793234 3810716 3826393 3841001 3855843 
1934.850 3870151 3881986 3888605 3888204 3880381 3867878 3854807 3845313 
1938.707 3840767 3840366 3840700 3837424 3827763 3811251 3790226 3769002 
1942.564 3750453 3736249 3724752 3713657 3700023 3683548 3665069 3647761 
1946.422 3635298 3630152 3633527 3645088 3662563 3683749 3706005 3726825 
1950.279 3742933 3752492 3753728 3746743 3733542 3716899 3700056 3685252 
1954.137 3672320 3659723 3645322 3627245 3604793 3580471 3556685 3536508 
1957.994 3521643 3511823 3505576 3501501 3498027 3495622 3494587 3495589 
1961.852 3497092 3498629 3498629 3497092 3496123 3498862 3507514 3522044 
1965.709 3539114 3551541 3552042 3536909 3504641 3461420 3415900 3376261 
1969.566 3348913 3334689 3329614 3327310 3321767 3308813 3288547 3264043 
1973.424 3240474 3224451 3222481 3240140 3282437 3351584 3445790 3557119 
1977.281 3674025 3779798 3859721 3904787 3913145 3890979 3850060 3803830 
1981.139 3764222 3737887 3727560 3730701 3743902 3762418 3783107 3803228 
1984.996 3821379 3835586 3844778 3848422 3846583 3841736 3837290 3836555 
1988.854 3843107 3857983 3882019 3913279 3950292 3989950 4030615 4069711 
1992.711 4105433 4135404 4159523 4176852 4189498 4200237 4212716 4229378 
1996.568 4252766 4281644 4312497 4341445 4363600 4375850 4377925 4371800 
2000.426 4361994 4352757 4347201 4344992 4343486 4336626 4318219 4285190 
2004.283 4237375 4179127 4119348 4067303 4031216 4015432 4019879 4040815 
2008.141 4072220 4108811 4146410 4183375 4220211 4256982 4293757 4329330 
2011.998 4361793 4389573 4412902 4431179 4447079 4461674 4475969 4491168 
2015.855 4507707 4526723 4549793 4578723 4613649 4654138 4697545 4740587 
2019.713 4780518 4816097 4848430 4880195 4914877 4954489 4999233 5047702 
2023.570 5097250 5145730 5191834 5235094 5275003 5311730 5343462 5369224 
2027.428 5388413 5403308 5416494 5433403 5457560 5491014 5532759 5580483 
2031.285 5631232 5684774 5742217 5806988 5882449 5970251 6067849 6170645 
2035.143 6271111 6364472 6446453 6516779 6576350 6627687 6672537 6712006 
2039.000 6747610 6781264 6814617 6850095 6889682 6933312 6980314 7029342 
2042.857 7079756 7130984 7185115 7242151 7301619 7360894 7415122 7460086 
2046.715 7494234 7519113 7539038 7560616 7587117 7618982 7652838 7682212 
2050.572 7701571 7709362 7707743 7702212 7699446 7704336 7717119 7735131 
2054.430 7751793 7761542 7761204 7751726 7737087 7723191 7714994 7714893 
2058.287 7721875 7733174 7743361 7748724 7746362 7734827 7715534 7690576 
2062.145 7663158 7636989 7615812 7602088 7597503 7601380 7611226 7623028 
2066.002 7632200 7635168 7630413 7618678 7602628 7585802 7571506 7561121 
2069.859 7554176 7549085 7542949 7533981 7522518 7510314 7501212 7498886 
2073.717 7506505 7523732 7548478 7576159 7601582 7621342 7633549 7639552 
2077.574 7641980 7644003 7647409 7651692 7654929 7653749 7646768 7634123 
2081.432 7618813 7605561 7599289 7602931 7617228 7640361 7668790 7698536 
2085.289 7726529 7750376 7768760 7780803 7785188 7780870 7767546 7745654 
2089.146 7717052 7684640 7650984 7617936 7586105 7555221 7525249 7497268 
2093.004 7474311 7460052 7458367 7471008 7496830 7532059 7570798 7606944 
2096.861 7636517 7656852 7667946 7670611 7665957 7654457 7636989 7614699 
2100.719 7589342 7563818 7541061 7522653 7509303 7499830 7491874 7483379 
2104.576 7473738 7462446 7450480 7438615 7426649 7414279 7400090 7383340 
2108.434 7364298 7344483 7325746 7310482 7299969 7294510 7293566 7295925 
2112.291 7299665 7302833 7302867 7296936 7282346 7257447 7222038 7178479 
2116.148 7131455 7085885 7046415 7015872 6994086 6979068 6968395 6959944 
2120.006 6952368 6946375 6942268 6939675 6936645 6930383 6918027 6898333 
2123.863 6872480 6843699 6816200 6793851 6778033 6768273 6761441 6754508 
2127.721 6744278 6729067 6707430 6679266 6644644 6603734 6558522 6513348 
2131.578 6472854 6443561 6430312 6434515 6453011 6479311 6504939 6522429 
2135.436 6527778 6521084 6506251 6488123 6469927 6452944 6435020 6413061 
2139.293 6383538 6345846 6300593 6250673 6199817 6151858 6109314 6074636 
2143.150 6047690 6027967 6013387 6000688 5985604 5965448 5938541 5904784 
2147.008 5866765 5827338 5787647 5747019 5703607 5653320 5594512 5528833 
2150.865 5459003 5391063 5329038 5273225 5221043 5165345 5099529 5019746 
2154.723 4928449 4832548 4745143 4681066 4652798 4669879 4735663 4847190 
2158.580 4995077 5166988 5347554 5521786 5678698 5810145 5914357 5995144 
2162.438 6058206 6111834 6162680 6214270 6267010 6318915 6367902 6411245 
2166.295 6448942 6481161 6507294 6525860 6534841 6532150 6517754 6494580 
2170.152 6467506 6442485 6424326 6414339 6411749 6412926 6416054 6420492 
2174.010 6428630 6443393 6468347 6503695 6547253 6593675 6637982 6675060 
2177.867 6702887 6721428 6732466 6737749 6740778 6744379 6752153 6769181 
2181.725 6798529 6842319 6898872 6963142 7027591 7085414 7131152 7162680 
2185.582 7181275 7188753 7187473 7178243 7161198 7137080 7109158 7082382 
2189.439 7063590 7057764 7067126 7089556 7120408 7153720 7185048 7214120 
2193.297 7242757 7274226 7310380 7350818 7392338 7431705 7467570 7499257 
2197.154 7530373 7563818 7600537 7639248 7676277 7708046 7733343 7754289 
2201.012 7775405 7802628 7838894 7883465 7932459 7980042 8021892 8056995 
2204.869 8088253 8119715 8155367 8196491 8240388 8282872 8320529 8350691 
2208.727 8373694 8391935 8407171 8420379 8431731 8441156 8449433 8460042 
2212.584 8477070 8504101 8542149 8588684 8637656 8683931 8723111 8754315 
2216.441 8780416 8805471 8832048 8860521 8888286 8911757 8928533 8938781 
2220.299 8944903 8951127 8960191 8972300 8985662 8997840 9006534 9012623 
2224.156 9018847 9028083 9042257 9060662 9080285 9097440 9111076 9122141 
2228.014 9134762 9153712 9181563 9218283 9260252 9302565 9340345 9372203 
2231.871 9398815 9423228 9448489 9475580 9504129 9532816 9560522 9587383 
2235.729 9615465 9647004 9683493 9725236 9770576 9817886 9866795 9918251 
2239.586 9973781 10034711 10100600 10168093 10232782 10290897 10339520 
2242.961 10380241 10416349 10451511 10488746 10528123 10568250 10606616 
2246.336 10642132 10675444 10709200 10746186 10787522 10832259 10877749 
2249.712 10921136 10961402 11000006 11039633 11084295 11136100 11194506 
2253.087 11257035 11320355 11381440 11438553 11491625 11539940 11582236 
2256.462 11615757 11637878 11647034 11645195 11637334 11630391 11630663 
2259.837 11641520 11662520 11689954 11719023 11745949 11769916 11792931 
2263.213 11817886 11847850 11883434 11923959 11967247 12011323 12055199 
2266.588 12099011 12142418 12184501 12223350 12256783 12283164 12303479 
2269.963 12320898 12339441 12363032 12393476 12429923 12469681 12510193 
2273.338 12549787 12588840 12628987 12671459 12716322 12761873 12805756 
2276.714 12845480 12881385 12915143 12950302 12989596 13034116 13082773 
2280.089 13133622 13184545 13235405 13287774 13344216 13405962 13472501 
2283.464 13540077 13603457 13657923 13701145 13733837 13759726 13783565 
2286.839 13808773 13836924 13867506 13898466 13928607 13957724 13986227 
2290.215 14015964 14047620 14081126 14115456 14149412 14182412 14214627 
2293.590 14247153 14280230 14313685 14346081 14375842 14402113 14425335 
2296.965 14447532 14471477 14499671 14532664 14569599 14608902 14648414 
2300.340 14687210 14725531 14763990 14802831 14841401 14878123 14910768 
2303.716 14938887 14963339 14987004 15013071 15043976 15080440 15120544 
2307.091 15161442 15200318 15235972 15269192 15301660 15335262 15370413 
2310.466 15406217 15440619 15471932 15499538 15524605 15549091 15574367 
2313.841 15600984 15627706 15652746 15675178 15695307 15715165 15737427 
2317.217 15764158 15795460 15829479 15863158 15894603 15923338 15951524 
2320.592 15981773 16016666 16056409 16098322 16137833 16170504 16193340 
2323.967 16206032 16210778 16210778 16209161 16208474 16209608 16213357 
2327.342 16220581 16232103 16249403 16273070 16302826 16337298 16375007 
2330.718 16414646 16456043 16500060 16547455 16598366 16651763 16705373 
2334.093 16756613 16805070 16851534 16898690 16950160 17008010 17072484 
2337.468 17141864 17212804 17282756 17350410 17416764 17483368 17551984 
2340.843 17622992 17695014 17766112 17834566 17899510 17961630 18023070 
2344.219 18086140 18153746 18229240 18316258 18419298 18542002 18686396 
2347.594 18850628 19029324 19213566 19391824 19553796 19691174 19799950 
2350.969 19881040 19939282 19981710 20014114 20040416 20061618 20077754 
2354.344 20089310 20098264 20108014 20121410 20139874 20162816 20187460 
2357.719 20211828 20236370 20263794 20298374 20343790 20401364 20469228 
2361.095 20543390 20619752 20696198 20773144 20852990 20937856 21028582 
2364.470 21124058 21221644 21319388 21417156 21516790 21621150 21732988 
2367.845 21852694 21978988 22109502 22242250 22377064 22515480 22659454 
2371.220 22809902 22966584 23126994 23288476 23449458 23610360 23773632 
2374.596 23941728 24116612 24297874 24483278 24669534 24854220 25036458 
2377.971 25217296 25398354 25580642 25763818 25945488 26123188 26294376 
2381.346 26459050 26618006 26773354 26926644 27078436 27227356 27372088 
2384.721 27511646 27646444 27778284 27909776 28042544 28176554 28310322 
2388.097 28441478 28568180 28690176 28808558 28925098 29041100 29156568 
2391.472 29270258 29380572 29487018 29590330 29692886 29796958 29903788 
2394.847 30012382 30120330 30224434 30322378 30413664 30500066 30583994 
2398.222 30667194 30749804 30830508 30907956 30981892 31054028 31128098 
2401.598 31207946 31296320 31393654 31497742 31605598 31715080 31825558 
2404.973 31938378 32055334 32177490 32303646 32430980 32556138 32676902 
2408.348 32793730 32909308 33027344 33150922 33281330 33417218 33556656 
2411.723 33697784 33840288 33985236 34134068 34286820 34441676 34594968 
2415.099 34743256 34884488 35019940 35152960 35288500 35430264 35579304 
2418.474 35734224 35891896 36049776 36206808 36364004 36523564 36686828 
2421.849 36853612 37021972 37189176 37353336 37514488 37674692 37836724 
2425.224 38003156 38174280 38349308 38526292 38703600 38881708 39061844 
2428.600 39245464 39433372 39624336 39815824 40005500 40192320 40376896 
2431.975 40561692 40748968 40939236 41131084 41320940 41505736 41683720 
2435.350 41856048 42025740 42196636 42371064 42549332 42729644 42910324 
2438.725 43090744 43272456 43458452 43651452 43852200 44059088 44268024 
2442.101 44474924 44677452 44875732 45072196 45269480 45468732 45668184 
2445.476 45864932 46055284 46237316 46412640 46583976 46755420 46929324 
2448.851 47105300 47280900 47453248 47620300 47782388 47940832 48097228 
2452.226 48251232 48400852 48542224 48672520 48791324 48901632 49007628 
2455.602 49114060 49223112 49333532 49441672 49543752 49637836 49725288 
2458.977 49809704 49894812 49982572 50071880 50159080 50240204 50313008 
2462.352 50378192 50438960 50499176 50560408 50621796 50679916 50730748 
2465.727 50771560 50802288 50824672 50841064 50851712 50854804 50846316 
2469.103 50823032 50783588 50729480 50664724 50593984 50519760 50441900 
2472.478 50358544 50267356 50168344 50063772 49958152 49855676 49758352 
2475.853 49665176 49572832 49477096 49375884 49269432 49160180 49050472 
2479.228 48941348 48831216 48716960 48595656 48466864 48332220 48195440 
2482.604 48060328 47927696 47795812 47660936 47519924 47371832 47219060 
2485.979 47066156 46917404 46774864 46636948 46499556 46358368 46210816 
2489.354 46057492 45901648 45746704 45594980 45446032 45297392 45146304 
2492.729 44991592 44834252 44676976 44522244 44370764 44220144 44067012 
2496.104 43907368 43739168 43563568 43383932 43203388 43024344 42846284 
2499.480 42667092 42484356 42296952 42105428 41911656 41717384 41522436 
2502.855 41325388 41124052 40916992 40705952 40494688 40288324 40090816 
2506.230 39903608 39724024 39547752 39370136 39188784 39004136 38819420 
2509.605 38637644 38460944 38289272 38120592 37952888 37785500 37619840 
2512.981 37458972 37305820 37162356 37028792 36904216 36787788 36679108 
2516.356 36579468 36489720 36409832 36337668 36269656 36201908 36132476 
2519.731 36061872 35993472 35931884 35880600 35840436 35809708 35784448 
2523.106 35761100 35737680 35713792 35690804 35669980 35650948 35632284 
2526.482 35612068 35589052 35563268 35536656 35511124 35487216 35463808 
2529.857 35438356 35408264 35372388 35332636 35292236 35254864 35222632 
2533.232 35194564 35167476 35137620 35102988 35064444 35025616 34990636 
2536.607 34962588 34941684 34925024 34908508 34889368 34866212 34841076 
2539.983 34816524 34794696 34775704 34757684 34738016 34714936 34688736 
2543.358 34661784 34636308 34613412 34591920 34568560 34540324 34505816 
2546.733 34466676 34427148 34392072 34364136 34343044 34325116 34305500 
2550.108 34280296 34248276 34211532 34173892 34138868 34108080 34080808 
2553.484 34055180 34029524 34003508 33978748 33957072 33940056 33927192 
2556.859 33917160 33908096 33899320 33892012 33888360 33890220 33897384 
2560.234 33907240 33915652 33918844 33915188 33906628 33897888 33893800 
2563.609 33898068 33910888 33929448 33950012 33969540 33987276 34004940 
2566.985 34025044 34049880 34079552 34112524 34146756 34181416 34217448 
2570.360 34256916 34302384 34354236 34410540 34467716 34522388 34572864 
2573.735 34621196 34671728 34729256 34797352 34876840 34965312 35059236 
2577.110 35155584 35253068 35352116 35454208 35559960 35668108 35776640 
2580.486 35883224 35986632 36087976 36189232 36292708 36398988 36506264 
2583.861 36611008 36710048 36801604 36886828 36968648 37050228 37133628 
2587.236 37218452 37302352 37382768 37458176 37529516 37599352 37670572 
2590.611 37745124 37823092 37903024 37983300 38063516 38144432 38228080 
2593.987 38315580 38405916 38496424 38583000 38662600 38734500 38801412 
2597.362 38868048 38939364 39018272 39104988 39197052 39291600 39386424 
2600.737 39481632 39578784 39680136 39786444 39896956 40009244 40121412 
2604.112 40232668 40343988 40457992 40576752 40700568 40827804 40955224 
2607.488 41079836 41200300 41317696 41434252 41552916 41674636 41798440 
2610.863 41922748 42045708 42167204 42288988 42414100 42544468 42680436 
2614.238 42819552 42958276 43093348 43223588 43350356 43476688 43605584 
2617.613 43737888 43872140 44005072 44133684 44256684 44375684 44493428 
2620.989 44613300 44737168 44864304 44992108 45118180 45241128 45361756 
2624.364 45482676 45605948 45732496 45860844 45987872 46110328 46226704 
2627.739 46337944 46446600 46556056 46668380 46783612 46900128 47015680 
2631.114 47128640 47239116 47348256 47457756 47568688 47680648 47792484 
2634.490 47903096 48012068 48120292 48228908 48338704 48449048 48557896 
2637.865 48662584 48761036 48853128 48940496 49025992 49111944 49199512 
2641.240 49287688 49374512 49458604 49539448 49618148 49696936 49777488 
2644.615 49860284 49943952 50026148 50105052 50179872 50251292 50321192 
2647.990 50391104 50461176 50530440 50597448 50661076 50721992 50781912 
2651.366 50843672 50909344 50979352 51052652 51126892 51200444 51272992 
2654.741 51345632 51420448 51498968 51581608 51667624 51755224 51843248 
2658.116 51931968 52022644 52117076 52216424 52320020 52426068 52532220 
2661.491 52636824 52740028 52844052 52951500 53064592 53183592 53307012 
2664.867 53432336 53557512 53682196 53807328 53935464 54068476 54206748 
2668.242 54348820 54492400 54635464 54777300 54918880 55062424 55209592 
2671.617 55360948 55515632 55671768 55828220 55984808 56143072 56305164 
2674.992 56472564 56645348 56821904 56999592 57176404 57351928 57527184 
2678.368 57704552 57886008 58072232 58262368 58454672 58647472 58840400 
2681.743 59034096 59229892 59428476 59629540 59831084 60030776 60227212 
2685.118 60420272 60611780 60803788 60998176 61194628 61391784 61587080 
2688.493 61778756 61966508 62151856 62336748 62522792 62709868 62896416 
2691.869 63079820 63258440 63431912 63602156 63771472 63941924 64113640 
2695.244 64285152 64454468 64619540 64780020 64937324 65093308 65249376 
2698.619 65405244 65558916 65707684 65849288 65983260 66110872 66235200 
2701.994 66358716 66483228 66609064 66735348 66861556 66988072 67116208 
2705.370 67247672 67383904 67525152 67670608 67819280 67970800 68125664 
2708.745 68285040 68449944 68619920 68792328 68963328 69128880 69285984 
2712.120 69433656 69572944 69705464 69832456 69953536 70067104 70170952 
2715.495 70263920 70346552 70420928 70489168 70552656 70611248 70663528 
2718.871 70708096 70744280 70773368 70797864 70820176 70841120 70859688 
2722.246 70872864 70877504 70871968 70856912 70835224 70810576 70785384 
2725.621 70760576 70734376 70704240 70668552 70627000 70581272 70533944 
2728.996 70486832 70440648 70394400 70346672 70296336 70243936 70190968 
2732.372 70139056 70089056 70040000 69990248 69937384 69880872 69821688 
2735.747 69761952 69704184 69649560 69597096 69544128 69487512 69425336 
2739.122 69357496 69285240 69210904 69135488 69058720 68978864 68894088 
2742.497 68803080 68706272 68605408 68502592 68398784 68293496 68184816 
2745.873 68071128 67951544 67827456 67701088 67575288 67451352 67329424 
2749.248 67207872 67085772 66963172 66841768 66724180 66613040 66509032 
2752.623 66410408 66313088 66212700 66106356 65992632 65872036 65745844 
2755.998 65614760 65478316 65335176 65183772 65023832 64856568 64684368 
2759.374 64509088 64331376 64149708 63961700 63764720 63558200 63343308 
2762.749 63122964 62900552 62678360 62456672 62234904 62012216 61789416 
2766.124 61568944 61354764 61151104 60961036 60784964 60622104 60470920 
2769.499 60330340 60200836 60083928 59980824 59892120 59815948 59749824 
2772.875 59690284 59634976 59582296 59531676 59482732 59433908 59382812 
2776.250 59326896 59264376 59194996 59120576 59043856 58966992 58891016 
2779.625 58814792 58736680 58655020 58569848 58482496 58395384 58310036 
2783.000 58226412 58142500 58055604 57963244 57865300 57763400 57660052 
2786.375 57557524 57456152 57353668 57246256 57129880 57002236 56862164 
2789.751 56710812 56548908 56376836 56193640 55998376 55791036 55573848 
2793.126 55351124 55128176 54910084 54699388 54496420 54300120 54108932 
2796.501 53922820 53743276 53572992 53414576 53268540 53133636 53007460 
2799.876 52887384 52771872 52661324 52556564 52458560 52366144 52276928 
2803.252 52187092 52093428 51994032 51889284 51780832 51670348 51558476 
2806.627 51444248 51325796 51201560 51071100 50935572 50796740 50655860 
2810.002 50513244 50367920 50218520 50065148 49909532 49755048 49606556 
2813.377 49467440 49339508 49222404 49114764 49015900 48926220 48848456 
2816.753 48785536 48740016 48712180 48700316 48701352 48712512 48732752 
2820.128 48762332 48802668 48854500 48916464 48985560 49057224 49127004 
2823.503 49192420 49252320 49307288 49357880 49403544 49443084 49474496 
2826.878 49496256 49508700 49513228 49512004 49506508 49497112 49482592 
2830.254 49461616 49433912 49400720 49364712 49328704 49294852 49262708 
2833.629 49230608 49196208 49158656 49119028 49080596 49047280 49021796 
2837.004 49004772 48994420 48988192 48984408 48983592 48988824 49004920 
2840.379 49036116 49085380 49154056 49242040 49350012 49479696 49634824 
2843.755 49819296 50035924 50285516 50565992 50873248 51202008 51546352 
2847.130 51899928 52253904 52596504 52912464 53183556 53391908 53523180 
2850.505 53568980 53528276 53407228 53217264 52971640 52685340 52373132 
2853.880 52048304 51723904 51411308 51118432 50850264 50607984 50389836 
2857.256 50192668 50013916 49851812 49705968 49575916 49460276 49356060 
2860.631 49259704 49168268 49080596 48998168 48924068 48861620 48812160 
2864.006 48774192 48744280 48718552 48694532 48672552 48655468 48647096 
2867.381 48650576 48666700 48693384 48727708 48766708 48809008 48854724 
2870.757 48904636 48958596 49014896 49070132 49120404 49163292 49198544 
2874.132 49228308 49256032 49285276 49318160 49355580 49397528 49444012 
2877.507 49496184 49555568 49623536 49700508 49785368 49876040 49970680 
2880.882 50068832 50171656 50281236 50399812 50527240 50661484 50798824 
2884.258 50935312 51069052 51199920 51329488 51459464 51589780 51718416 
2887.633 51840972 51952956 52051104 52134600 52204468 52262200 52308692 
2891.008 52343268 52364164 52369956 52361136 52340164 52311424 52278980 
2894.383 52244860 52208612 52167476 52118568 52060332 51993476 51920428 
2897.759 51843472 51762800 51675760 51576648 51459988 51321396 51159920 
2901.134 50977900 50779792 50570348 50352556 50128548 49899868 49668556 
2904.509 49438628 49215464 49004068 48808564 48631008 48471348 48329224 
2907.884 48205400 48102632 48025724 47979388 47968068 47993748 48056848 
2911.260 48155900 48289228 48455192 48650728 48870556 49106600 49346520 
2914.635 49576216 49782172 49952428 50079240 50158932 50190808 50175000 
2918.010 50112376 50003880 49851404 49658452 49430164 49172236 48889544 
2921.385 48585132 48259936 47914340 47549796 47170336 46783204 46397632 
2924.760 46022240 45663364 45323832 45003832 44702056 44418000 44152392 
2928.136 43906964 43682744 43479364 43293872 43122288 42960944 42808072 
2931.511 42664060 42531020 42410372 42301884 42202512 42107584 42012604 
2934.886 41915232 41815732 41716652 41621396 41531988 41448756 41370504 
2938.261 41296160 41225620 41161248 41106096 41063084 41033256 41014684 
2941.637 41004160 40997276 40990940 40983988 40976556 40969240 40961372 
2945.012 40951252 40936324 40914664 40885936 40852340 40817244 40784672 
2948.387 40756900 40734700 40717560 40704168 40694492 40689104 40688484 
2951.762 40692452 40698780 40703548 40702460 40693108 40675388 40652788 
2955.138 40630304 40612624 40602656 40600616 40604508 40612404 40623464 
2958.513 40638676 40659884 40688776 40725132 40766400 40809020 40849388 
2961.888 40885752 40918956 40951328 40985916 41024952 41069056 41118884 
2965.263 41175160 41240412 41318240 41412456 41525352 41656184 41801140 
2968.639 41954172 42109192 42261600 42408580 42548892 42681276 42803464 
2972.014 42911968 43002684 43072564 43121120 43150504 43164556 43167484 
2975.389 43162324 43150464 43132096 43107432 43077904 43046216 43015888 
2978.764 42989552 42968664 42952932 42941412 42933984 42932012 42938120 
2982.140 42955568 42986624 43031036 43086576 43149220 43215024 43281060 
2985.515 43345048 43405756 43460648 43506096 43537668 43551112 43543568 
2988.890 43514924 43466396 43400152 43316164 43212792 43086576 42933984 
2992.265 42754104 42549292 42325844 42092104 41855096 41620116 41388944 
2995.641 41161136 40935600 40712540 40493780 40282292 40081332 39892492 
2999.016 39716040 39551784 39399380 39259756 39134972 39026828 38936068 
3002.391 38861416 38799456 38745912 38697660 38653184 38612948 38578076 
3005.766 38549432 38526440 38506960 38488676 38470100 38451532 38434732 
3009.142 38421992 38414212 38410552 38408564 38405304 38398824 38389340 
3012.517 38378372 38368204 38359624 38351624 38341348 38325820 38302984 
3015.892 38273456 38239296 38203840 38168564 38133328 38095852 38053100 
3019.267 38003444 37947464 37887732 37827972 37771152 37718056 37667864 
3022.643 37617672 37565392 37509180 37448640 37383380 37312356 37233396 
3026.018 37143804 37041712 36927052 36802320 36671360 36538632 36406448 
3029.393 36275492 36144360 36011720 35877360 35743216 35612432 35488004 
3032.768 35370592 35258456 35147536 35033516 34914252 34790244 34664588 
3036.144 34541292 34423420 34311204 34202816 34095072 33985236 33872668 
3039.519 33758088 33643076 33528198 33412206 33292490 33165976 33030920 
3042.894 32887504 32738134 32586102 32433514 32280982 32127966 31972688 
3046.269 31814754 31655454 31497386 31343970 31197338 31058334 30925496 
3049.645 30797392 30672670 30551218 30433958 30321348 30213244 30108114 
3053.020 30003648 29898144 29791422 29684868 29581248 29482302 29388692 
3056.395 29298684 29209936 29119752 29027780 28935582 28846092 28761754 
3059.770 28683734 28610576 28539588 28468224 28395632 28322878 28253032 
3063.146 28188608 28131052 28079162 28030314 27981720 27931824 27880556 
3066.521 27829470 27779698 27731344 27683066 27632568 27578300 27520434 
3069.896 27460780 27402368 27346822 27294318 27242206 27187000 27125660 
3073.271 27057350 26983936 26909018 26835736 26765990 26699390 26633718 
3076.646 26567562 26500712 26434610 26372182 26314866 26262416 26211942 
3080.022 26159398 26101512 26037444 25969232 25900540 25835372 25775562 
3083.397 25720188 25666648 25612168 25555516 25497674 25440826 25387252 
3086.772 25337548 25290166 25242334 25191734 25138190 25083988 25032982 
3090.147 24988654 24952752 24924186 24899868 24875800 24849098 24819066 
3093.523 24786580 24752974 24719302 24685736 24652070 24618824 24587826 
3096.898 24561810 24543474 24533832 24531132 24531028 24528608 24520438 
3100.273 24505646 24486470 24467082 24451132 24440126 24432976 24426774 
3103.648 24418920 24408406 24396770 24386606 24380228 24377878 24377668 
3107.024 24376302 24370588 24359514 24344236 24327518 24311856 24298540 
3110.399 24286730 24274852 24261574 24247242 24233998 24224434 24220440 
3113.774 24221282 24224154 24225066 24221248 24211858 24199036 24186040 
3117.149 24175810 24168978 24164214 24158224 24148452 24134300 24117032 
3120.525 24099308 24083442 24070064 24057422 24043098 24025028 24003526 
3123.900 23980766 23959968 23943268 23931014 23920964 23910322 23896632 
3127.275 23879866 23862430 23847870 23839084 23836390 23837438 23838804 
3130.650 23836948 23830648 23821092 23811082 23803592 23799882 23799146 
3134.026 23799216 23798130 23795016 23791202 23788156 23787806 23790466 
3137.401 23794842 23799288 23802576 23805202 23808666 23815038 23825012 
3140.776 23837124 23848814 23856900 23859736 23858090 23854802 23853400 
3144.151 23856132 23862816 23871078 23877974 23881334 23881196 23879584 
3147.527 23878990 23881440 23886516 23892258 23896354 23897614 23897718 
3150.902 23900030 23908152 23924256 23947574 23974324 23999920 24020860 
3154.277 24036164 24047860 24059034 24072410 24088556 24105894 24121690 
3157.652 24133670 24142076 24148486 24156332 24167858 24183690 24202468 
3161.028 24222402 24241952 24261328 24282246 24306388 24334352 24364946 
3164.403 24394806 24420954 24441844 24458670 24474760 24493902 24518686 
3167.778 24548906 24582462 24615984 24647334 24676584 24705728 24737050 
3171.153 24772374 24810752 24849730 24886430 24919134 24948400 24977212 
3174.529 25008906 25045232 25085916 25128326 25169016 25205570 25237840 
3177.904 25267514 25297296 25328802 25361854 25394734 25425262 25452420 
3181.279 25477436 25502278 25529406 25559416 25590904 25620780 25645876 
3184.654 25665278 25680534 25695122 25712488 25734392 25759914 25785724 
3188.030 25808120 25825422 25838432 25850564 25865228 25884606 25907960 
3191.405 25932580 25955090 25973698 25989070 26004022 26022280 26045394 
3194.780 26072802 26101336 26127446 26149158 26167000 26184314 26205148 
3198.155 26232426 26266146 26303952 26342324 26378130 26410630 26440632 
3201.531 26470176 26500676 26532268 26563368 26592042 26617618 26641010 
3204.906 26664298 26689666 26718066 26748616 26779416 26808704 26836546 
3208.281 26865026 26897528 26936904 26984006 27036402 27089968 27140368 
3211.656 27185164 27224672 27261646 27299644 27340928 27385886 27432580 
3215.031 27478748 27523120 27566048 27609016 27654144 27701852 27751298 
3218.407 27800644 27848052 27893488 27938892 27987020 28039822 28097966 
3221.782 28158982 28219866 28277398 28330622 28380952 28431608 28485312 
3225.157 28543446 28604772 28667062 28727380 28784980 28840532 28896164 
3228.532 28953678 29013186 29072738 29129602 29181620 29228896 29273518 
3231.908 29318572 29366712 29418332 29471202 29522692 29570716 29615408 
3235.283 29659894 29707646 29761258 29820416 29881426 29938822 29988098 
3238.658 30027366 30058542 30086382 30115750 30149844 30188948 30230864 
3242.033 30272958 30313638 30353256 30393872 30437512 30484498 30533730 
3245.409 30582502 30628900 30672564 30715592 30760722 30811050 30867612 
3248.784 30929124 30992746 31056126 31118022 31178540 31239030 31299632 
3252.159 31359460 31416450 31468138 31514342 31557168 31601320 31651106 
3255.534 31709592 31775716 31845524 31913772 31976040 32031040 32080766 
3258.910 32128788 32178416 32230448 32283016 32333020 32378356 32418914 
3262.285 32457546 32498502 32544672 32596246 32650250 32701944 32747210 
3265.660 32784726 32816670 32846798 32879356 32916744 32958742 33002962 
3269.035 33047366 33091024 33134722 33179674 33226744 33274640 33320182 
3272.411 33360038 33391990 33416540 33436972 33457440 33480738 33507402 
3275.786 33534822 33559768 33579388 33593956 33605876 33619156 33636916 
3279.161 33659616 33685756 33712216 33736996 33759772 33782588 33807760 
3282.536 33836564 33868120 33898960 33925328 33945428 33959904 33972444 
3285.912 33987028 34006232 34029628 34053964 34074928 34089984 34099516 
3289.287 34106968 34117148 34132844 34154212 34178120 34200204 34216908 
3292.662 34228128 34236840 34247524 34263624 34285856 34311740 34337416 
3296.037 34359436 34377296 34393108 34410360 34431596 34456848 34483176 
3299.413 34506636 34524324 34536484 34545780 34557044 34573908 34597696 
3302.788 34626224 34655828 34683100 34707040 34728648 34750468 34774484 
3306.163 34800904 34827616 34852708 34874720 34895040 34917588 34946388 
3309.538 34984096 35030140 35080716 35131188 35178112 35220976 35262156 
3312.914 35305788 35354812 35409412 35467008 35523856 35576824 35625916 
3316.289 35673860 35724980 35783444 35850692 35925624 36005600 36087828 
3319.664 36171368 36257160 36346388 36439920 36536180 36632100 36724072 
3323.039 36809752 36889680 36966556 37044308 37125328 37210116 37296612 
3326.415 37382228 37465364 37546496 37628008 37712564 37801332 37892868 
3329.790 37983520 38069812 38149500 38223520 38294408 38365596 38438316 
3333.165 38511048 38579520 38639348 38688100 38726532 38759172 38790724 
3336.540 38824964 38861992 38899576 38933096 38959736 38978872 38992864 
3339.916 39004860 39017836 39031540 39044408 39053468 39056880 39055284 
3343.291 39051116 39047416 39045568 39044192 39039692 39028460 39008120 
3346.666 38979704 38946940 38914284 38884752 38858336 38832212 38802140 
3350.041 38765544 38722076 38673900 38624608 38576664 38530636 38484908 
3353.417 38436688 38384420 38328608 38271392 38215672 38162704 38111696 
3356.792 38060044 38004564 37943848 37878660 37811924 37746824 37685172 
3360.167 37626560 37568316 37507880 37443732 37376268 37307444 37239064 
3363.542 37171020 37100968 37025944 36943320 36853644 36760560 36669412 
3366.917 36585088 36509292 36439848 36371424 36298364 36217032 36127292 
3370.293 36032240 35935844 35841052 35748184 35655300 35560032 35461544 
3373.668 35361284 35262480 35168340 35079388 34993616 34906568 34813580 
3377.043 34712352 34604012 34492072 34381240 34274056 34170592 34068120 
3380.418 33963984 33856152 33745768 33635160 33527374 33423338 33321682 
3383.794 33218340 33109832 32994382 32873138 32749784 32628320 32511498 
3387.169 32399456 32290548 32182202 32073670 31965874 31860926 31760636 
3390.544 31664576 31569750 31472802 31370540 31262956 31152728 31044382 
3393.919 30941186 30843812 30748772 30650588 30544606 30429090 30306888 
3397.295 30184048 30067526 29961222 29865950 29777902 29692000 29603668 
3400.670 29511060 29414502 29316160 29217306 29118016 29017118 28913304 
3404.045 28806824 28699450 28594296 28493662 28397614 28303744 28208266 
3407.420 28107370 27999708 27886492 27770938 27656262 27544088 27434026 
3410.796 27323814 27211622 27097092 26981854 26868058 26757708 26650276 
3414.171 26543326 26433482 26319162 26200962 26082582 25967930 25860200 
3417.546 25759284 25661272 25561104 25454248 25339268 25218700 25097396 
3420.921 24980194 24870044 24766446 24666728 24567630 24467678 24366700 
3424.297 24266058 24166176 24066036 23962348 23852314 23734470 23610290 
3427.672 23484678 23363190 23249988 23145760 23047394 22949992 22849364 
3431.047 22743976 22635786 22528810 22426290 22329378 22235868 22141578 
3434.422 22042948 21938662 21830606 21722224 21616900 21516058 21418442 
3437.798 21321546 21222686 21121378 21018984 20917448 20817948 20719622 
3441.173 20619230 20513826 20401990 20285668 20169030 20056968 19951944 
3444.548 19852666 19754106 19649952 19536152 19412752 19284328 19158194 
3447.923 19040714 18934690 18838102 18746138 18653190 18555904 18453938 
3451.299 18349368 18244964 18141896 18039510 17936146 17830218 17722036 
3454.674 17613676 17507930 17406244 17308306 17211080 17111428 17007458 
3458.049 16899586 16790706 16684161 16581705 16482163 16382163 16278127 
3461.424 16168166 16054552 15941588 15835699 15740246 15655048 15575946 
3464.800 15497341 15414697 15326441 15234599 15142330 15052346 14964676 
3468.175 14876341 14783428 14683440 14576795 14467297 14359985 14258658 
3471.550 14164131 14074725 13986467 13896961 13806310 13717148 13633236 
3474.925 13556792 13486857 13419597 13350264 13275168 13194040 13109717 
3478.301 13026332 12946990 12871692 12797566 12720587 12637652 12549173 
3481.676 12458497 12370430 12288788 12214625 12145450 12076934 12006009 
3485.051 11931214 11853843 11776146 11699858 11624435 11547766 11467299 
3488.426 11381780 11292979 11204876 11121686 11046091 10977034 10910807 
3491.802 10843028 10770743 10693986 10616055 10541023 10471638 10407764 
3495.177 10346408 10283263 10215786 10143639 10069367 9996803 9928862 
3498.552 9865337 9804024 9741060 9673599 9601136 9524822 9446830 9369190 
3502.409 9291698 9213714 9134559 9055994 8981569 8915849 8862043 8819774 
3506.267 8784338 8748601 8705667 8651583 8587298 8517786 8450210 8389503 
3510.124 8337687 8292597 8250350 8207127 8161681 8114820 8068573 8024592 
3513.982 7982135 7939512 7894397 7846047 7795511 7745553 7698502 7655165 
3517.839 7613755 7570865 7523563 7470772 7414482 7358300 7305394 7257076 
3521.697 7211493 7165442 7115423 7060795 7003716 6948160 6897761 6853292 
3525.554 6812194 6769485 6720722 6663654 6599932 6533731 6469322 6408857 
3529.411 6351225 6292962 6231143 6164662 6095637 6028035 5965549 5909419 
3533.269 5857932 5806753 5751685 5691387 5627506 5563702 5503900 5449743 
3537.126 5399686 5350372 5298448 5243109 5186402 5132318 5084309 5043110 
3540.984 5006238 4969470 4928785 4882473 4832079 4781021 4731945 4684549 
3544.841 4635752 4580364 4515340 4441455 4364537 4292284 4232390 4187123 
3548.698 4153903 4126105 4096068 4059075 4014161 3964034 3912644 3863365 
3552.556 3816365 3770138 3722647 3673724 3625876 3582944 3547832 3521075 
3556.413 3499898 3479222 3454507 3424182 3389084 3353221 3320031 3290584 
3560.271 3262707 3233030 3198248 3158362 3116677 3078434 3047868 3025780 
3564.128 3007762 2986443 2953682 2904112 2837671 2759603 2678148 2601575 
3567.986 2535114 2480326 2436674 2403522 2380100 2366141 2359944 2357845 
3571.843 2354680 2345685 2327563 2301647 2271636 2243825 2222243 2208189 
3575.700 2198465 2188041 2172257 2149014 2119779 2088249 2057520 2028690 
3579.558 2000329 1969772 1935524 1899148 1864905 1838551 1823777 1820782 
3583.415 1825540 1831131 1830265 1818420 1793932 1758000 1712525 1659670 
3587.273 1601135 1539382 1479001 1426972 1390706 1374917 1379836 1399614 
3591.130 1424546 1444691 1452437 1445523 1427139 1404002 1382562 1365577 
3594.988 1352016 1338223 1320707 1299305 1276574 1256934 1243543 1236066 
3598.845 1230716 1222409 1207457 1185994 1162139 1141309 1128320 1123569 
3602.702 1124234 1124831 1121543 1112872 1101545 1091580 1085667 1083508 
3606.560 1081448 1073941 1057633 1033453 1007149 986957 979253 985230 
3610.417 1000374 1017511 1029633 1033021 1029334 1023091 1019902 1022958 
3614.275 1031593 1042786 1053182 1060190 1063180 1062316 1057267 1045609 
3618.132 1025449 995392 958830 923100 898463 893118 910582 947274 995924 
3622.472 1048266 1098655 1146292 1194366 1247231 1306782 1370164 1428568 
3626.329 1471088 1487313 1472152 1429898 1374917 1327786 1306948 1323167 
3630.187 1375814 1456493 1554944 1662364 1772439 1880246 1981755 2074465 
3634.044 2157572 2233933 2308576 2388129 2476994 2576443 2683116 2792182 
3637.901 2898408 2999555 3096754 3194876 3297628 3406983 3521309 3636601 
3641.759 3749885 3860456 3971157 4086702 4210809 4342449 4476103 4601694 
3645.616 4709368 4792143 4848530 4882239 4900233 4908141 4907371 4896480 
3649.474 4875738 4850172 4832146 4835899 4870377 4935990 5021858 5111096 
3653.331 5184357 5225804 5227011 5187878 5117399 5030070 4943094 4870041 
3657.188 4818510 4789832 4781021 4785912 4796766 4804606 4800284 4775627 
3661.046 4727088 4655846 4569046 4476371 4387330 4307711 4238747 4177688 
3664.903 4121556 4069310 4022187 3982961 3952799 3929361 3908732 3888739 
3668.761 3877640 3898334 3989314 4196156 4552136 5071369 5745339 6555293 
3672.618 7480345 8501127 9595953 10713989 11760690 12597299 13059213 
3675.993 13026639 12473295 11467912 10136449 8616870 7042475 5520578 4139586 
3679.851 2966026 2030588 1331110 835250 496830 266512 103721 -16632 -109726 
3684.190 -183656 -244294 -298368 -354290 -419473 -499572 -596367 -706075 
3688.048 -820484 -928350 -1019727 -1087025 -1128469 -1146183 -1145819 
3691.423 -1133559 -1115349 -1095618 -1076878 -1059823 -1044750 -1031991 
3694.798 -1022339 -1016653 -1016290 -1021050 -1029347 -1039263 -1048552 
3698.174 -1056815 -1065971 -1079225 -1100675 -1132534 -1174304 -1222117 
3701.549 -1270222 -1312673 -1345541 -1367737 -1380057 -1383789 -1379595 
3704.924 -1367374 -1346664 -1318487 -1285551 -1251952 -1223340 -1204407 
3708.299 -1197898 -1204605 -1223769 -1253505 -1292158 -1337943 -1387456 
3711.675 -1435245 -1473915 -1496634 -1499044 -1481411 -1448455 -1407966 
3715.050 -1367275 -1332130 -1304877 -1285287 -1271313 -1261500 -1254860 
3718.425 -1252580 -1256445 -1267183 -1283866 -1303721 -1323244 -1339298 
3721.800 -1350594 -1357762 -1362320 -1366185 -1370049 -1374244 -1378967 
3725.176 -1384285 -1390891 -1398421 -1405390 -1408032 -1402351 -1385342 
3728.551 -1357135 -1322319 -1288128 -1263780 -1255553 -1265068 -1288359 
3731.926 -1316340 -1339496 -1352973 -1358918 -1365888 -1384186 -1420119 
3735.301 -1471439 -1528365 -1576073 -1601559 -1599710 -1572606 -1527804 
3738.677 -1473222 -1414076 -1353006 -1291233 -1230939 -1177675 -1140598 
3742.052 -1131543 -1161615 -1235895 -1348216 -1477118 -1592381 -1665003 
3745.427 -1682728 -1652724 -1594890 -1530049 -1475269 -1441850 -1434353 
3748.802 -1451592 -1486992 -1530148 -1570559 -1598819 -1609713 -1602450 
3752.177 -1578549 -1541704 -1496799 -1448025 -1399049 -1353237 -1312904 
3755.553 -1280232 -1257800 -1246996 -1248813 -1261864 -1283503 -1308841 
3758.928 -1332526 -1349207 -1354360 -1345904 -1323541 -1289317 -1247162 
3762.303 -1202193 -1160260 -1127841 -1109334 -1107814 -1122322 -1148066 
3765.678 -1177708 -1203482 -1220730 -1228825 -1231237 -1233054 -1239034 
3769.054 -1250598 -1265894 -1279010 -1285155 -1281389 -1268901 -1252316 
3772.429 -1236985 -1227437 -1224794 -1227602 -1231864 -1233880 -1231104 
3775.804 -1223307 -1212106 -1200277 -1190628 -1184879 -1184019 -1187886 
3779.179 -1195882 -1206621 -1218285 -1228065 -1233417 -1232591 -1225521 
3782.555 -1213857 -1201268 -1191388 -1187324 -1190099 -1197699 -1206456 
3785.930 -1213196 -1215806 -1214386 -1210751 -1207183 -1205167 -1204870 
3789.305 -1205431 -1206125 -1206720 -1208537 -1212767 -1220399 -1230906 
3792.680 -1242338 -1252943 -1261930 -1270222 -1280695 -1296156 -1316802 
3796.056 -1339463 -1357102 -1362453 -1351057 -1324829 -1290837 -1261699 
3799.431 -1250598 -1266456 -1311153 -1376127 -1444525 -1497030 -1519681 
3802.806 -1510106 -1475467 -1428475 -1381775 -1346565 -1329421 -1332724 
3806.181 -1353600 -1384747 -1415529 -1435344 -1437128 -1419228 -1384714 
3809.557 -1340024 -1291432 -1245047 -1203845 -1168687 -1138384 -1112540 
3812.932 -1092313 -1082133 -1087554 -1113829 -1160987 -1222117 -1281653 
3816.307 -1322418 -1332163 -1309568 -1263483 -1209661 -1165217 -1143010 
3819.682 -1149487 -1182400 -1231468 -1281389 -1317463 -1331766 -1322979 
3823.058 -1296618 -1259287 -1217723 -1176684 -1139342 -1107814 -1083224 
3826.433 -1065045 -1050998 -1038867 -1026471 -1013447 -1002042 -995992 
3829.808 -999034 -1013281 -1036850 -1063888 -1086562 -1097932 -1094263 
3833.183 -1076878 -1051130 -1024587 -1004158 -994604 -997579 -1012719 
3836.559 -1037214 -1067888 -1100675 -1130816 -1152990 -1163400 -1159864 
3839.934 -1143440 -1118423 -1091784 -1069210 -1055526 -1052022 -1056319 
3843.309 -1064417 -1071491 -1073970 -1071127 -1063327 -1051626 -1036751 
3846.684 -1018504 -996125 -969909 -940815 -911785 -886788 -870089 -865691 
3850.542 -878289 -912446 -973512 -1065343 -1187489 -1328926 -1467113 
3853.917 -1574620 -1629981 -1626416 -1573068 -1488114 -1391518 -1298733 
3857.292 -1219540 -1157683 -1111218 -1075589 -1046668 -1022008 -1002505 
3860.667 -990472 -988191 -995530 -1010670 -1030140 -1050998 -1071854 
3864.043 -1092611 -1112870 -1130122 -1140498 -1139243 -1125032 -1100708 
3867.418 -1074697 -1057608 -1058997 -1083852 -1127147 -1175065 -1209991 
3870.793 -1219375 -1201499 -1165217 -1124173 -1092115 -1077341 -1079952 
3874.168 -1092809 -1105566 -1108673 -1097568 -1073573 -1041214 -1006835 
3877.544 -975165 -949609 -931656 -922928 -924019 -934301 -950998 -968619 
3881.401 -980058 -980918 -969843 -951725 -934566 -928813 -941708 -974603 
3885.259 -1020355 -1065310 -1095651 -1101766 -1082861 -1045973 -1002240 
3888.634 -961577 -931822 -916910 -917009 -929904 -951295 -976190 -999563 
3892.491 -1016290 -1022372 -1015860 -996554 -967330 -932648 -897766 -866584 
3896.349 -841087 -821476 -806131 -794126 -786022 -783377 -788271 -801302 
3900.206 -820319 -841418 -860631 -875677 -888110 -901568 -919787 -944319 
3904.063 -972223 -996654 -1010670 -1009810 -994339 -968917 -939922 -912810 
3907.921 -890392 -871577 -853720 -833878 -811489 -788271 -767302 -751293 
3911.778 -740808 -733928 -727775 -720134 -711500 -704553 -704057 -713055 
3915.636 -731910 -757214 -783277 -804510 -817938 -824883 -828554 -832688 
3919.493 -838574 -844262 -846114 -840790 -827099 -807652 -786618 -769320 
3923.351 -759099 -756288 -758934 -764061 -768857 -772528 -775538 -778217 
3927.208 -780135 -779606 -774711 -764325 -749573 -734424 -723276 -720134 
3931.065 -726386 -739915 -756916 -773156 -785328 -793464 -798326 -801468 
3934.923 -803518 -803684 -800376 -793365 -783013 -771503 -761481 -754700 
3938.780 -750566 -747622 -743685 -738062 -732042 -729230 -732836 -744479 
3942.638 -762241 -781160 -795415 -800906 -796970 -786849 -775769 -768493 
3946.495 -767666 -772991 -781326 -789694 -795945 -800476 -805238 -811786 
3950.353 -820848 -830769 -839533 -845287 -847404 -847966 -849057 -853025 
3954.210 -859871 -867807 -873759 -875876 -873032 -866617 -858713 -851537 
3958.067 -845585 -840161 -833547 -825180 -815259 -806164 -799979 -798557 
3961.925 -801666 -807454 -813605 -818103 -820749 -822237 -823725 -825147 
3965.782 -824916 -820782 -810761 -794952 -776497 -759496 -748482 -746067 
3969.640 -751690 -761315 -771040 -776828 -777555 -774546 -770709 -768129 
3973.497 -767831 -768691 -769055 -767633 -764722 -761415 -759695 -760125 
3977.354 -761613 -762241 -760290 -755163 -748713 -743785 -742925 -746927 
3981.212 -754039 -760389 -762705 -759298 -750830 -740576 -732406 -727874 
3985.069 -727047 -727576 -727213 -724930 -722251 -721788 -726750 -737533 
3988.927 -752120 -765714 -773454 -772627 -763697 -750003 -736243 -726022 
3992.784 -720895 -719241 -718943 -718347 -717653 -718414 -723012 -731744 
3996.642 -742759 -752848 -758173 -756453 -748746 -738095 -728701 -723012 
4000.499 -721060 
##END=
