
##TITLE=Z345_3_d
##JCAMP-DX=5.01  $$ Nicolet v. 1
##DATATYPE=INFRARED SPECTRUM
##ORIGIN=UniL
##OWNER=Nicolet
##LONGDATE=2011/09/14
##TIME=10:28:24
##SPECTROMETER/DATA SYSTEM=Nicolet iS5
##DATA PROCESSING=
Ratio against background
%Transmittance->Absorbance
Truncated
ElementMultiply or ElementDivide
##COMMENTS=
Number of sample scans: 32
Collection length: 51.21 sec
Sample gain: 2.0
Background collected on: Mer Sep 14 10:08:15 2011 (GMT+02:00);
Number of background scans: 32
Background gain: 2.0
Sample spacing:  1.000
Number of scan points: 12415
Resolution points: 8192
Number of FFT points: 65536
Apodization: N-B fort;
Phase correction: Mertz;
Laser frequency: 15798.0 cm-1
Number of rejected sample scans: 0
Number of rejected background scans: 0
Bench serial number: ASB1000141;
##RESOLUTION=4.000
##XUNITS=1/CM
##YUNITS=ABSORBANCE
##FIRSTX=649.893372
##LASTX=4000.122314
##FIRSTY=0.108885
##MAXX=4000.122314
##MINX=649.893372
##MAXY=0.528143
##MINY=-0.002218
##XFACTOR=1.000000
##YFACTOR=1.000000E-009
##NPOINTS=6950
##DELTAX=0.482117
##ZPD=6100
##XYDATA=(X++(Y..Y))
649.893 108884592 109075328 109379768 109773792 110218184 110684448 
652.786 111177272 111739832 112434264 113315336 114398608 115655760 
655.679 117023312 118440440 119874272 121335144 122864384 124510552 
658.571 126297640 128214224 130221872 132284256 134397168 136603024 
661.464 138978176 141594864 144491760 147644624 150977264 154385664 
664.357 157785328 161133808 164410768 167595216 170607680 173256896 
667.250 175262000 176339600 176358896 175418544 173761376 171609184 
670.142 169070496 166154816 162837200 159124288 155098432 150913856 
673.035 146739008 142723984 138942416 135397104 132057864 128904016 
675.928 125948728 123237256 120812320 118684320 116816520 115139816 
678.820 113581616 112096192 110679824 109359824 108166896 107107048 
681.713 106151184 105246272 104342976 103418560 102490704 101603504 
684.606 100808160 100134544 99579568 99114168 98704312 98330304 97993352 
687.981 97710064 97490288 97320240 97158552 96945136 96622048 96158440 
691.355 95555944 94843112 94054904 93214520 92325680 91379312 90368832 
694.730 89308064 88232136 87191680 86230720 85368792 84596768 83885472 
698.105 83205048 82539376 81895784 81296008 80762808 80303736 79907160 
701.480 79548064 79204056 78867672 78549656 78270552 78047736 77881136 
704.855 77752432 77632136 77496056 77338816 77176752 77039992 76955448 
708.229 76938400 76987136 77093528 77256864 77493448 77833720 78308568 
711.604 78923704 79643216 80381320 81023600 81450736 81567656 81334120 
714.979 80766008 79926872 78900888 77779264 76644912 75563000 74590384 
718.354 73771760 73135368 72691176 72426976 72314600 72319520 72415584 
721.729 72593216 72856712 73211096 73645456 74116680 74550848 74853272 
725.104 74926888 74705472 74164664 73329040 72257888 71033024 69741024 
728.478 68455688 67242912 66154972 65226584 64476332 63901432 63479312 
731.853 63171976 62938696 62748416 62583060 62441444 62329440 62252076 
735.228 62205348 62176136 62147076 62107396 62057204 62008052 61975876 
738.603 61971516 61994600 62033776 62072688 62100132 62116228 62133280 
741.978 62168108 62232840 62327720 62441140 62557036 62662020 62754580 
745.352 62842912 62940264 63054188 63181520 63307384 63414460 63490696 
748.727 63536340 63563228 63588804 63626824 63679576 63740008 63797376 
752.102 63847228 63896744 63963352 64065328 64213776 64405120 64623460 
755.477 64847492 65062588 65267248 65472728 65694848 65944268 66221156 
758.852 66515632 66817268 67123864 67447328 67811808 68244752 68764104 
762.227 69373672 70064336 70824576 71651960 72562944 73591912 74791152 
765.601 76224248 77960624 80087456 82705544 85915792 89800760 94369120 
768.976 99510568 104936352 110196832 114728944 117921872 119309152 118667560 
772.351 116094784 111971312 106873056 101438320 96187176 91499440 87570648 
775.726 84430768 82004864 80162088 78769032 77701744 76863960 76188152 
779.101 75623968 75140864 74724720 74374048 74096168 73900784 73794376 
782.475 73778168 73848464 74000328 74231256 74540928 74929144 75393208 
785.850 75924888 76511600 77142600 77811928 78523088 79287648 80121088 
789.225 81037376 82044728 83147384 84349720 85661896 87105048 88710080 
792.600 90513032 92550896 94852552 97435840 100304944 103449208 106841104 
795.975 110429760 114145744 117897752 121580080 125098216 128377360 
798.867 131380616 134111808 136603520 138896016 141014592 142962352 
801.760 144725584 146296304 147699504 149013344 150367520 151943168 
804.653 153929808 156498832 159787632 163869040 168748400 174350752 
807.546 180526704 187035664 193534912 199626752 204847920 208727264 
810.438 210880704 211026896 209046192 204984032 199030272 191484928 
813.331 182702528 173089936 163049840 152941920 143092096 133743000 
816.224 125053704 117121448 109979216 103620120 98012704 93109808 88853944 
819.598 85178312 82013664 79288200 76934008 74895864 73130080 71604720 
822.973 70297504 69188480 68257776 67485336 66851736 66341884 65947048 
826.348 65662624 65486020 65412024 65429584 65523052 65674380 65865600 
829.723 66082284 66312276 66541968 66755288 66931516 67048496 67090452 
833.098 67053332 66950576 66809148 66666344 66559308 66514820 66548072 
836.473 66660748 66845596 67089604 67378480 67697904 68030976 68359728 
839.847 68666680 68936416 69160544 69339816 69481984 69597640 69694728 
843.222 69774056 69829704 69851648 69831056 69765296 69659088 69522968 
846.597 69368384 69205696 69041984 68883144 68736160 68611536 68521912 
849.972 68480360 68495648 68570328 68700488 68878864 69098888 69357736 
853.347 69656336 69998000 70384264 70813040 71278144 71772336 72290560 
856.721 72833904 73407896 74020720 74680016 75389064 76147128 76952008 
860.096 77803920 78708016 79675464 80719920 81852976 83082664 84410880 
863.471 85836808 87360520 88986824 90726128 92594408 94608584 96786360 
866.846 99147552 101714592 104517392 107593248 110976288 114688816 118721344 
870.221 123021112 127474696 131910976 136125376 139877040 142933024 
873.113 145098928 146223120 146230000 145124464 142996944 140010656 
876.006 136382896 132369904 128212856 124126208 120283488 116797008 
878.899 113735848 111133152 108994280 107308840 106054176 105200584 
881.792 104710440 104541672 104654024 105006480 105562616 106289848 
884.684 107153608 108116912 109140416 110180176 111196704 112159896 
887.577 113050464 113862104 114596704 115259088 115852744 116379584 
890.470 116842928 117251208 117622296 117982352 118359672 118781008 
893.362 119263320 119810736 120413488 121050400 121692720 122302568 
896.255 122837696 123255264 123513008 123580864 123449024 123134168 
899.148 122678872 122145344 121608048 121133776 120777792 120580272 
902.040 120565184 120749040 121145200 121765296 122620256 123717144 
904.933 125056896 126635328 128445448 130482568 132745864 135238912 
907.826 137965232 140923744 144103984 147487120 151046224 154754352 
910.719 158588288 162527424 166553328 170642288 174760096 178864688 
913.611 182907872 186842688 190633280 194252592 197679536 200891792 
916.504 203855776 206524048 208841376 210746512 212183440 213108256 
919.397 213485856 213293536 212522320 211181632 209307504 206966080 
922.289 204258800 201305088 198231680 195165136 192210736 189460784 
925.182 187000352 184903664 183244240 182085200 181461648 181366256 
928.075 181730880 182427792 183259584 183985840 184367472 184175472 
930.967 183247728 181515488 179011680 175872736 172311984 168604992 
933.860 165024784 161810096 159147472 157137392 155806752 155120272 
936.753 155005728 155371008 156121296 157176160 158461136 159905936 
939.646 161444080 162998816 164484032 165811376 166881600 167597968 
942.538 167877568 167654304 166900048 165634048 163932208 161916992 
945.431 159740304 157569136 155543952 153768976 152306432 151175328 
948.324 150367744 149861344 149631120 149651824 149898016 150342592 
951.216 150953440 151696880 152545344 153478928 154489152 155576288 
954.109 156742528 157986352 159299408 160668720 162082016 163533472 
957.002 165025808 166567184 168165296 169821136 171526640 173266720 
959.894 175025744 176795264 178576320 180377856 182209584 184075632 
962.787 185970752 187882800 189797856 191708576 193616448 195531040 
965.680 197462864 199416496 201387584 203365024 205337552 207300112 
968.573 209257584 211220768 213200192 215197152 217200288 219187888 
971.465 221137520 223033696 224874400 226669600 228437088 230194720 
974.358 231956096 233733456 235543328 237409568 239367440 241456624 
977.251 243710416 246149648 248777408 251583216 254551472 257670848 
980.143 260939120 264357952 267924544 271619872 275399712 279200544 
983.036 282943104 286540960 289917024 292998720 295720128 298027872 
985.929 299881824 301270848 302224320 302822400 303189472 303465408 
988.821 303796096 304297792 305044288 306075200 307402272 309024928 
991.714 310940576 313145120 315627936 318363104 321311520 324425440 
994.607 327660064 330989536 334408960 337929728 341565504 345320512 
997.500 349181728 353126368 357131808 361190336 365313568 369527808 
1000.392 373858304 378314336 382883712 387538112 392248992 397000608 
1003.285 401798496 406661728 411609920 416645984 421751040 426891520 
1006.178 432038144 437181280 442337504 447538624 452812224 458160480 
1009.070 463552992 468932160 474235200 479418752 484463616 489369568 
1011.963 494134464 498732576 503108928 507193568 510920096 514254912 
1014.856 517202560 519794336 522060704 524008992 525615392 526841760 
1017.748 527659648 528077600 528143104 527930080 527509344 526917408 
1020.641 526151552 525179392 523966080 522490784 520754208 518762944 
1023.534 516503328 513923104 510934592 507424544 503293696 498480768 
1026.427 492963968 486756192 479882208 472365312 464230464 455521536 
1029.320 446325760 436777632 427059328 417380128 407930304 398879680 
1032.213 390364096 382480384 375311488 368924960 363363424 358641888 
1035.106 354727680 351539360 348945728 346791232 344924416 343206208 
1037.999 341534336 339839776 338071904 336195904 334185632 332025984 
1040.892 329719616 327288416 324768064 322192224 319582432 316938912 
1043.785 314245376 311481952 308641408 305738720 302813504 299917280 
1046.678 297096896 294388064 291809088 289367072 287069472 284929056 
1049.571 282963232 281188800 279610816 278217696 276983104 275876608 
1052.464 274873632 273963136 273146976 272430784 271811456 271269760 
1055.357 270768224 270258656 269696992 269046944 268284736 267394208 
1058.250 266356944 265149152 263745104 262125376 260289696 258263104 
1061.144 256096832 253855296 251603808 249403648 247302960 245344848 
1064.037 243575200 242041664 240794656 239879296 239321216 239122352 
1066.930 239258064 239686112 240350656 241192016 242153440 243172416 
1069.823 244181280 245111856 245891936 246463952 246794800 246879776 
1072.716 246740864 246413872 245937712 245341040 244642048 243854608 
1075.609 242995760 242092192 241180464 240296784 239470480 238717184 
1078.502 238038528 237429584 236887040 236414544 236021616 235716448 
1081.395 235497744 235349424 235243488 235150000 235044768 234918688 
1084.288 234776656 234631840 234495136 234369680 234250240 234128336 
1087.181 234000144 233870864 233753008 233662208 233609632 233598288 
1090.074 233627232 233699552 233829328 234048432 234400480 234927600 
1092.967 235660800 236606432 237744176 239029376 240403968 241806848 
1095.860 243174368 244447152 245570544 246492528 247174864 247598832 
1098.753 247770576 247717920 247480448 247093648 246571152 245899520 
1101.646 245040112 243947072 242578016 240910912 238948176 236713312 
1104.540 234243792 231581648 228776288 225881248 222952880 220053232 
1107.433 217237040 214541968 211985472 209560224 207241504 204996400 
1110.326 202796704 200623136 198465280 196316752 194168752 192007136 
1113.219 189816528 187584704 185310720 183006480 180695504 178406048 
1116.112 176163296 173988160 171896896 169904192 168027504 166285600 
1119.005 164693024 163253376 161951184 160750992 159598224 158433552 
1121.898 157201488 155857264 154374928 152742400 150957328 149023056 
1124.791 146945904 144735888 142407392 139981216 137482544 134937040 
1127.684 132370488 129805904 127262832 124760912 122318376 119950208 
1130.577 117667304 115471888 113358040 111312544 109320656 107371800 
1133.470 105463336 103602456 101803544 100085272 98463464 96950688 95555376 
1136.845 94282000 93134200 92114752 91224488 90460920 89816080 89277696 
1140.221 88829256 88454424 88139456 87873640 87648608 87456024 87283912 
1143.596 87116392 86934576 86718160 86450736 86120736 85721952 85253096 
1146.971 84715752 84114808 83458472 82760984 82044088 81334560 80664136 
1150.346 80064304 79560600 79172960 78913728 78788656 78799976 78946152 
1153.722 79222392 79617832 80114592 80687512 81302552 81923352 82512256 
1157.097 83031792 83448824 83732120 83851072 83779496 83495408 82984744 
1160.472 82245136 81285696 80126064 78790840 77308720 75708248 74015536 
1163.847 72257776 70461376 68650920 66850580 65079368 63350976 61674488 
1167.223 60055012 58496144 57002388 55579272 54233664 52972196 51799532 
1170.598 50718868 49731564 48839040 48043820 47350768 46765860 46296104 
1173.973 45947980 45726456 45635832 45680440 45866220 46201972 46699408 
1177.348 47372424 48236756 49308328 50602436 52135796 53924812 55987104 
1180.724 58341948 61006448 63996220 67321840 70985688 74978040 79269040 
1184.099 83805896 88496472 93203024 97754760 101935680 105517448 108298168 
1187.474 110112664 110873192 110576592 109303392 107198984 104448656 
1190.367 101268936 97865400 94421296 91091928 87979648 85140936 82586992 
1193.742 80290504 78196208 76233168 74333824 72437656 70502224 68507712 
1197.118 66453808 64358308 62249476 60163880 58138520 56204800 54388588 
1200.493 52705724 51162456 49757352 48483164 47330004 46286964 45344544 
1203.868 44494824 43730924 43046696 42435104 41888556 41400060 40963340 
1207.243 40574968 40234520 39944508 39710084 39536792 39430576 39396508 
1210.619 39439104 39563072 39772136 40069924 40459008 40940000 41511752 
1213.994 42171368 42915000 43738364 44635844 45601052 46624440 47692072 
1217.369 48787692 49891692 50983488 52045016 53060212 54016428 54905720 
1220.744 55723860 56472372 57158036 57794928 58402360 59001452 59614528 
1224.120 60258996 60946280 61681172 62462680 63285688 64142564 65024412 
1227.495 65921204 66820704 67710768 68578824 69414448 70211960 70970712 
1230.870 71695848 72396400 73086320 73783392 74508912 75290936 76163432 
1234.245 77163376 78332176 79709336 81329168 83222704 85414608 87925408 
1237.621 90773656 93974008 97536080 101460168 105735408 110337264 115227896 
1240.996 120364176 125696840 131172296 136737024 142326352 147864448 
1243.889 153269120 158445712 163297824 167735424 171665408 174994512 
1246.782 177627264 179455168 180371136 180281088 179112048 176831104 
1249.675 173448176 169017200 163628368 157407040 150512432 143118544 
1252.568 135417328 127604648 119850120 112303664 105081976 98259464 91884808 
1255.943 85980080 80545584 75567104 71017848 66862600 63058788 59562648 
1259.319 56333604 53334432 50536920 47921260 45474104 43188636 41060972 
1262.694 39088744 37269932 35601388 34079016 32697692 31451392 30333358 
1266.069 29336756 28453364 27674872 26992468 26397496 25882744 25443214 
1269.444 25076194 24780932 24557744 24407038 24328536 24322368 24389726 
1272.820 24534322 24762236 25081460 25498132 26013766 26620860 27302078 
1276.195 28027982 28758746 29450422 30054422 30524414 30823892 30926456 
1279.570 30821652 30515848 30030738 29400002 28661470 27856530 27022334 
1282.945 26189170 25382684 24621070 23917534 23281414 22717544 22226870 
1286.321 21806496 21450746 21152270 20903608 20699466 20536582 20413276 
1289.696 20327956 20277682 20257476 20261608 20283758 20319658 20367262 
1293.071 20426126 20496320 20577052 20665722 20759034 20854276 20950894 
1296.446 21051084 21159192 21280796 21420010 21579292 21759044 21958982 
1299.822 22179306 22421266 22686962 22977868 23294628 23635970 24000130 
1303.197 24386290 24795912 25232854 25702258 26208246 26752176 27330872 
1306.572 27937902 28563296 29196930 29828258 30446398 31040220 31597794 
1309.947 32106380 32554996 32935508 33243876 33480454 33648556 33752252 
1313.323 33794796 33777392 33699972 33563024 33367946 33118594 32820210 
1316.698 32479540 32102816 31696260 31267014 30823642 30376958 29940136 
1320.073 29525744 29144414 28802610 28501940 28240444 28014304 27820498 
1323.448 27657816 27526720 27428626 27364184 27333942 27337752 27377524 
1326.823 27457002 27582078 27759458 27993842 28286238 28633508 29030082 
1330.199 29470138 29949296 30466122 31020468 31611156 32233800 32879606 
1333.574 33534642 34182708 34805608 35383856 35899276 36332876 36667644 
1336.949 36891484 36998304 36992168 36886976 36706872 36481684 36240480 
1340.324 36010064 35809240 35649296 35537304 35477756 35475420 35535540 
1343.700 35663104 35861848 36134136 36481216 36905156 37409312 37997584 
1347.075 38672196 39430724 40264368 41156840 42086992 43032208 43969288 
1350.450 44876100 45731204 46511024 47190508 47746732 48158824 48414744 
1353.825 48512656 48460864 48275932 47979316 47595932 47149508 46664580 
1357.201 46166264 45678160 45223700 44823820 44493136 44240836 44070532 
1360.576 43983260 43981312 44070640 44261236 44563768 44983876 45517924 
1363.951 46150604 46856500 47604660 48357628 49076252 49718300 50236856 
1367.326 50588920 50738676 50665208 50367884 49865376 49191420 48382816 
1370.702 47476348 46503056 45485764 44446516 43409600 42404052 41467932 
1374.077 40642712 39964268 39460008 39143712 39020084 39092736 39371008 
1377.452 39872808 40625576 41657608 42992552 44641572 46597696 48829624 
1380.827 51272360 53828896 56356204 58673264 60597304 61952676 62610120 
1384.203 62504612 61630000 60037280 57821428 55134160 52167624 49130496 
1387.578 46232340 43629032 41405568 39579328 38115892 36954796 36026628 
1390.953 35270136 34634116 34078760 33577988 33116270 32688726 32299828 
1394.328 31960420 31683468 31478968 31349916 31291266 31290266 31326662 
1397.704 31375420 31411178 31411532 31366262 31280472 31175086 31078408 
1401.079 31017798 31014310 31078692 31213750 31417802 31688456 32023192 
1404.454 32417376 32860484 33331916 33800168 34231392 34593964 34869224 
1407.829 35056220 35170420 35238440 35288820 35347876 35433324 35555680 
1411.205 35721848 35938076 36211308 36547352 36947108 37405232 37909208 
1414.580 38445160 39002176 39575592 40167644 40783360 41425428 42091304 
1417.955 42773332 43465188 44167320 44893256 45663328 46491920 47383696 
1421.330 48329816 49315900 50328632 51365324 52437136 53565192 54772488 
1424.706 56073128 57467912 58947600 60501160 62125748 63831224 65635996 
1428.081 67558648 69609232 71784176 74070352 76454032 78930456 81505736 
1431.456 84188688 86982128 89874064 92841504 95850392 98869248 101871824 
1434.831 104822456 107671528 110343928 112747688 114803344 116481352 
1437.724 117817696 118885688 119767640 120525120 121184752 121738760 
1440.617 122147064 122349120 122264672 121806480 120898936 119483976 
1443.510 117541064 115093728 112212312 108998456 105560792 102009928 
1446.404 98439480 94931864 91574504 88456256 85658624 83237072 81202040 
1449.779 79519096 78122936 76945952 75934400 75061848 74326472 73737320 
1453.154 73295928 72985216 72765056 72579048 72371304 72098840 71755720 
1456.529 71382952 71060024 70866040 70841592 70983816 71261320 71637384 
1459.905 72081048 72570512 73087808 73612832 74124416 74597304 75005376 
1463.280 75328376 75557008 75699256 75778744 75833544 75902944 76017368 
1466.655 76198776 76460072 76808640 77249976 77788384 78428176 79173640 
1470.030 80031000 81009544 82119896 83372304 84771608 86318704 88009960 
1473.406 89850184 91861432 94076008 96535720 99277456 102317928 105648648 
1476.781 109235216 113031808 116991600 121080616 125282672 129586112 
1479.674 133979800 138449472 142972672 147529840 152109392 156707536 
1482.567 161321376 165937392 170515440 174989856 179262720 183203712 
1485.460 186672608 189513616 191566816 192686352 192740368 191628256 
1488.353 189299968 185780736 181201472 175802304 169930016 163968160 
1491.246 158246016 153000720 148337472 144254336 140697280 137594144 
1494.139 134890080 132567376 130640240 129136320 128059048 127358552 
1497.032 126910704 126524824 125999792 125138344 123785224 121856920 
1499.925 119335448 116276504 112788064 109017448 105114176 101189832 
1502.818 97318792 93506688 89689208 85746248 81525680 76904616 71874256 
1506.194 66626824 61534088 56992264 53232320 50249688 47872348 45893436 
1509.569 44138600 42498136 40923908 39409752 37969992 36617824 35357544 
1512.944 34180452 33070534 32009422 30979970 29966194 28953502 27932248 
1516.319 26904084 25887278 24914362 24020056 23228244 22538232 21923502 
1519.695 21335990 20725808 20060472 19348898 18642986 18013744 17512518 
1523.070 17146792 16885324 16676828 16475074 16249955 15997482 15735263 
1526.445 15490335 15282371 15114265 14974966 14850281 14733722 14630937 
1529.820 14556168 14522865 14534651 14580290 14636283 14674598 14678026 
1533.196 14649032 14612466 14599958 14634707 14719669 14840236 14973663 
1536.571 15099651 15205533 15287038 15344908 15379990 15387199 15355824 
1539.946 15277497 15156569 15014306 14878535 14769167 14687177 14614248 
1543.321 14520809 14381289 14183816 13938153 13670711 13413583 13189360 
1546.697 13001954 12839644 12682308 12513944 12328193 12132673 11943372 
1550.072 11776827 11640294 11529256 11432294 11338143 11242855 11151262 
1553.447 11073826 11020941 10996268 10995147 11006973 11020363 11027432 
1556.822 11022878 11000549 10951140 10862936 10731514 10571883 10418182 
1560.198 10306403 10255037 10263620 10316481 10391643 10466276 10524219 
1563.573 10559423 10578197 10595343 10627803 10685972 10768773 10865144 
1566.948 10959839 11041333 11105505 11156531 11204298 11259143 11327395 
1570.323 11409774 11505438 11615315 11742817 11892322 12065350 12257500 
1573.698 12457269 12649660 12822035 12971058 13108863 13259761 13450560 
1577.074 13694374 13987835 14316732 14666956 15030083 15405771 15798416 
1580.449 16212223 16645463 17090026 17531594 17955588 18352652 18719222 
1583.824 19057056 19368994 19654980 19911320 20131926 20312610 20454640 
1587.199 20565970 20660718 20753610 20857786 20981460 21128892 21303136 
1590.575 21509582 21756606 22054662 22412788 22834696 23318192 23856760 
1593.950 24444228 25078124 25761674 26502048 27306912 28179982 29119434 
1597.325 30118626 31168214 32258640 33378716 34515212 35650232 36758940 
1600.700 37813552 38785400 39649240 40388388 40995896 41474276 41833208 
1604.076 42086444 42247284 42324236 42319268 42227492 42039320 41743976 
1607.451 41333404 40806036 40168224 39433952 38623156 37763308 36886216 
1610.826 36027060 35222952 34503304 33885312 33370808 32946446 32588102 
1614.201 32265670 31951718 31624768 31276024 30913862 30562130 30252072 
1617.577 30008796 29843662 29752354 29718574 29718858 29726946 29718042 
1620.952 29669862 29568056 29409860 29206888 28981306 28759842 28564004 
1624.327 28402636 28272694 28162870 28059862 27952602 27833110 27697722 
1627.702 27544866 27375442 27192044 26998884 26801724 26606240 26417040 
1631.078 26235066 26056334 25870998 25664504 25418552 25113194 24732596 
1634.453 24271454 23743360 23183506 22640044 22157790 21760508 21447962 
1637.828 21202506 21001040 20820870 20644736 20463496 20275356 20085318 
1641.203 19901746 19732504 19581004 19444318 19312698 19171766 19005716 
1644.579 18798552 18539340 18225232 17864362 17476882 17091438 16738361 
1647.954 16440075 16207511 16039357 15924230 15842674 15767010 15662434 
1651.329 15485151 15190744 14757272 14213155 13644314 13148478 12781323 
1654.704 12538567 12383487 12274677 12181911 12088346 11987547 11879688 
1658.080 11768111 11655984 11544499 11432430 11316750 11193928 11060468 
1661.455 10913866 10753828 10583223 10409223 10242349 10094156 9974053 
1664.830 9885912 9827579 9791113 9764781 9734318 9686847 9613262 9510259 
1668.688 9382293 9239166 9094665 8960834 8846284 8755261 8687547 8639414 
1672.545 8603250 8568947 8523665 8455413 8358392 8237450 8109486 7996241 
1676.402 7915520 7873241 7863456 7872600 7886366 7894835 7895240 7892405 
1680.260 7894599 7908872 7935125 7963775 7975958 7948893 7863693 7717659 
1684.117 7531789 7346235 7199062 7107777 7068440 7064634 7079149 7097101 
1687.975 7108552 7108283 7094170 7066621 7029173 6987924 6950820 6926040 
1691.832 6919206 6931225 6957520 6987419 7007993 7006477 6976812 6924660 
1695.689 6868204 6830740 6827038 6858476 6912136 6968832 7006040 7005164 
1699.547 6958193 6874264 6780288 6706185 6671796 6678560 6716212 6770292 
1703.404 6827105 6876081 6910150 6926377 6927555 6920047 6911563 6908466 
1707.262 6913280 6925198 6940988 6956913 6971055 6983513 6996982 7014693 
1711.119 7039377 7071437 7108518 7146310 7179826 7205597 7221768 7227630 
1714.977 7222677 7203879 7165543 7101176 7006848 6885979 6751143 6621026 
1718.834 6511868 6432767 6383436 6356840 6342685 6331288 6315722 6292592 
1722.691 6261362 6223581 6181567 6137172 6091673 6046312 6003006 5963533 
1726.549 5929472 5901090 5876941 5854473 5831771 5809171 5789594 5778312 
1730.406 5779420 5793422 5815854 5835868 5838655 5810682 5745709 5651943 
1734.264 5551251 5471653 5432128 5435718 5473801 5531383 5594210 5649560 
1738.121 5689138 5709617 5712706 5704581 5693570 5687493 5690313 5702164 
1741.979 5719622 5737483 5750510 5754573 5748126 5732447 5710322 5685446 
1745.836 5660503 5636939 5614416 5591022 5564910 5533531 5494605 5446287 
1749.693 5385897 5312166 5225402 5129770 5033154 4945072 4873761 4824138 
1753.551 4795393 4782093 4774689 4763701 4740621 4702000 4650387 4593490 
1757.408 4541154 4500174 4473157 4456921 4445774 4432350 4411095 4379498 
1761.266 4338064 4291214 4244803 4205021 4176986 4164072 4167184 4184981 
1765.123 4213586 4246677 4277260 4298341 4305904 4300583 4287432 4273412 
1768.980 4263975 4260161 4258020 4249889 4227471 4186453 4129416 4065564 
1772.838 4007740 3965339 3941699 3933641 3934644 3938322 3941164 3942769 
1776.695 3944407 3947717 3952064 3954672 3951997 3940361 3919096 3890377 
1780.553 3859554 3831942 3810716 3796009 3784678 3772378 3754931 3729899 
1784.410 3697550 3659957 3620563 3582743 3550037 3525017 3510353 3507681 
1788.268 3517201 3536942 3562231 3586284 3601552 3601519 3583779 3550538 
1792.125 3508983 3467799 3435169 3415265 3407985 3410690 3420274 3433533 
1795.982 3448896 3465161 3481694 3497760 3512424 3525418 3536809 3546396 
1799.840 3554982 3562498 3568745 3573255 3576295 3578500 3581273 3586919 
1803.697 3596808 3611709 3630887 3652606 3674893 3695879 3714894 3732138 
1807.555 3748314 3764256 3780032 3795106 3808844 3820343 3828499 3833413 
1811.412 3834716 3832811 3828599 3823117 3818571 3817267 3821646 3833245 
1815.270 3852333 3877072 3904854 3932604 3958016 3980821 4002256 4024963 
1819.127 4051885 4084662 4124232 4169860 4220512 4274516 4330334 4385723 
1822.984 4438208 4485343 4525284 4558163 4586659 4615491 4649249 4690846 
1826.842 4739984 4793215 4844845 4889510 4924126 4950099 4972520 4998361 
1830.699 5033858 5080957 5137616 5198608 5258033 5311495 5356813 5394049 
1834.557 5424948 5451689 5475143 5495410 5511517 5522188 5526618 5525376 
1838.414 5519806 5512423 5505880 5502054 5501651 5503564 5504873 5500745 
1842.271 5486216 5457493 5414279 5361509 5308141 5265746 5242371 5241063 
1846.129 5258200 5286574 5317600 5344736 5365299 5380463 5394351 5411125 
1849.986 5433336 5460345 5489370 5516383 5538968 5557291 5573435 5590887 
1853.844 5611966 5637308 5665270 5693670 5720293 5744634 5767231 5789594 
1857.701 5812630 5836540 5860015 5881878 5901627 5919933 5938172 5957554 
1861.559 5978280 5998907 6017519 6032705 6044800 6056526 6072016 6094562 
1865.416 6124974 6160495 6195213 6221194 6232118 6224925 6201397 6167519 
1869.273 6130619 6097183 6069529 6046581 6024171 5997597 5963164 5918253 
1873.131 5862600 5797116 5723516 5644055 5560614 5475176 5388782 5302003 
1876.988 5214336 5125244 5033992 4940179 4845381 4751307 4660602 4575408 
1880.846 4496759 4424116 4355635 4289373 4224326 4160995 4101586 4048407 
1884.703 4003660 3967813 3939692 3916856 3896228 3875266 3852032 3824855 
1888.561 3792800 3756034 3715629 3674225 3636333 3606330 3587821 3582209 
1892.418 3587788 3600517 3615017 3626310 3632424 3633928 3633560 3634496 
1896.275 3638572 3644954 3650868 3652539 3647694 3635866 3619227 3601118 
1900.133 3585483 3574658 3570215 3571885 3578801 3589458 3602354 3614950 
1903.990 3624573 3627613 3621900 3606564 3583478 3556251 3529627 3507380 
1907.848 3491013 3479423 3469737 3459015 3445823 3430928 3416434 3404712 
1911.705 3397065 3393191 3390586 3387447 3382038 3374057 3364573 3354189 
1915.563 3343270 3330882 3316158 3298830 3280534 3264543 3254495 3252058 
1919.420 3256398 3263208 3267548 3264610 3252592 3233330 3211733 3193541 
1923.277 3183695 3184062 3193241 3208562 3225920 3243011 3258935 3273624 
1927.135 3287245 3299899 3311250 3321634 3331784 3343537 3358363 3376528 
1930.992 3396464 3415499 3430160 3438810 3441815 3442617 3445389 3453571 
1934.850 3468033 3486737 3505643 3520507 3528825 3530596 3527890 3523681 
1938.707 3518937 3513693 3506378 3495055 3479490 3461487 3444354 3432230 
1942.564 3426520 3426686 3428791 3429124 3424215 3413562 3398434 3382105 
1946.422 3367812 3358496 3355558 3359899 3371018 3388549 3411157 3436472 
1950.279 3460385 3478955 3488374 3487205 3477152 3461754 3445556 3432030 
1954.137 3421343 3411358 3398200 3378498 3350649 3316325 3278698 3242043 
1957.994 3209163 3181058 3157327 3137235 3119981 3106799 3098389 3095152 
1961.852 3095586 3097455 3097955 3096387 3095253 3099190 3113473 3141440 
1965.709 3182193 3229825 3275493 3310449 3328345 3327944 3310950 3281603 
1969.566 3243846 3200117 3151052 3097422 3040361 2983441 2931865 2890670 
1973.424 2863986 2854280 2863085 2891537 2942240 3017805 3119814 3244981 
1977.281 3383974 3521409 3638706 3720709 3758039 3751255 3708678 3646324 
1981.139 3582275 3531330 3504908 3506177 3531831 3572721 3618592 3657785 
1984.996 3682345 3688694 3678135 3656950 3632792 3613680 3605461 3610273 
1988.854 3627012 3652439 3683181 3716498 3751990 3789190 3828399 3867176 
1992.711 3903383 3932504 3952231 3961560 3963165 3961426 3961728 3968014 
1996.568 3982392 4003961 4029578 4056132 4080147 4099947 4115267 4125971 
2000.426 4131691 4131658 4123797 4106169 4077838 4038474 3990752 3939793 
2004.283 3892116 3855208 3835017 3835050 3855409 3891748 3936449 3981322 
2008.141 4018676 4044494 4058741 4064895 4068908 4076735 4091719 4114297 
2011.998 4142094 4170998 4196624 4215326 4226769 4230716 4229345 4225798 
2015.855 4223256 4225163 4234933 4254406 4285257 4327322 4379197 4438744 
2019.713 4504124 4573500 4645498 4718915 4792143 4862804 4927478 4983547 
2023.570 5030137 5068117 5100267 5130038 5159376 5187978 5213262 5232411 
2027.428 5243142 5247704 5250353 5257530 5275540 5307604 5353089 5409146 
2031.285 5471083 5536719 5605253 5678698 5759240 5847588 5941262 6035762 
2035.143 6125142 6206372 6277901 6341441 6399845 6455298 6508101 6557849 
2039.000 6603465 6645384 6686063 6729303 6779076 6837876 6905066 6977789 
2042.857 7051669 7121452 7183801 7235850 7276315 7305057 7322849 7332857 
2046.715 7339630 7349841 7369994 7403696 7449098 7499729 7545443 7575586 
2050.572 7583847 7570461 7541870 7509033 7482503 7470334 7474547 7491537 
2054.430 7513551 7533104 7544635 7546691 7542039 7535329 7531183 7533003 
2058.287 7541499 7555929 7573495 7591602 7606674 7616115 7617566 7610147 
2062.145 7594838 7574338 7552557 7533677 7520462 7512775 7508022 7501482 
2066.002 7488604 7467098 7437502 7403899 7371679 7346471 7331643 7327768 
2069.859 7332351 7341551 7350886 7357659 7360793 7361602 7362748 7366590 
2073.717 7375790 7390417 7409595 7430862 7451322 7468648 7481626 7490560 
2077.574 7497200 7503774 7511494 7520698 7530306 7537757 7541330 7540083 
2081.432 7535903 7531857 7532059 7539712 7555761 7578553 7604853 7629974 
2085.289 7650343 7663495 7668857 7666901 7658672 7644711 7625186 7600267 
2089.146 7570292 7536240 7499156 7460592 7421559 7383205 7346943 7314458 
2093.004 7289085 7274361 7273653 7288074 7316648 7355671 7399214 7441345 
2096.861 7477008 7503032 7518270 7522822 7517293 7502021 7477750 7446030 
2100.719 7409965 7373566 7341585 7318198 7305697 7303641 7309100 7318063 
2104.576 7326387 7330599 7329184 7321635 7308629 7291241 7270789 7248417 
2108.434 7225844 7204250 7184879 7168508 7155068 7144322 7135699 7128929 
2112.291 7123574 7118926 7113503 7104510 7088647 7062647 7025334 6977957 
2116.148 6924592 6871504 6824681 6787961 6762417 6745591 6733678 6722775 
2120.006 6710425 6696629 6682866 6671258 6662274 6655444 6648749 6639597 
2123.863 6626914 6610866 6593204 6576350 6561751 6550112 6539819 6529325 
2127.721 6516409 6499490 6477259 6449480 6415549 6376241 6332700 6288659 
2131.578 6247816 6215682 6195952 6189970 6195145 6206808 6218539 6225597 
2135.436 6226102 6221698 6216489 6214405 6216858 6222035 6225161 6220589 
2139.293 6204120 6174812 6134652 6088682 6041676 5997966 5959569 5927289 
2143.150 5899914 5876135 5853868 5831099 5805040 5773007 5732682 5682861 
2147.008 5624485 5560010 5493128 5427565 5366541 5311730 5264036 5224060 
2150.865 5190996 5164037 5139058 5110760 5071201 5011601 4926137 4813518 
2154.723 4679324 4535931 4401556 4297204 4241056 4248584 4326017 4470914 
2158.580 4669377 4901205 5141975 5368151 5561487 5712001 5818876 5889166 
2162.438 5935216 5972066 6011169 6060525 6121075 6189197 6258673 6321975 
2166.295 6373786 6411379 6434213 6442721 6439963 6429404 6415011 6401897 
2170.152 6393961 6392650 6396214 6399845 6397559 6384345 6359967 6329002 
2174.010 6301131 6286743 6293466 6322647 6370390 6426714 6480959 6524952 
2177.867 6555023 6572549 6582170 6588932 6597275 6610193 6629168 6655881 
2181.725 6691178 6735495 6786952 6840939 6890557 6928531 6949372 6951897 
2185.582 6939877 6920081 6901262 6889850 6889648 6900555 6919946 6943951 
2189.439 6968967 6992200 7011696 7026580 7037154 7044832 7052679 7064601 
2193.297 7083966 7113267 7151430 7194985 7238950 7279078 7313380 7342629 
2197.154 7370803 7401944 7438312 7479840 7524372 7569281 7613350 7657256 
2201.012 7703392 7753885 7808431 7863321 7913022 7951829 7977038 7990234 
2204.869 7997557 8005962 8021825 8047646 8081636 8119445 8157089 8191494 
2208.727 8222828 8252343 8281047 8308471 8332958 8352617 8367174 8379200 
2212.584 8394030 8417541 8452879 8500621 8556545 8615924 8672877 8724801 
2216.441 8771760 8815411 8857139 8896639 8931407 8958804 8976969 8986779 
2220.299 8991954 8996926 9005417 9018780 9035458 9052983 9069392 9084717 
2224.156 9100857 9120415 9144033 9170124 9194592 9212732 9222175 9223596 
2228.014 9221329 9221532 9229045 9246138 9271490 9301989 9333980 9366379 
2231.871 9399933 9437111 9479915 9528311 9580371 9633080 9683900 9732589 
2235.729 9780777 9831477 9887132 9947914 10011484 10074487 10133871 10188309 
2239.586 10238786 10287471 10336365 10386179 10435389 10482296 10524932 
2242.961 10563667 10599859 10635443 10671811 10708589 10744250 10776890 
2246.336 10805831 10832803 10861475 10896163 10939348 10991137 11048810 
2249.712 11108292 11165812 11219768 11270875 11322225 11377052 11437532 
2253.087 11503873 11574851 11647441 11718682 11785202 11844241 11892799 
2256.462 11928625 11951001 11961287 11963024 11961968 11964080 11973276 
2259.837 11990647 12014287 12040584 12066168 12089880 12113116 12139658 
2263.213 12172608 12213604 12261044 12311353 12360270 12404624 12443800 
2266.588 12478956 12512273 12545251 12578267 12610636 12641506 12671220 
2269.963 12701856 12736213 12776580 12823434 12875549 12929718 12983143 
2273.338 13033980 13082945 13131436 13181027 13232159 13283539 13333317 
2276.714 13379684 13423322 13465803 13510749 13560382 13615799 13675361 
2280.089 13736847 13797588 13857414 13917283 13979623 14045806 14115456 
2283.464 14185288 14251262 14309439 14358307 14399543 14437255 14475930 
2286.839 14518411 14565316 14614488 14662809 14707844 14748326 14785211 
2290.215 14820179 14854979 14890707 14927330 14964505 15002678 15042501 
2293.590 15085174 15131386 15180553 15231201 15281307 15328981 15373982 
2296.965 15417032 15460189 15504723 15551048 15598237 15645225 15691116 
2300.340 15736569 15783193 15833225 15887558 15945438 16004600 16061738 
2303.716 16114898 16164107 16211774 16260928 16314799 16374249 16437838 
2307.091 16502470 16565079 16624289 16681097 16737947 16797456 16861074 
2310.466 16928248 16996880 17064352 17128868 17190396 17249796 17308238 
2313.841 17365618 17420834 17472054 17518176 17559782 17599702 17641868 
2317.217 17689940 17746024 17809228 17876998 17946506 18015368 18083342 
2320.592 18151154 18219392 18287468 18352308 18409342 18454490 18484812 
2323.967 18500646 18504900 18502306 18498020 18497016 18502584 18517556 
2327.342 18543696 18582012 18632262 18692482 18759076 18827342 18892882 
2330.718 18952894 19007170 19058162 19109404 19164322 19224200 19288520 
2334.093 19355204 19422524 19489540 19557192 19627384 19701922 19781294 
2337.468 19864876 19950764 20037502 20124708 20213182 20304068 20398134 
2340.843 20494166 20589942 20681742 20766680 20842976 20909938 20968038 
2344.219 21018150 21061170 21099500 21137346 21182050 21242172 21326280 
2347.594 21440130 21584688 21756082 21945632 22142834 22337262 22520122 
2350.969 22686578 22835358 22967526 23085060 23189166 23280434 23358924 
2354.344 23426062 23485132 23540394 23596016 23654338 23714874 23775312 
2357.719 23833624 23889352 23944492 24003632 24069784 24144772 24226676 
2361.095 24311084 24393196 24470202 24541932 24611040 24681284 24755220 
2364.470 24833836 24916186 25000552 25086162 25173722 25264458 25359782 
2367.845 25459692 25563000 25667986 25773452 25879894 25988966 26103202 
2371.220 26223978 26351056 26482398 26615786 26749284 26883392 27019864 
2374.596 27160580 27306738 27457462 27609900 27760554 27907196 28049470 
2377.971 28189140 28328996 28471160 28616238 28762638 28908416 29050912 
2381.346 29189912 29325978 29461308 29597424 29735180 29873724 30012312 
2384.721 30150340 30288556 30429124 30574220 30725050 30880668 31037976 
2388.097 31192886 31342260 31484668 31620956 31753506 31884782 32016058 
2391.472 32146912 32275878 32401562 32523818 32643360 32761752 32879964 
2394.847 32997814 33113516 33225458 33332382 33434466 33534140 33633872 
2398.222 33735240 33838172 33940660 34040488 34136504 34229600 34322748 
2401.598 34419976 34524576 34637740 34758332 34883840 35011896 35141284 
2404.973 35272544 35406752 35544820 35686128 35828888 35970936 36111524 
2408.348 36251644 36394196 36542200 36697572 36859816 37026376 37193616 
2411.723 37358536 37520884 37681772 37843772 38008256 38175256 38342688 
2415.099 38508408 38671040 38831848 38993804 39160932 39335640 39517740 
2418.474 39704348 39891220 40075264 40255172 40432896 40611604 40794532 
2421.849 40982748 41175456 41370208 41564548 41757548 41950048 42143548 
2425.224 42339360 42537344 42736152 42933656 43128948 43322684 43517636 
2428.600 43716636 43921552 44132108 44345884 44559872 44771768 44981300 
2431.975 45190236 45401228 45616032 45834516 46054508 46273324 46488528 
2435.350 46699816 46908176 47115456 47322984 47530424 47736524 47939832 
2438.725 48140688 48340960 48543816 48752508 48968312 49189972 49414572 
2442.101 49638428 49859432 50077756 50295072 50513320 50732976 50952228 
2445.476 51168160 51378116 51581276 51779860 51977304 52177304 52381132 
2448.851 52586740 52790128 52986944 53174720 53354776 53529964 53704280 
2452.226 53879792 54055080 54226192 54388888 54539956 54679732 54810756 
2455.602 54936740 55060284 55181224 55297344 55405968 55505884 55598476 
2458.977 55687248 55776076 55867260 55960080 56051716 56138508 56218112 
2462.352 56291172 56360088 56428228 56496976 56565252 56629420 56685520 
2465.727 56730672 56764656 56789804 56808916 56823376 56832100 56831608 
2469.103 56818772 56791052 56749060 56695032 56632476 56563476 56487920 
2472.478 56404796 56312784 56212380 56106384 55999356 55894844 55794272 
2475.853 55695952 55595540 55488224 55371600 55246016 55114524 54981076 
2479.228 54848384 54716560 54584140 54448716 54308940 54165196 54019132 
2482.604 53872252 53724304 53573216 53415736 53250224 53076608 52898312 
2485.979 52719864 52545380 52376124 52210296 52043820 51872708 51695764 
2489.354 51514896 51333848 51157124 50986508 50820612 50655416 50486408 
2492.729 50310104 50126172 49936480 49743492 49549064 49353092 49154240 
2496.104 48950880 48743092 48532552 48322520 48115216 47911160 47708196 
2499.480 47502628 47291064 47071916 46846424 46617320 46387824 46159152 
2502.855 45930744 45700832 45467776 45232116 44996000 44763100 44536160 
2506.230 44316048 44100972 43887644 43672992 43456288 43238780 43023720 
2509.605 42814032 42611096 42413992 42220628 42029428 41840248 41655272 
2512.981 41478176 41311900 41157456 41013628 40877856 40747220 40620372 
2516.356 40497528 40380676 40271128 40169460 40074756 39985524 39900628 
2519.731 39820508 39747048 39682204 39626624 39579580 39538172 39499232 
2523.106 39461240 39424336 39390452 39362156 39340352 39323848 39309552 
2526.482 39293704 39273576 39248692 39220696 39191612 39162456 39132288 
2529.857 39098788 39059596 39014284 38964992 38915992 38872032 38835580 
2533.232 38806232 38780688 38754752 38725988 38694476 38662492 38633624 
2536.607 38609760 38590204 38571808 38550408 38523288 38490376 38454680 
2539.983 38419744 38388256 38361000 38335736 38309500 38280440 38248776 
2543.358 38217260 38188788 38164476 38143168 38120956 38093644 38058160 
2546.733 38015304 37968148 37921648 37879164 37841564 37806792 37771548 
2550.108 37733272 37691352 37648132 37606940 37570560 37539668 37512576 
2553.484 37486532 37459584 37431560 37404004 37379628 37360308 37345936 
2556.859 37335356 37326508 37318496 37312356 37310152 37313292 37321780 
2560.234 37332936 37342324 37345936 37342216 37332576 37321996 37315604 
2563.609 37317480 37328024 37345104 37364928 37384720 37403860 37424008 
2566.985 37447632 37477032 37512324 37551588 37592704 37634544 37677980 
2570.360 37725392 37779500 37841456 37910008 37981820 38053280 38122620 
2573.735 38190488 38260212 38335592 38419600 38512608 38612548 38715916 
2577.110 38819964 38923672 39027588 39133048 39241296 39351704 39462836 
2580.486 39573556 39683584 39794180 39907708 40025740 40147908 40271456 
2583.861 40392056 40505708 40610512 40707664 40800176 40891764 40984900 
2587.236 41079292 41172864 41263292 41348856 41430276 41510040 41590288 
2590.611 41672960 41758056 41844480 41931216 42018296 42107036 42199448 
2593.987 42296404 42396344 42495756 42590408 42677364 42756808 42832384 
2597.362 42909664 42994016 43087892 43190356 43297568 43405648 43511924 
2600.737 43616536 43722388 43832696 43949124 44071300 44196556 44321812 
2604.112 44445600 44568280 44692436 44820664 44954476 45093144 45234288 
2607.488 45375144 45514096 45651440 45789044 45928828 46071420 46215940 
2610.863 46360212 46502984 46644440 46786784 46932980 47085396 47244068 
2614.238 47406124 47567432 47724248 47874940 48021172 48165932 48313116 
2617.613 48464084 48617852 48771080 48920616 49064532 49203592 49340360 
2620.989 49477800 49617776 49760064 49902432 50042840 50180356 50316056 
2624.364 50452280 50591268 50733796 50878128 51021276 51160328 51293576 
2627.739 51422016 51548252 51675052 51803976 51934620 52064924 52192848 
2631.114 52317216 52438780 52559556 52681636 52805956 52931552 53056432 
2634.490 53179064 53298656 53416932 53535732 53657076 53780816 53904628 
2637.865 54024872 54138020 54242484 54339240 54431100 54521436 54612920 
2641.240 54706340 54800868 54895044 54988632 55081384 55174792 55269384 
2644.615 55365164 55459988 55551896 55638736 55719984 55797212 55872688 
2647.990 55948660 56026156 56104648 56182172 56257412 56330060 56401060 
2651.366 56472752 56547056 56624964 56705600 56787312 56868548 56948852 
2654.741 57029212 57111396 57197116 57287200 57381008 57477328 57575036 
2658.116 57674056 57775360 57880180 57989484 58102760 58218380 58334440 
2661.491 58449664 58564388 58680128 58799388 58923768 59053572 59187328 
2664.867 59323096 59459212 59595600 59733476 59874856 60021152 60172672 
2668.242 60327408 60483372 60639136 60794680 60951544 61112048 61277988 
2671.617 61449304 61624384 61800684 61976100 62150404 62325156 62502780 
2674.992 62685484 62873816 63066712 63261620 63456260 63649768 63842780 
2678.368 64037108 64234480 64435520 64639992 64846412 65054080 65263048 
2681.743 65474504 65689644 65909056 66131556 66354588 66575380 66791996 
2685.118 67004464 67214560 67424720 67637000 67851392 68066168 68278408 
2688.493 68486064 68688376 68886872 69084008 69282016 69481832 69682664 
2691.869 69882664 70080448 70275408 70468904 70662128 70856680 71052296 
2695.244 71247384 71439896 71628160 71811976 71992536 72171216 72349120 
2698.619 72525432 72697880 72863960 73021952 73172312 73317152 73460200 
2701.994 73604352 73750912 73899760 74049600 74199256 74348928 74500024 
2705.370 74654400 74813712 74978120 75146568 75317648 75490536 75665496 
2708.745 75843840 76027072 76215248 76406336 76597128 76783328 76961224 
2712.120 77129416 77288096 77438040 77580512 77715024 77840224 77954672 
2715.495 78057416 78149272 78232304 78308448 78379128 78443816 78501144 
2718.871 78549256 78587616 78617584 78641456 78662152 78680968 78697448 
2722.246 78709488 78714488 78710800 78699200 78681920 78661272 78639040 
2725.621 78615208 78587808 78554616 78514800 78468712 78418696 78367496 
2728.996 78316576 78266032 78214176 78159192 78100048 78037832 77974584 
2732.372 77912768 77853976 77797376 77741136 77682616 77620408 77554688 
2735.747 77487072 77419512 77352352 77284768 77214232 77137848 77054552 
2739.122 76964896 76870808 76774984 76678512 76581192 76481168 76376472 
2742.497 76266144 76150760 76032240 75912184 75791128 75667344 75538160 
2745.873 75401320 75255824 75103832 74948672 74794584 74643848 74496952 
2749.248 74352544 74208728 74064888 73921912 73782096 73648088 73520520 
2752.623 73398048 73276872 73153288 73024136 72888216 72745944 72598352 
2755.998 72445840 72287624 72121768 71946584 71761704 71568424 71369368 
2759.374 71166848 70961464 70752040 70536248 70311560 70077224 69834680 
2762.749 69586672 69336472 69086224 68836200 68586048 68334872 68084080 
2766.124 67836520 67596312 67367608 67152912 66952392 66764480 66587776 
2769.499 66421764 66267544 66127232 66002512 65893784 65798588 65713428 
2772.875 65634260 65558576 65485172 65414564 65347352 65282344 65217384 
2776.250 65149160 65074944 64993740 64906852 64816908 64726672 64637108 
2779.625 64546988 64454392 64356968 64254112 64147556 64040260 63934824 
2783.000 63832684 63732484 63631504 63526712 63416652 63301520 63183276 
2786.375 63063844 62944136 62822736 62696620 62562168 62417152 62260332 
2789.751 62092064 61913124 61723372 61521908 61307640 61080392 60841944 
2793.126 60595972 60347508 60100712 59858500 59622132 59391320 59165984 
2796.501 58947600 58738616 58541828 58359756 58191820 58035840 57888128 
2799.876 57745460 57606476 57471844 57343608 57223768 57111968 57005864 
2803.252 56901256 56794148 56681780 56563400 56440184 56313388 56183420 
2806.627 56049608 55910332 55764284 55611396 55453172 55291584 55128704 
2810.002 54964756 54799404 54631332 54460512 54288180 54117528 53952608 
2813.377 53796004 53649092 53511148 53380812 53258160 53145060 53045312 
2816.753 52963404 52902880 52864184 52845136 52841580 52849588 52866912 
2820.128 52893412 52930352 52978972 53038756 53106788 53178648 53249476 
2823.503 53315928 53376132 53430052 53477944 53519316 53553240 53577980 
2826.878 53592744 53598144 53595744 53588096 53576624 53561636 53541392 
2830.254 53514596 53480416 53440056 53396176 53351928 53309220 53267792 
2833.629 53225616 53180108 53129820 53075676 53021348 52971152 52928744 
2837.004 52895584 52870584 52851500 52836416 52825940 52823132 52832372 
2840.379 52858604 52904936 52972684 53061708 53172320 53305624 53464976 
2843.755 53654340 53876832 54133968 54424564 54744788 55089316 55451744 
2847.130 55824412 56196880 56555700 56883996 57161740 57370268 57494428 
2850.505 57525292 57462504 57312568 57087932 56803100 56473920 56116076 
2853.880 55743792 55370660 55008792 54667332 54352088 54065096 53805192 
2857.256 53569244 53354104 53157756 52978972 52816996 52670864 52538128 
2860.631 52415752 52301256 52193780 52094212 52005388 51930176 51869832 
2864.006 51823240 51787324 51758244 51733200 51711516 51694272 51683748 
2867.381 51682104 51689756 51705768 51728944 51758280 51794416 51838508 
2870.757 51891076 51951088 52015176 52078224 52134824 52182012 52219188 
2874.132 52248860 52274948 52301520 52331044 52364684 52402664 52445212 
2877.507 52494040 52551064 52617860 52694988 52781036 52873276 52969316 
2880.882 53067960 53170112 53277980 53393892 53518380 53649764 53784756 
2884.258 53919372 54051440 54180432 54307364 54433616 54559040 54681272 
2887.633 54796392 54900116 54989652 55064680 55126824 55177912 55219412 
2891.008 55250756 55270060 55275476 55266900 55246240 55217228 55183968 
2894.383 55148156 55109744 55066260 55015072 54954828 54886168 54811204 
2897.759 54731856 54647980 54556416 54451120 54326512 54177880 54004048 
2901.134 53807668 53592896 53364480 53125808 52879264 52626572 52370892 
2904.509 52117152 51871660 51640900 51430072 51241712 51076204 50932892 
2907.884 50811748 50714508 50645212 50607684 50606232 50642904 50718008 
2911.260 50830744 50979652 51163348 51379196 51622320 51884768 52154884 
2914.635 52418668 52662480 52873688 53043516 53166404 53239360 53260336 
2918.010 53228124 53142136 53003716 52816468 52586780 52322036 52028996 
2921.385 51712184 51373752 51014008 50633820 50236520 49828660 49419176 
2924.760 49017312 48630672 48263676 47918040 47593456 47289696 47007224 
2928.136 46747116 46509548 46293596 46096180 45913212 45741220 45578528 
2931.511 45425320 45283784 45155420 45039884 44934412 44834620 44736104 
2934.886 44636432 44535608 44435580 44339208 44248136 44162440 44080948 
2938.261 44003060 43928852 43861472 43804476 43761452 43733932 43720484 
2941.637 43717844 43721364 43727480 43733896 43740012 43745804 43750276 
2945.012 43751740 43747928 43736972 43718248 43693624 43665740 43638004 
2948.387 43612836 43591224 43573456 43559648 43550672 43547704 43551516 
2951.762 43561516 43574960 43587524 43594816 43594300 43586056 43573936 
2955.138 43562944 43557780 43561224 43573200 43591516 43613824 43638996 
2958.513 43667460 43700656 43739648 43784100 43831560 43878556 43922248 
2961.888 43961512 43997336 44032684 44070420 44112632 44160244 44214236 
2965.263 44275688 44347868 44434884 44540968 44668452 44817096 44983212 
2968.639 45160936 45344800 45529808 45712836 45891520 46062872 46222536 
2972.014 46365484 46486644 46583056 46655468 46707524 46744828 46772652 
2975.389 46794128 46809776 46818632 46819444 46812652 46801104 46788816 
2978.764 46779664 46776044 46778556 46786232 46798632 46816308 46841332 
2982.140 46876800 46924896 46985552 47056556 47133924 47213224 47291132 
2985.515 47365180 47433772 47494828 47545064 47580668 47597116 47591572 
2988.890 47562808 47511132 47437688 47341976 47222348 47075944 46900312 
2992.265 46695572 46465220 46216308 45957776 45697008 45439592 45187004 
2995.641 44938820 44693500 44450224 44210276 43975852 43749836 43534228 
2999.016 43330444 43139344 42962260 42801412 42659160 42537304 42435980 
3002.391 42352548 42282784 42221760 42165744 42113280 42064836 42021504 
3005.766 41984132 41951944 41923004 41895232 41867980 41842220 41820840 
3009.142 41806756 41800844 41801940 41806500 41810220 41809676 41803692 
3012.517 41793188 41779796 41764916 41748060 41727380 41701044 41668036 
3015.892 41629088 41586788 41543656 41500816 41457104 41409972 41355924 
3019.267 41294120 41225148 41152684 41080820 41012720 40949140 40888560 
3022.643 40827948 40764292 40696200 40623100 40544884 40460900 40368640 
3026.018 40265132 40147908 40016256 39872224 39720144 39564848 39409828 
3029.393 39256744 39104988 38953500 38801812 38651152 38503880 38362084 
3032.768 38226128 38094260 37962580 37827540 37686832 37541260 37394036 
3036.144 37248776 37108652 36974348 36844268 36715704 36586604 36456280 
3039.519 36325276 36194704 36064356 35932244 35795064 35649368 35492896 
3042.894 35325984 35151200 34971884 34791032 34610076 34428904 34247024 
3046.269 34064572 33882876 33704408 33531706 33366122 33207428 33053838 
3049.645 32903590 32755784 32610924 32470434 32335520 32206394 32081514 
3053.020 31958420 31835362 31711552 31588384 31468242 31352804 31242588 
3056.395 31136034 31030540 30923646 30814680 30704888 30596686 30492316 
3059.770 30392770 30297118 30203582 30110920 30019484 29931120 29848774 
3063.146 29774352 29707788 29646376 29586144 29523900 29457798 29388764 
3066.521 29319066 29250904 29184916 29120106 29053960 28984814 28912562 
3069.896 28839082 28766816 28697398 28630394 28562800 28491010 28411868 
3073.271 28325246 28233690 28141552 28052688 27969068 27889848 27812372 
3076.646 27734380 27655062 27575758 27499396 27427884 27361184 27296610 
3080.022 27230284 27158956 27081752 27000894 26920300 26844126 26773884 
3083.397 26708412 26644040 26577530 26506698 26432462 26357430 26284838 
3086.772 26216306 26151656 26088916 26025834 25961916 25898568 25838572 
3090.147 25784632 25738012 25697302 25659726 25622010 25582050 25539772 
3093.523 25496726 25454388 25413844 25374782 25336318 25298314 25262106 
3096.898 25229834 25204130 25186186 25174528 25165470 25154516 25138260 
3100.273 25115932 25089496 25062504 25038002 25017118 24998446 24979178 
3103.648 24957208 24932152 24906080 24882430 24864044 24851518 24843344 
3107.024 24836150 24826504 24813102 24796226 24777880 24759780 24742488 
3110.399 24724528 24704326 24680792 24654946 24629346 24607358 24591298 
3113.774 24580920 24573556 24565142 24553114 24536566 24517004 24497476 
3117.149 24480088 24465016 24450362 24432836 24410054 24382224 24351630 
3120.525 24321492 24294510 24271314 24249556 24226186 24198438 24166246 
3123.900 24131604 24098398 24069610 24046320 24027374 24010146 23992498 
3127.275 23974008 23956398 23942218 23933254 23928842 23925972 23921070 
3130.650 23910672 23894358 23873914 23852876 23834464 23820076 23808946 
3134.026 23798586 23787316 23774506 23761908 23751444 23744934 23741994 
3137.401 23740524 23737514 23731182 23721768 23711968 23705042 23703816 
3140.776 23708400 23716974 23726002 23732686 23735694 23736150 23736150 
3144.151 23737340 23739580 23741680 23741330 23737164 23729746 23721068 
3147.527 23713474 23709028 23707244 23706230 23703850 23699056 23692828 
3150.902 23688208 23688208 23694262 23705706 23718968 23730342 23737446 
3154.277 23740210 23741154 23743464 23749344 23758758 23769502 23778460 
3157.652 23783536 23785078 23785216 23787630 23794352 23805902 23819972 
3161.028 23834742 23848464 23861696 23876820 23896074 23920546 23948730 
3164.403 23976600 24000060 24016518 24026358 24032908 24040926 24054550 
3167.778 24075282 24102600 24134230 24168034 24203064 24239710 24278356 
3171.153 24318898 24359340 24396594 24428280 24453656 24474480 24494776 
3174.529 24518510 24547576 24581410 24617072 24650596 24679460 24703764 
3177.904 24725406 24747502 24771954 24798752 24826116 24851728 24874676 
3181.279 24895764 24917380 24941872 24969596 24998762 25025682 25046532 
3184.654 25059976 25067312 25072122 25078616 25089568 25104768 25121902 
3188.030 25138226 25151918 25163856 25176776 25193138 25214206 25238226 
3191.405 25261614 25280510 25292976 25299824 25304322 25311100 25322374 
3194.780 25338250 25356340 25373588 25387884 25399652 25411244 25425438 
3198.155 25443952 25465736 25487766 25507196 25522202 25533938 25545358 
3201.531 25560154 25580536 25606438 25635294 25663906 25690622 25715794 
3204.906 25741422 25769866 25802356 25837482 25872686 25905146 25933706 
3208.281 25960016 25987276 26018832 26056018 26097290 26138670 26176502 
3211.656 26208422 26234854 26259634 26286808 26319372 26357852 26400138 
3215.031 26443026 26484158 26522722 26559882 26597468 26636360 26676066 
3218.407 26715070 26752140 26787310 26822590 26861080 26905316 26955942 
3221.782 27010944 27066870 27120016 27168798 27214160 27258964 27306172 
3225.157 27357268 27411050 27464944 27515600 27561352 27602732 27642068 
3228.532 27682042 27724034 27767688 27810994 27852326 27891084 27928820 
3231.908 27967620 28009356 28053960 28099452 28142544 28180794 28213608 
3235.283 28243380 28273048 28305512 28341514 28378584 28413284 28442362 
3238.658 28464970 28483190 28501552 28524160 28553460 28589094 28627952 
3242.033 28666568 28702352 28734814 28765046 28795034 28825520 28856008 
3245.409 28885008 28911604 28935970 28960550 28988002 29020980 29060124 
3248.784 29104020 29149622 29194626 29237614 29278836 29319670 29360614 
3252.159 29400996 29439040 29472620 29501060 29526486 29552484 29583378 
3255.534 29622006 29668016 29718324 29768924 29816156 29858994 29898784 
3258.910 29937760 29978122 30019450 30059252 30094620 30123882 30147464 
3262.285 30168632 30191434 30218680 30250118 30283048 30313106 30337266 
3265.660 30355282 30370026 30385556 30405812 30432076 30462960 30494876 
3269.035 30524840 30551894 30577098 30602696 30630570 30660508 30690378 
3272.411 30717122 30738602 30755068 30769116 30784410 30803226 30825956 
3275.786 30850038 30872450 30890594 30904646 30916778 30930262 30947270 
3279.161 30967622 30988866 31007656 31021998 31032034 31040254 31050076 
3282.536 31063566 31080580 31098304 31113502 31124218 31131408 31138350 
3285.912 31148708 31164726 31185872 31208588 31228240 31242304 31250778 
3289.287 31257082 31265878 31280118 31300202 31323492 31345930 31364270 
3292.662 31378410 31390912 31405692 31425320 31449792 31475938 31499914 
3296.037 31518192 31530984 31540782 31552110 31568072 31589668 31614326 
3299.413 31638380 31658732 31674876 31688814 31704210 31723920 31748660 
3302.788 31776574 31804770 31831152 31855934 31881570 31910810 31945474 
3306.163 31984278 32023906 32060254 32090720 32116122 32140452 32168784 
3309.538 32205004 32249790 32300360 32352228 32401346 32446262 32488286 
3312.914 32530710 32576244 32625496 32677044 32728274 32777510 32825354 
3316.289 32874602 32929074 32991380 33061668 33137474 33215050 33291560 
3319.664 33366550 33442124 33520718 33604768 33693700 33784808 33874208 
3323.039 33958828 34037944 34113204 34187580 34262976 34340068 34417248 
3326.415 34492792 34565940 34637848 34711204 34788988 34872204 34959244 
3329.790 35046340 35129500 35206748 35278796 35348340 35418904 35492104 
3333.165 35566540 35638396 35703432 35759552 35807620 35851772 35896544 
3336.540 35944804 35995956 36046460 36090924 36126032 36151096 36169172 
3339.916 36184872 36202088 36221860 36243180 36262812 36278192 36288352 
3343.291 36295088 36300204 36305676 36311044 36313820 36312124 36304488 
3346.666 36292424 36279492 36269588 36264828 36264688 36265444 36262416 
3350.041 36252292 36233744 36208028 36177996 36145872 36112204 36076272 
3353.417 36036672 35992932 35946856 35901112 35858288 35819496 35783300 
3356.792 35746708 35706708 35661992 35613868 35565424 35520116 35478980 
3360.167 35441124 35403196 35362252 35316820 35267548 35216844 35167080 
3363.542 35118328 35067892 35012112 34947648 34874360 34795804 34717556 
3366.917 34645024 34580832 34523248 34466928 34405808 34335732 34255876 
3370.293 34169156 34079948 33992296 33907240 33824132 33740756 33655644 
3373.668 33569292 33483532 33400294 33319786 33240336 33158324 33070500 
3377.043 32975614 32874924 32771900 32670114 32571386 32474648 32377034 
3380.418 32276056 32170460 32061930 31953498 31848304 31747412 31648752 
3383.794 31548652 31443450 31331576 31214640 31096204 30980078 30868144 
3387.169 30759870 30652864 30544498 30434314 30323978 30216654 30115110 
3390.544 30019270 29926008 29831170 29730602 29623390 29511982 29400960 
3393.919 29294608 29194236 29097430 28998840 28893472 28778500 28655772 
3397.295 28530248 28408262 28294300 28189742 28092346 27998400 27904440 
3400.670 27809122 27712872 27617244 27522306 27427180 27329602 27227426 
3404.045 27120228 27009956 26899958 26793020 26690194 26590070 26489688 
3407.420 26385842 26277200 26164712 26050670 25937574 25825950 25715266 
3410.796 25603346 25489136 25373692 25259330 25149496 25046392 24949276 
3414.171 24854606 24757640 24655050 24546244 24433924 24322262 24215046 
3417.546 24113178 24014452 23914838 23810696 23700946 23587830 23475374 
3420.921 23367666 23266626 23171272 23078526 22985206 22889494 22791638 
3424.297 22693002 22594284 22494576 22391124 22281418 22164276 22041940 
3427.672 21919008 21801164 21691712 21590574 21493742 21395436 21290992 
3431.047 21179058 21062074 20944708 20831540 20724452 20622184 20521192 
3434.422 20418590 20313340 20207418 20104302 20006690 19915206 19827350 
3437.798 19738884 19645862 19547244 19444318 19340378 19238192 19138732 
3441.173 19040368 18940920 18838482 18733856 18629844 18529968 18435926 
3444.548 18346638 18257404 18162522 18057852 17942880 17821242 17699052 
3447.923 17581966 17473158 17372032 17275516 17180194 17084202 16987852 
3451.299 16892696 16800316 16709952 16619815 16527079 16430028 16329592 
3454.674 16228594 16130475 16036984 15947122 15857555 15763883 15663601 
3458.049 15557195 15448172 15341269 15240123 15144870 15052894 14960253 
3461.424 14863756 14763374 14661644 14563055 14470415 14384165 14301700 
3464.800 14218907 14132912 14042726 13950471 13859090 13771012 13686303 
3468.175 13602465 13516354 13426124 13331950 13236942 13144516 13056754 
3471.550 12972867 12890601 12806371 12718949 12629568 12542250 12461225 
3474.925 12388431 12322431 12258590 12191691 12118192 12037757 11953555 
3478.301 11869779 11789594 11712452 11635598 11554911 11468184 11376406 
3481.676 11284137 11196784 11118253 11049150 10986038 10923549 10857739 
3485.051 10786673 10711815 10635681 10560611 10486710 10411903 10333514 
3488.426 10250151 10163480 10077505 9997007 9924794 9860727 9801009 9741501 
3492.284 9678377 9610722 9540741 9471719 9406467 9345490 9287264 9229147 
3496.141 9169685 9109586 9051155 8996926 8947778 8901848 8854840 8802055 
3499.999 8740623 8670309 8593584 8514103 8434636 8356230 8278582 8201488 
3503.856 8126332 8056792 7997355 7950851 7916801 7890314 7863996 7830662 
3507.713 7785897 7730071 7668081 7606607 7550569 7502055 7459142 7418290 
3511.571 7375959 7331138 7284907 7239860 7197748 7158739 7121654 7084370 
3515.428 7046180 7007858 6971190 6937722 6907154 6877125 6844070 6805463 
3519.286 6760499 6711838 6663418 6618335 6577561 6538709 6498145 6452204 
3523.143 6400283 6344501 6289096 6237698 6190844 6145910 6098090 6043288 
3527.000 5979657 5910125 5839562 5773040 5712874 5657717 5603675 5546989 
3530.858 5485846 5422264 5359630 5301835 5250051 5202330 5154347 5101843 
3534.715 5043043 4979424 4914475 4852048 4793584 4737271 4679793 4617936 
3538.573 4551433 4483200 4418593 4362462 4317014 4280941 4250290 4220679 
3542.430 4189397 4156679 4123964 4092288 4059811 4022053 3973130 3909635 
3546.288 3832176 3747077 3663031 3589224 3529794 3483932 3446525 3411057 
3550.145 3372654 3329814 3283506 3236368 3189903 3143543 3095319 3044131 
3554.002 2990847 2939137 2893938 2858783 2834369 2817628 2802887 2784946 
3557.860 2761003 2731327 2698819 2666413 2634943 2602908 2567610 2527749 
3561.717 2485291 2445238 2414184 2396958 2393959 2399390 2403488 2395725 
3565.575 2367340 2315838 2244025 2159636 2071769 1987480 1912060 1848101 
3569.432 1797259 1760429 1737641 1726396 1722039 1717880 1708167 1689140 
3573.290 1661998 1630867 1602199 1580383 1566051 1555410 1543073 1523754 
3577.147 1495425 1460051 1422185 1385919 1353179 1323167 1293356 1262317 
3581.004 1231414 1204932 1188120 1184731 1194931 1214236 1235435 1250654 
3584.862 1254575 1244540 1220283 1183004 1133934 1074240 1006850 937611 
3588.719 875255 829307 806800 809323 832528 866756 901949 929044 943654 
3593.059 946244 940500 930173 916625 898895 874226 841823 804311 766735 
3597.398 735601 714825 704171 699293 694182 684259 668795 651373 637237 
3601.738 630998 633388 641849 651240 658043 661295 663386 667866 676095 
3606.078 686250 692655 688507 669691 637535 599443 566530 548084 547653 
3610.417 562449 585276 608203 625457 636341 643210 649747 658375 669027 
3614.757 679945 689171 695576 699226 700355 697932 689436 671748 643442 
3619.096 607971 573431 551169 550274 574194 619683 678983 743401 806701 
3623.436 867752 929741 997352 1073277 1155495 1236531 1305984 1352980 
3627.293 1370729 1359893 1329880 1296945 1277803 1284782 1322336 1387515 
3631.151 1474579 1577124 1688541 1801917 1910530 2009183 2095373 2171624 
3635.008 2244291 2321800 2410352 2512351 2624509 2741530 2857416 2969362 
3638.866 3078434 3189302 3305808 3429759 3559024 3689196 3816866 3941732 
3642.723 4067838 4201007 4346297 4503488 4666999 4826182 4969605 5088298 
3646.581 5179126 5243981 5288520 5317231 5330849 5327529 5307470 5276647 
3650.438 5248575 5239487 5260850 5314950 5392707 5477928 5551385 5596325 
3654.295 5602802 5567629 5496853 5402000 5298481 5200084 5116393 5052328 
3658.153 5007914 4979257 4959550 4939978 4911057 4864044 4795560 4707426 
3662.010 4607521 4505664 4410894 4327121 4253235 4184279 4116103 4048240 
3665.868 3984165 3929094 3886867 3856512 3833011 3811752 3796777 3806705 
3669.725 3878375 4058139 4384117 4877983 5541049 6364372 7338417 8456157 
3673.583 9706668 11044391 12366815 13508356 14255987 14437153 13988281 
3676.958 12966893 11513196 9793621 7974642 6193364 4564023 3172814 2060549 
3680.815 1227526 636241 231933 -44894 -242539 -391103 -507945 -601165 
3684.673 -676434 -740113 -800112 -864037 -937509 -1023000 -1118191 -1217161 
3688.530 -1311946 -1395481 -1462357 -1510766 -1541704 -1557915 -1563230 
3691.905 -1561282 -1555240 -1547019 -1537180 -1525921 -1513903 -1502082 
3695.281 -1492176 -1486893 -1487223 -1493068 -1503040 -1514266 -1524898 
3698.656 -1535364 -1547449 -1564683 -1590301 -1625492 -1668568 -1715633 
3702.031 -1760879 -1800114 -1830734 -1851652 -1863497 -1866862 -1861748 
3705.406 -1848716 -1828754 -1804470 -1779589 -1758602 -1745039 -1740748 
3708.781 -1745963 -1759790 -1780315 -1806911 -1839016 -1875308 -1912850 
3712.157 -1946101 -1969290 -1977569 -1969487 -1947289 -1916248 -1881972 
3715.532 -1849706 -1822419 -1801335 -1786090 -1776652 -1772759 -1775465 
3718.907 -1784935 -1800312 -1819285 -1837993 -1853038 -1862111 -1864849 
3722.282 -1863002 -1858911 -1854193 -1849442 -1844328 -1838818 -1833770 
3725.658 -1831295 -1832780 -1839016 -1847066 -1852378 -1849805 -1836772 
3729.033 -1814335 -1787773 -1764674 -1751936 -1752926 -1766159 -1785298 
3732.408 -1802325 -1812521 -1816711 -1822056 -1838092 -1871415 -1922021 
3735.783 -1982483 -2040398 -2083103 -2104405 -2103943 -2086664 -2058239 
3739.159 -2022094 -1979647 -1930729 -1876660 -1822320 -1776058 -1750451 
3742.534 -1758173 -1807208 -1896026 -2008044 -2116341 -2191777 -2218248 
3745.909 -2197842 -2145752 -2080333 -2018037 -1971433 -1946596 -1945375 
3749.284 -1963880 -1994654 -2028690 -2058107 -2077695 -2085642 -2082048 
3752.660 -2067901 -2045047 -2014739 -1978756 -1939273 -1899490 -1862375 
3756.035 -1832384 -1812521 -1804833 -1808957 -1822122 -1840171 -1858251 
3759.410 -1872536 -1880058 -1879596 -1871085 -1854787 -1832120 -1805525 
3762.785 -1778500 -1756127 -1743190 -1743586 -1757975 -1782823 -1811300 
3766.161 -1835122 -1848716 -1850662 -1844394 -1835881 -1832021 -1836607 
3769.536 -1849970 -1867159 -1883094 -1892793 -1895267 -1892397 -1888141 
3772.911 -1885634 -1885733 -1886722 -1885172 -1877782 -1863101 -1842183 
3776.286 -1818262 -1795659 -1778764 -1770185 -1770647 -1779589 -1794834 
3779.662 -1813082 -1830833 -1844427 -1851025 -1849376 -1840302 -1826445 
3783.037 -1812488 -1802424 -1799322 -1803909 -1813313 -1823442 -1830833 
3786.412 -1833308 -1831394 -1827699 -1824795 -1824432 -1826544 -1829843 
3789.787 -1832846 -1835122 -1837465 -1841259 -1847495 -1855479 -1862804 
3793.163 -1866961 -1866334 -1861352 -1855248 -1852543 -1855743 -1864486 
3796.538 -1874087 -1877947 -1870887 -1852114 -1826412 -1803447 -1795263 
3799.913 -1810706 -1853368 -1917007 -1987463 -2046565 -2079970 -2082707 
3803.288 -2059195 -2019489 -1975062 -1936667 -1912124 -1905593 -1917073 
3806.664 -1941879 -1971137 -1994291 -2002767 -1993103 -1966255 -1927497 
3810.039 -1883357 -1840171 -1801599 -1768964 -1741012 -1716459 -1695105 
3813.414 -1680417 -1677645 -1692497 -1727085 -1776587 -1827699 -1863860 
3816.789 -1871876 -1847957 -1798761 -1738339 -1683553 -1648664 -1642459 
3820.165 -1666192 -1712234 -1766885 -1814269 -1843668 -1850530 -1837432 
3823.540 -1810145 -1775300 -1738603 -1704643 -1676754 -1656652 -1643713 
3826.915 -1635098 -1627340 -1617239 -1603738 -1588717 -1576535 -1571913 
3830.290 -1578351 -1595253 -1618263 -1640148 -1653484 -1653715 -1640643 
3833.666 -1618362 -1592777 -1570658 -1556363 -1552467 -1559400 -1576073 
3837.041 -1600106 -1628430 -1656553 -1678866 -1691210 -1690847 -1678569 
3840.416 -1658666 -1638036 -1622455 -1616348 -1620342 -1630905 -1643119 
3843.791 -1651437 -1652724 -1646552 -1634834 -1619913 -1603671 -1586076 
3847.167 -1566267 -1543057 -1515917 -1485836 -1454894 -1425932 -1402153 
3850.542 -1388314 -1390395 -1416388 -1475269 -1572837 -1704181 -1850267 
3853.917 -1982318 -2072353 -2104899 -2082245 -2018598 -1933269 -1843239 
3857.292 -1761176 -1693554 -1640874 -1600337 -1568545 -1543123 -1524073 
3860.667 -1513143 -1511658 -1518856 -1532162 -1547713 -1562603 -1576040 
3864.043 -1589344 -1603837 -1618527 -1630278 -1633909 -1625756 -1606775 
3867.418 -1583402 -1565442 -1564055 -1586241 -1630344 -1684972 -1732201 
3870.793 -1757612 -1755104 -1730122 -1694346 -1661736 -1642558 -1639884 
3874.168 -1649424 -1662264 -1669063 -1663188 -1643284 -1611660 -1573233 
3877.544 -1532789 -1494619 -1462622 -1440892 -1432603 -1439406 -1459418 
3880.919 -1486827 -1512351 -1529025 -1532228 -1523874 -1510568 -1502610 
3884.294 -1508917 -1534176 -1575247 -1621432 -1660085 -1679955 -1676952 
3887.669 -1654210 -1619517 -1581388 -1547548 -1523544 -1512417 -1514827 
3891.045 -1529388 -1552797 -1580001 -1604695 -1620837 -1624303 -1612750 
3894.420 -1587231 -1551311 -1509775 -1467179 -1427088 -1391419 -1361230 
3897.795 -1337679 -1323046 -1319313 -1328001 -1348018 -1375202 -1403375 
3901.170 -1427022 -1443237 -1453640 -1462523 -1475203 -1494454 -1518393 
3904.546 -1541241 -1555868 -1557650 -1545897 -1524634 -1499672 -1476656 
3907.921 -1458395 -1444822 -1433792 -1423059 -1412457 -1403639 -1398916 
3911.296 -1399775 -1405092 -1411070 -1412920 -1407041 -1393599 -1375730 
3914.671 -1360140 -1352312 -1355549 -1368860 -1388149 -1407503 -1422828 
3918.047 -1432702 -1438548 -1442510 -1445615 -1446374 -1442510 -1431447 
3921.422 -1412788 -1389338 -1365095 -1345276 -1333187 -1329553 -1332592 
3924.797 -1339562 -1347490 -1354888 -1361627 -1367407 -1371767 -1373055 
3928.172 -1369785 -1361032 -1348183 -1334376 -1323905 -1319974 -1324070 
3931.548 -1334508 -1348646 -1363344 -1376655 -1388678 -1400237 -1411962 
3934.923 -1423356 -1432438 -1437094 -1436170 -1430423 -1422035 -1413811 
3938.298 -1407735 -1403606 -1399610 -1393533 -1384252 -1373055 -1363344 
3941.673 -1358918 -1361726 -1371040 -1382733 -1391584 -1393632 -1388050 
3945.049 -1377316 -1366482 -1359678 -1359381 -1365557 -1375466 -1386300 
3948.424 -1396076 -1404564 -1413085 -1422431 -1432537 -1441619 -1447959 
3951.799 -1450139 -1448554 -1445549 -1444162 -1446473 -1452550 -1460475 
3955.174 -1466749 -1469325 -1467476 -1462424 -1456810 -1452517 -1449974 
3958.550 -1448025 -1444294 -1437821 -1428475 -1418831 -1411269 -1408197 
3961.925 -1409749 -1414373 -1419393 -1422695 -1423554 -1423059 -1422431 
3965.300 -1422497 -1422332 -1420384 -1414802 -1405158 -1393335 -1382336 
3968.675 -1375466 -1374707 -1378835 -1384285 -1387654 -1385540 -1377646 
3972.051 -1366185 -1354789 -1346730 -1343691 -1345442 -1350132 -1356276 
3975.426 -1362915 -1369752 -1377316 -1384747 -1390032 -1391155 -1386465 
3978.801 -1376127 -1362882 -1350429 -1342436 -1340487 -1343261 -1347655 
3982.176 -1350132 -1348844 -1344087 -1338406 -1334607 -1333616 -1334970 
3985.552 -1335565 -1332691 -1325391 -1315283 -1306000 -1302036 -1305538 
3988.927 -1315745 -1329124 -1341147 -1348183 -1349108 -1345276 -1339397 
3992.302 -1333781 -1329322 -1324829 -1319115 -1311616 -1303919 -1298765 
3995.677 -1298865 -1305240 -1316009 -1328001 -1336721 -1339562 -1336457 
3999.052 -1330016 -1323442 -1319280 -1317859 
##END=
