
##TITLE=Z345_1_d
##JCAMP-DX=5.01  $$ Nicolet v. 1
##DATATYPE=INFRARED SPECTRUM
##ORIGIN=UniL
##OWNER=Nicolet
##LONGDATE=2011/09/14
##TIME=09:02:19
##SPECTROMETER/DATA SYSTEM=Nicolet iS5
##DATA PROCESSING=
Ratio against background
%Transmittance->Absorbance
Truncated
ElementMultiply or ElementDivide
##COMMENTS=
Number of sample scans: 32
Collection length: 51.24 sec
Sample gain: 2.0
Background collected on: Mer Sep 14 08:50:51 2011 (GMT+02:00);
Number of background scans: 32
Background gain: 2.0
Sample spacing:  1.000
Number of scan points: 12415
Resolution points: 8192
Number of FFT points: 65536
Apodization: N-B fort;
Phase correction: Mertz;
Laser frequency: 15798.0 cm-1
Number of rejected sample scans: 0
Number of rejected background scans: 0
Bench serial number: ASB1000141;
##RESOLUTION=4.000
##XUNITS=1/CM
##YUNITS=ABSORBANCE
##FIRSTX=649.893372
##LASTX=4000.122314
##FIRSTY=0.106755
##MAXX=4000.122314
##MINX=649.893372
##MAXY=0.459400
##MINY=-0.001398
##XFACTOR=1.000000
##YFACTOR=1.000000E-009
##NPOINTS=6950
##DELTAX=0.482117
##ZPD=6100
##XYDATA=(X++(Y..Y))
649.893 106754960 107019416 107431200 108014584 108753688 109601560 
652.786 110502016 111421864 112362072 113357960 114452944 115676992 
655.679 117030208 118488232 120018784 121607304 123267360 125036032 
658.571 126953320 129039792 131286784 133666856 136157152 138760128 
661.464 141513216 144472736 147690336 151183664 154932016 158885328 
664.357 162997168 167243440 171601616 176022944 180359520 184290288 
667.250 187358672 189088208 189201568 187773888 185159920 181793968 
670.142 177997312 173950416 169718928 165320784 160795984 156229296 
673.035 151728736 147409888 143348944 139570416 136062592 132800120 
675.928 129766464 126962904 124399472 122078984 119983440 118075264 
678.820 116305912 114631648 113030472 111501520 110059344 108719136 
681.713 107486456 106353720 105306640 104333912 103434328 102617376 
684.606 101896840 101278808 100756792 100309584 99910408 99538064 99181688 
687.981 98842456 98526152 98230584 97938384 97616176 97221256 96717376 
691.355 96084848 95325328 94457536 93508536 92502928 91456488 90380376 
694.730 89285272 88186144 87104248 86062440 85075440 84148624 83275720 
698.105 82445864 81650912 80892440 80180936 79532864 78960296 78465648 
701.480 78039608 77666128 77328040 77014272 76721768 76453480 76212120 
704.855 75996048 75796928 75604720 75412640 75222216 75044592 74896656 
708.229 74796864 74760296 74797808 74921544 75146496 75492304 75977384 
711.604 76607600 77362376 78183584 78980256 79638288 80037848 80091440 
714.979 79755920 79046024 78024904 76792856 75465656 74146744 72926264 
718.354 71868896 71009264 70361200 69919128 69666024 69577720 69628752 
721.729 69794136 70045568 70350056 70665200 70934120 71092928 71076968 
725.104 70830544 70325824 69567736 68597256 67478320 66289276 65106852 
728.478 63989648 62979408 62097572 61348432 60724980 60212824 59795148 
731.853 59453096 59170084 58933216 58732964 58564276 58424988 58313332 
735.228 58226336 58159164 58105676 58060304 58020540 57985928 57958208 
738.603 57939124 57928336 57922960 57919968 57918304 57920308 57932200 
741.978 57962300 58015196 58091664 58186400 58290748 58396180 58498228 
745.352 58597112 58696740 58800488 58908512 59016332 59117388 59205628 
748.727 59279568 59343340 59403820 59467764 59537188 59608448 59675004 
752.102 59732220 59780852 59828952 59889004 59973864 60091540 60242552 
755.477 60421488 60621380 60836836 61066740 61312792 61577000 61858528 
758.852 62153808 62459924 62777668 63115456 63488396 63915512 64410804 
762.227 64981616 65626396 66339224 67116520 67964872 68903488 69969304 
765.601 71216776 72712528 74544240 76811048 79606048 82999256 86992096 
768.976 91483608 96224848 100838832 104858344 107779504 109217912 108986352 
772.351 107161200 104052152 100132040 95923200 91844648 88187360 85077448 
775.726 82503960 80375736 78578120 77022072 75651656 74447240 73407344 
779.101 72531816 71813848 71241336 70801680 70488072 70300384 70240280 
782.475 70305176 70485424 70763696 71122744 71549896 72041000 72599064 
785.850 73230152 73937904 74720664 75573800 76494768 77486320 78560576 
789.225 79736056 81031864 82466696 84056248 85815448 87766152 89939680 
792.600 92376584 95125688 98231792 101725856 105617456 109887936 114487016 
795.975 119327168 124296232 129249944 134021744 138452800 142396800 
798.867 145747632 148453952 150510784 151944432 152785600 153055600 
801.760 152763168 151920448 150572784 148821600 146827872 144818400 
804.653 143038352 141719808 141063888 141198336 142175744 143970336 
807.546 146484992 149552464 152933248 156350352 159476592 161964992 
810.438 163509344 163846624 162803648 160317840 156428432 151273504 
813.331 145061296 138069456 130606040 122971328 115459696 108307056 
816.224 101680080 95686320 90364952 85706944 81671224 78201720 75237144 
819.598 72715936 70583528 68786776 67274176 66001116 64927092 64020940 
822.973 63263304 62642344 62152432 61789188 61545772 61412700 61378960 
826.348 61433692 61567340 61772076 62038020 62351668 62694976 63044304 
829.723 63375780 63667104 63899048 64057380 64130960 64111144 63993640 
833.098 63781680 63489356 63141436 62773876 62426680 62132744 61915456 
836.473 61782276 61726124 61731016 61778836 61855164 61950880 62061752 
839.847 62185620 62319920 62461076 62605484 62751248 62898284 63046604 
843.222 63193092 63329892 63442072 63511176 63521840 63464740 63341700 
846.597 63164696 62953556 62730580 62515668 62325848 62174148 62070508 
849.972 62023720 62040156 62122536 62268596 62471096 62719972 63004732 
853.347 63318884 63661232 64034952 64444856 64894156 65382972 65908244 
856.721 66465972 67054456 67675520 68334408 69037984 69791056 70596592 
860.096 71455176 72368104 73338880 74374720 75483160 76670168 77935608 
863.471 79271264 80661624 82088600 83534928 84987584 86440136 87892464 
866.846 89350352 90825440 92337400 93914120 95587288 97388192 99335768 
870.221 101425136 103616800 105833696 107972904 109906072 111506024 
873.113 112666216 113303592 113375984 112882720 111865840 110403520 
876.006 108602448 106594376 104508504 102466448 100572136 98896424 97484064 
879.381 96355992 95514624 94952768 94658936 94619216 94816728 95230056 
882.756 95833040 96592872 97472744 98436896 99447360 100468776 101468992 
886.131 102417328 103289712 104071256 104759232 105364200 105906880 
889.023 106414800 106913656 107424416 107962072 108536128 109155496 
891.916 109831608 110577664 111407176 112327184 113333008 114401576 
894.809 115490296 116541832 117482696 118234456 118725872 118894752 
897.701 118705536 118155416 117279720 116147552 114852888 113504624 
900.594 112200944 111023136 110029632 109251792 108704024 108390832 
903.487 108313008 108471552 108867392 109498664 110358968 111437584 
906.379 112722216 114201384 115867576 117716008 119740840 121931240 
909.272 124268800 126726208 129273280 131881848 134528976 137199648 
912.165 139883072 142567744 145239808 147881472 150474736 153007936 
915.058 155477120 157886736 160243168 162547520 164788272 166940192 
917.950 168963312 170810368 172435200 173792976 174847904 175575888 
920.843 175965840 176026816 175790640 175318208 174691072 174007408 
923.736 173378384 172908976 172701456 172855200 173456032 174582688 
926.628 176292208 178601600 181465824 184750864 188237824 191598848 
929.521 194437168 196359776 196997296 196103520 193601552 189600784 
932.414 184386480 178362768 172021840 165830112 160182896 155385424 
935.306 151605632 148903008 147248896 146559920 146725248 147628848 
938.199 149171024 151255616 153784192 156650176 159711712 162791552 
941.092 165692912 168189744 170063808 171137600 171282784 170457088 
943.985 168709936 166186640 163100624 159701056 156251280 152968496 
946.877 150014416 147489136 145428352 143825232 142647296 141854096 
949.770 141403808 141255664 141371872 141711360 142232416 142898672 
952.663 143679632 144556112 145520304 146569168 147699792 148905344 
955.555 150173120 151489296 152843536 154232048 155657776 157126784 
958.448 158642144 160201232 161794768 163411184 165042432 166687456 
961.341 168352160 170044544 171769280 173522880 175294912 177071296 
964.233 178841984 180605104 182368080 184142768 185938720 187759216 
967.126 189599536 191451616 193308672 195170624 197043312 198934944 
970.019 200849088 202781776 204720832 206652400 208567696 210467584 
972.912 212363136 214271408 216209280 218187744 220214176 222296240 
975.804 224446672 226688800 229052816 231566720 234250944 237110416 
978.697 240136368 243311824 246621616 250057008 253614672 257289168 
981.590 261061936 264889712 268707680 272429920 275957984 279200704 
984.482 282072576 284500800 286433632 287840320 288725504 289135200 
987.375 289167136 288961120 288670496 288453568 288437184 288701056 
990.268 289286176 290198016 291425760 292952864 294764128 296842336 
993.160 299160480 301682272 304362176 307154432 310027808 312967904 
996.053 315977056 319063584 322230208 325467136 328754304 332070368 
998.946 335405440 338767456 342180512 345673184 349263680 352953504 
1001.839 356727264 360564032 364447968 368376928 372360064 376406016 
1004.731 380512576 384659072 388811360 392938496 397025312 401080832 
1007.624 405131520 409206432 413316864 417447392 421556384 425591264 
1010.517 429509728 433284896 436906336 440366048 443641952 446690688 
1013.409 449457600 451889120 453955392 455657056 457018816 458068960 
1016.302 458822464 459272736 459399648 459188192 458647136 457813280 
1019.195 456743776 455496064 454104576 452578272 450905792 449075296 
1022.087 447090528 444975744 442763136 440476736 438111968 435633728 
1024.980 432981824 430096672 426936192 423481600 419734208 415699360 
1027.873 411375328 406752576 401825696 396611776 391162560 385568320 
1030.766 379946848 374413568 369074304 364012608 359284704 354936224 
1033.659 351001856 347502816 344438336 341771104 339422496 337268192 
1036.552 335161344 332961280 330543616 327829792 324785536 321411616 
1039.446 317735136 313799968 309666016 305402656 301090368 296813952 
1042.339 292642720 288625408 284781280 281102656 277567904 274155776 
1045.232 270859456 267688720 264665456 261811696 259141888 256657872 
1048.125 254351264 252211904 250233504 248417024 246765808 245280448 
1051.018 243952464 242764304 241695888 240731040 239863728 239098480 
1053.911 238443040 237898640 237451952 237070704 236707360 236312064 
1056.804 235835200 235234224 234475296 233524144 232346448 230911408 
1059.697 229195664 227195680 224932832 222455744 219829232 217123376 
1062.590 214409136 211745504 209185280 206780400 204579312 202630480 
1065.483 200977232 199645728 198643424 197954320 197545712 197371024 
1068.376 197378176 197517248 197734176 197973088 198177984 198289840 
1071.269 198259072 198052928 197659104 197086800 196358560 195502448 
1074.162 194541104 193489584 192358944 191160176 189911120 188638352 
1077.055 187370928 186137136 184958080 183844704 182801648 181832192 
1079.948 180941664 180138848 179432784 178827376 178317808 177890896 
1082.842 177529616 177218320 176949072 176722048 176543296 176418480 
1085.735 176348848 176329408 176352384 176411376 176505392 176638976 
1088.628 176819808 177052960 177337680 177668368 178038048 178445664 
1091.521 178900848 179424256 180041136 180776032 181643024 182642176 
1094.414 183759712 184971840 186250832 187564704 188880960 190165344 
1097.307 191379536 192487600 193459696 194275296 194926608 195412336 
1100.200 195729344 195864256 195788048 195457792 194830880 193873920 
1103.093 192575664 190951504 189041664 186903728 184600016 182198640 
1105.986 179765376 177359760 175039584 172850560 170822304 168966784 
1108.879 167275184 165723808 164279392 162910480 161591184 160302880 
1111.772 159033632 157773216 156510432 155235328 153941088 152628544 
1114.665 151307536 149996032 148714432 147479776 146302896 145187888 
1117.558 144134320 143140288 142203920 141321232 140481600 139664272 
1120.451 138838032 137963824 137005792 135939376 134757024 133469792 
1123.344 132100880 130677984 129220856 127738640 126227528 124676176 
1126.238 123069632 121396744 119653288 117842680 115976104 114069512 
1129.131 112143032 110216944 108308296 106428688 104581296 102760328 
1132.024 100953736 99148424 97335576 95516192 93702704 91917768 90191720 
1135.399 88553104 87027800 85635504 84388152 83292984 82353376 81570024 
1138.774 80940392 80458360 80114064 79893576 79780528 79759504 79815048 
1142.149 79932928 80098848 80294168 80496920 80681176 80818528 80884024 
1145.525 80858000 80728296 80490824 80147784 79707392 79182384 78592064 
1148.900 77963240 77327680 76723512 76190208 75761304 75465464 75321320 
1152.275 75337984 75517616 75856816 76347360 76975104 77719464 78552040 
1155.650 79434344 80322832 81170888 81929672 82555928 83009488 83254488 
1159.026 83262472 83012096 82491856 81702816 80658472 79383384 77907696 
1162.401 76265920 74491840 72616216 70669608 68681312 66678128 64687288 
1165.776 62731692 60829440 58993712 57232348 55549408 53947992 52430704 
1169.151 51001188 49663464 48420744 47274956 46226332 45274300 44418512 
1172.527 43660244 43002060 42448624 42004752 41674420 41460640 41365364 
1175.902 41391352 41542636 41826312 42251192 42828256 43568584 44482232 
1179.277 45579228 46868420 48359112 50060912 51982196 54128900 56502452 
1182.652 59097796 61900556 64883924 68008352 71212752 74411368 77502080 
1186.028 80357800 82846176 84851208 86279056 87081000 87257696 86858120 
1189.403 85969256 84700648 83180960 81533080 79867216 78276144 76818840 
1192.778 75520656 74370552 73326688 72321520 71274088 70111488 68773768 
1196.153 67228336 65473692 63537376 61470260 59333808 57197116 55123964 
1199.529 53164832 51358612 49727140 48277156 47003204 45890344 44918796 
1202.904 44065544 43309832 42633464 42020376 41458712 40937452 40447008 
1206.279 39980000 39531312 39099732 38688244 38303492 37954552 37650300 
1209.654 37399992 37211376 37091436 37047988 37089128 37222964 37457164 
1213.030 37796704 38243532 38796668 39453040 40208860 41059624 41999900 
1216.405 43021744 44112196 45254256 46425544 47601000 48756844 49870916 
1219.780 50924660 51905452 52805096 53622136 54361772 55037604 55669584 
1223.155 56281060 56896612 57535884 58211064 58926312 59678576 60460676 
1226.531 61263380 62078572 62898824 63716680 64524576 65314496 66078924 
1229.906 66813284 67516912 68194512 68854600 69511344 70182952 70891632 
1233.281 71667168 72546032 73568600 74781672 76231240 77958200 80000008 
1236.656 82386384 85141336 88285480 91835392 95801352 100182328 104961920 
1240.031 110102336 115539624 121193640 126962584 132728320 138370544 
1242.925 143757552 148757472 153254816 157149664 160375632 162904208 
1245.818 164739568 165907824 166440928 166367552 165703104 164451472 
1248.711 162608464 160167712 157124208 153476096 149228848 144400976 
1251.604 139031760 133185400 126957048 120469976 113855120 107251152 
1254.497 100787344 94565160 88667160 83147984 78033272 73328448 69018480 
1257.872 65075256 61460292 58131968 55051176 52181224 49494288 46971116 
1261.247 44599856 42375520 40297416 38366360 36582928 34945672 33451036 
1264.623 32093610 30867006 29764170 28778324 27901614 27125414 26440490 
1267.998 25836992 25306498 24843274 24444542 24110376 23842410 23642232 
1271.373 23510418 23446870 23451590 23526018 23673372 23897964 24202260 
1274.748 24584672 25036668 25542618 26079416 26618146 27128518 27578158 
1278.124 27934862 28171814 28266364 28204768 27984582 27615054 27116526 
1281.499 26515608 25844622 25134644 24412892 23703500 23024996 22391856 
1284.874 21815204 21302230 20856292 20476314 20158130 19895018 19680252 
1288.249 19509224 19379420 19290078 19240442 19227732 19246330 19289420 
1291.625 19349730 19422280 19504754 19597538 19701680 19816944 19941328 
1295.000 20071196 20203948 20338582 20477530 20625554 20788230 20969290 
1298.375 21169908 21389134 21625362 21878586 22150922 22446528 22770234 
1301.750 23125454 23513672 23934480 24387236 24872604 25393294 25952944 
1305.125 26553718 27195112 27871652 28574162 29289504 30003542 30701332 
1308.501 31366728 31983816 32535852 33007108 33386122 33667208 33852000 
1311.876 33948616 33969432 33927336 33832048 33689552 33501786 33268846 
1315.251 32991272 32670934 32311604 31917766 31494324 31046196 30579836 
1318.626 30103818 29629880 29172230 28744478 28357254 28015894 27720006 
1322.002 27465298 27246616 27061086 26909266 26794746 26721800 26693858 
1325.377 26712322 26776632 26886352 27042960 27249158 27507798 27819296 
1328.752 28179416 28578868 29005500 29447834 29897150 30349916 30806284 
1332.127 31267654 31733830 32201506 32663756 33112514 33539366 33936220 
1335.503 34296004 34611044 34872388 35071916 35203048 35264312 35261116 
1338.878 35206856 35120304 35021560 34929944 34859816 34820580 34818568 
1342.253 34858060 34943084 35076908 35261152 35494800 35774772 36097300 
1345.628 36460100 36862880 37307300 37793524 38317460 38869244 39432684 
1349.004 39987916 40517168 41005764 41444132 41827332 42151684 42413660 
1352.379 42609488 42736480 42795124 42790336 42731724 42630760 42498788 
1355.754 42345496 42177904 42002196 41826784 41662200 41522580 41423136 
1359.129 41376624 41393096 41479052 41639300 41881184 42215952 42656456 
1362.505 43215100 43895340 44687144 45564768 46489928 47417692 48295524 
1365.880 49071284 49693372 50110888 50285104 50193260 49836688 49240256 
1369.255 48449008 47519004 46501104 45439004 44363424 43291604 42236584 
1372.630 41211992 40236596 39338428 38549540 37898292 37405160 37077724 
1376.006 36914568 36911324 37067692 37390208 37892360 38588792 39490888 
1379.381 40601128 41910084 43393420 45006364 46685056 48337372 49846944 
1382.756 51095660 51967892 52375712 52271508 51644968 50524376 48969684 
1386.131 47082736 44997032 42862048 40830276 39018272 37491084 36263572 
1389.507 35309812 34581224 34019956 33572944 33195234 32852516 32524388 
1392.882 32202364 31890344 31601604 31357006 31178824 31083460 31077980 
1396.257 31156646 31301982 31483098 31660338 31791724 31838500 31780030 
1399.632 31620956 31391158 31134860 30897104 30717334 30620544 30622144 
1403.008 30730600 30950010 31279978 31711162 32221954 32773900 33314530 
1406.383 33790464 34154428 34378728 34461116 34422808 34302168 34142236 
1409.758 33986740 33869300 33812132 33828752 33925472 34103312 34358324 
1413.133 34681560 35058984 35473480 35911008 36363860 36832620 37324560 
1416.509 37848184 38406824 38996196 39605028 40222308 40845932 41488344 
1419.884 42171732 42913724 43721836 44588844 45499564 46437640 47396296 
1423.259 48381704 49411340 50506324 51681880 52941692 54278452 55681372 
1426.634 57143520 58667648 60262612 61937508 63695228 65529564 67428936 
1430.010 69385024 71400496 73490456 75673344 77963432 80360712 82852472 
1433.385 85413240 88014912 90630872 93222280 95736624 98100664 100231784 
1436.760 102069104 103607752 104912256 106083496 107231856 108447520 
1439.653 109778872 111229104 112747304 114238144 115556704 116531264 
1442.546 116999840 116820072 115905520 114240472 111881232 108943392 
1445.439 105570216 101923736 98151792 94385136 90751040 87360600 84304744 
1448.814 81638032 79365208 77445928 75810264 74388760 73128904 72010016 
1452.190 71038952 70237976 69624592 69196952 68929776 68777656 68689584 
1455.565 68614024 68517952 68397072 68275968 68192456 68175472 68235992 
1458.940 68369584 68567064 68821760 69130664 69491128 69895504 70329328 
1462.315 70767520 71175632 71518136 71762960 71893688 71916560 71860528 
1465.691 71767448 71676584 71621320 71625040 71703976 71874136 72150992 
1469.066 72548968 73079024 73744792 74539160 75438656 76406656 77398128 
1472.441 78373448 79316520 80244384 81206280 82262392 83478016 84911312 
1475.816 86602216 88573504 90825808 93340736 96086632 99026128 102126440 
1479.192 105354616 108683888 112096624 115583112 119149696 122817688 
1482.085 126621304 130594400 134759776 139117200 143638912 148261232 
1484.978 152873792 157334080 161452768 165002160 167749808 169459376 
1487.871 169924320 169001504 166632448 162881216 157945648 152160640 
1490.764 145936624 139663408 133663248 128128808 123134920 118695432 
1493.657 114791952 111417752 108606872 106423264 104938928 104183952 
1496.550 104104776 104536872 105217424 105859056 106176776 105939904 
1499.443 105016688 103367648 101056000 98217128 95037056 91701720 88348224 
1502.818 85064352 81858576 78663696 75352136 71762328 67755608 63294044 
1506.194 58526324 53778152 49420252 45695020 42637556 40126684 37995704 
1509.569 36098344 34339964 32677650 31105316 29635308 28279590 27043808 
1512.944 25923014 24905834 23978490 23125840 22330912 21573162 20832828 
1516.319 20097846 19371382 18674012 18034570 17478230 17011146 16615959 
1519.695 16252672 15874119 15442747 14953326 14440236 13961693 13567492 
1523.070 13274143 13065086 12903674 12753240 12588124 12402920 12209548 
1526.445 12027912 11872469 11745268 11637402 11538578 11445731 11366950 
1529.820 11317295 11310663 11350964 11427939 11518095 11591867 11628212 
1533.196 11623652 11597584 11580671 11601259 11671777 11788539 11938365 
1536.571 12107221 12285755 12467124 12644850 12806507 12929035 12983484 
1539.946 12948732 12826710 12645293 12444585 12258794 12100544 11960401 
1543.321 11814107 11637435 11416510 11156871 10879856 10614833 10384856 
1546.697 10197028 10044477 9910793 9780980 9646022 9508024 9376368 9262689 
1550.554 9172629 9104342 9049836 9001019 8954204 8912061 8882503 8875164 
1554.411 8896537 8948082 9027913 9131818 9255175 9389504 9515779 9602795 
1558.269 9607030 9496001 9277414 9004842 8748838 8558437 8451731 8419771 
1562.126 8440447 8487984 8541000 8586926 8623731 8658985 8704754 8771186 
1565.984 8861164 8970474 9089692 9209957 9324365 9429188 9523400 9607064 
1569.841 9682341 9753260 9828663 9920623 10041764 10202421 10406949 10652081 
1573.698 10925655 11210044 11486419 11740264 11968542 12181877 12400670 
1577.074 12643280 12920057 13234141 13583800 13968503 14389166 14848190 
1580.449 15345319 15875803 16430302 16996122 17560818 18114984 18651390 
1583.824 19162972 19641390 20074562 20449292 20754828 20986154 21146390 
1587.199 21246626 21304494 21339782 21371836 21418756 21495658 21616622 
1590.575 21795834 22045668 22376506 22793000 23292984 23866948 24501612 
1593.950 25184184 25905426 26662852 27459262 28301340 29196716 30151016 
1597.325 31166828 32241688 33367194 34525008 35687712 36818444 37870524 
1600.700 38797064 39553812 40102880 40419912 40493780 40329952 39948612 
1604.076 39384320 38680168 37876852 37010936 36108860 35185584 34249572 
1607.451 33304870 32353834 31398640 30441848 29487124 28540722 27613570 
1610.826 26722294 25888862 25134154 24473954 23914592 23450228 23065352 
1614.201 22736330 22437212 22142066 21830954 21497502 21151748 20818020 
1617.577 20525012 20294834 20136402 20045170 20006344 19999508 20002804 
1620.952 19994476 19958118 19885340 19778276 19648012 19511130 19384374 
1624.327 19277608 19194278 19131322 19082916 19041546 18998966 18947980 
1627.702 18882396 18798932 18698778 18587786 18475442 18371076 18282216 
1631.078 18211792 18157408 18111288 18061858 17994748 17892776 17738846 
1634.453 17519244 17229766 16881914 16503880 16132263 15797384 15515368 
1637.828 15286626 15101023 14943517 14799609 14659621 14520056 14384611 
1641.203 14261466 14159475 14084172 14034923 14004740 13981300 13950197 
1644.579 13895011 13801179 13657923 13460949 13216378 12942007 12665454 
1647.954 12416114 12218545 12088142 12028491 12032681 12082521 12149573 
1651.329 12188863 12143133 11959618 11620317 11170537 10698775 10286487 
1654.704 9968086 9737164 9569802 9441311 9334521 9239301 9152019 9072165 
1658.562 9000343 8936008 8877667 8821904 8764288 8699041 8619372 8519813 
1662.419 8398016 8257814 8110060 7970086 7853605 7770885 7725517 7713477 
1666.277 7724439 7744136 7757156 7750242 7714084 7645891 7548950 7432918 
1670.134 7310279 7194143 7096663 7025873 6984961 6970718 6973311 6976071 
1673.991 6958866 6905100 6808458 6679737 6541333 6419248 6330279 6277498 
1677.849 6253160 6245328 6244152 6246068 6255413 6281868 6334616 6415852 
1681.706 6517687 6618839 6689394 6696258 6616787 6454659 6244051 6033612 
1685.564 5859410 5736577 5660940 5619719 5598439 5584443 5569005 5546082 
1689.421 5513430 5472525 5429444 5393781 5375967 5385360 5426089 5495578 
1693.279 5583772 5674804 5750141 5793355 5799231 5778446 5755412 5754506 
1697.136 5790064 5860484 5951070 6035997 6083641 6068185 5980128 5839428 
1700.993 5686654 5563869 5494101 5479236 5508061 5563098 5625828 5678497 
1704.851 5708912 5712504 5694140 5664901 5637442 5621699 5621632 5636838 
1708.708 5663927 5700015 5743224 5794262 5855313 5928196 6013017 6107533 
1712.566 6207682 6308695 6407243 6501239 6590345 6673243 6746600 6803140 
1716.423 6833635 6830605 6793211 6731019 6661971 6604507 6572011 6569185 
1720.281 6593002 6635493 6686971 6738221 6781163 6809098 6817613 6803746 
1724.138 6766557 6707497 6630143 6540357 6443797 6345913 6249261 6154143 
1727.995 6058945 5962425 5866261 5776297 5700989 5648351 5622337 5618813 
1731.853 5624049 5614819 5565514 5454608 5278893 5059938 4838077 4652698 
1735.710 4525217 4458159 4440183 4454678 4483602 4511188 4526020 4521869 
1739.568 4499571 4465156 4427597 4394058 4368319 4349912 4335622 4321365 
1743.425 4304231 4283685 4262236 4244067 4233059 4231955 4240554 4256246 
1747.282 4274616 4290511 4299814 4298408 4282714 4249152 4194114 4116337 
1751.140 4019177 3911574 3806504 3716865 3652405 3615451 3601853 3601419 
1754.997 3601519 3589959 3559391 3510019 3449731 3390419 3342769 3312819 
1758.855 3300099 3299231 3301835 3299197 3284942 3255563 3211866 3158662 
1762.712 3103562 3055242 3020908 3005627 3010665 3033354 3066654 3102027 
1766.570 3130360 3146046 3149283 3147214 3149951 3165938 3198148 3241175 
1770.427 3283973 3310850 3309447 3274826 3212935 3138170 3066287 3008496 
1774.284 2967927 2941606 2924126 2911517 2902511 2897941 2899275 2906647 
1778.142 2917054 2925794 2927595 2919156 2900509 2875527 2849845 2828033 
1781.999 2812058 2800319 2789215 2774008 2751633 2720824 2683249 2641943 
1785.857 2601042 2564844 2537380 2522183 2521883 2538080 2569577 2612342 
1789.714 2659245 2700853 2727159 2730460 2707754 2661879 2600942 2535681 
1793.572 2475828 2427611 2393293 2372637 2363742 2364108 2371105 2382632 
1797.429 2396358 2410618 2423546 2433709 2439773 2440706 2435441 2424012 
1801.286 2407220 2387596 2368539 2353581 2345486 2345619 2353148 2365974 
1805.144 2381432 2397491 2413584 2430277 2448703 2469396 2491656 2513085 
1809.001 2530415 2540980 2543346 2538214 2527915 2515317 2502620 2491457 
1812.859 2481959 2473995 2467630 2463398 2462132 2464664 2471695 2483092 
1816.716 2498088 2516517 2538447 2563844 2592909 2625076 2659512 2695351 
1820.573 2732361 2771441 2814293 2862519 2915687 2970963 3023544 3067055 
1824.431 3097622 3115543 3126422 3138904 3161766 3200084 3253593 3316492 
1828.288 3379867 3434869 3475615 3501935 3518403 3533201 3553712 3584180 
1832.146 3625575 3676030 3732740 3792633 3852968 3911407 3965539 4012857 
1836.003 4051918 4081685 4102790 4116772 4125670 4131189 4134635 4136608 
1839.861 4137679 4138381 4139251 4139853 4137980 4129182 4108176 4070113 
1843.718 4014195 3945510 3874698 3813791 3772244 3753427 3754931 3769503 
1847.575 3789190 3807874 3822983 3835752 3849057 3865371 3884259 3903082 
1851.433 3917157 3922908 3919331 3909200 3897231 3888405 3886165 3891146 
1855.290 3901310 3913647 3926118 3937854 3949757 3962864 3977744 3993728 
1859.148 4009379 4023491 4035899 4047303 4058674 4070982 4083792 4096402 
1863.005 4108510 4121522 4139351 4167150 4209672 4268995 4342147 4422542 
1866.863 4499169 4561512 4601025 4614420 4603503 4574605 4535697 4493244 
1870.720 4451063 4410258 4369625 4327422 4281175 4228977 4168823 4099446 
1874.577 4020849 3934443 3843508 3751656 3662931 3579502 3501368 3426586 
1878.435 3351952 3274759 3193808 3109903 3025045 2942273 2863352 2789548 
1882.292 2721057 2658312 2602075 2553678 2514385 2484658 2463431 2448703 
1886.150 2437907 2428944 2420447 2411884 2402322 2390395 2373836 2351249 
1890.007 2322233 2289556 2257580 2231568 2215383 2209688 2211952 2216948 
1893.865 2219845 2217248 2209188 2198498 2189407 2185377 2186843 2192804 
1897.722 2200097 2206591 2211186 2214050 2216082 2217647 2218180 2216681 
1901.579 2212585 2207423 2204226 2207190 2219246 2240528 2267206 2293320 
1905.437 2312307 2319402 2313606 2296951 2273568 2247655 2222143 2198332 
1909.294 2176852 2158437 2144385 2136094 2134629 2138891 2146750 2155374 
1913.152 2163732 2172823 2186077 2206924 2236897 2272802 2308043 2332694 
1917.009 2338723 2322866 2289456 2249020 2213318 2191471 2186210 2193836 
1920.866 2206358 2214916 2213651 2200330 2176852 2147382 2116716 2088149 
1924.724 2063778 2045102 2033584 2030121 2035215 2047066 2062380 2076263 
1928.581 2084886 2086684 2083488 2079326 2078993 2084919 2097105 2112620 
1932.439 2127404 2138758 2146150 2150812 2155174 2160236 2165663 2169826 
1936.296 2171791 2172224 2174921 2184978 2206691 2241027 2284493 2330262 
1940.154 2369672 2395958 2405387 2398524 2378601 2349417 2315005 2277598 
1944.011 2239295 2202894 2172224 2151212 2142521 2146317 2159536 2175953 
1947.868 2190273 2199098 2202361 2203027 2205159 2211719 2223009 2238030 
1951.726 2254649 2272635 2293353 2319469 2352448 2391161 2431143 2465731 
1955.583 2488924 2496855 2490023 2472495 2449269 2425379 2402989 2382998 
1959.441 2365241 2350682 2341555 2341954 2353981 2378700 2413350 2454134 
1963.298 2496688 2538347 2577843 2614675 2646810 2670147 2679515 2670413 
1967.156 2641510 2597842 2547846 2502554 2470129 2455167 2456634 2469829 
1971.013 2489757 2512951 2538014 2564910 2591809 2614975 2628476 2627809 
1974.870 2612708 2589442 2569210 2565110 2585776 2633176 2699852 2773375 
1978.728 2840839 2893805 2928563 2946510 2950580 2943407 2925727 2898241 
1982.585 2862719 2823764 2787914 2762037 2749333 2748666 2754301 2757736 
1986.443 2752200 2735228 2709521 2682282 2662012 2655811 2666746 2694118 
1990.300 2734128 2781178 2830334 2875660 2912518 2937002 2946643 2942340 
1994.157 2928196 2911283 2899342 2898508 2910983 2934634 2963824 2992048 
1998.015 3015303 3032553 3046333 3059447 3073261 3086343 3094652 3094518 
2001.872 3084741 3067022 3047034 3030718 3022943 3024078 3031785 3042229 
2005.730 3051672 3059647 3068189 3078801 3092983 3107300 3118146 3121249 
2009.587 3116544 3107066 3099424 3099724 3111538 3133631 3161265 3188935 
2013.445 3213869 3236735 3262674 3296326 3341267 3396397 3456611 3514495 
2017.302 3564836 3605094 3637971 3666473 3694977 3724652 3755299 3785881 
2021.159 3816365 3847954 3883658 3924111 3969017 4013827 4053457 4082956 
2025.017 4100750 4107875 4108176 4105332 4101352 4096703 4090314 4082320 
2028.874 4075665 4075631 4088341 4116872 4161597 4218772 4283049 4351451 
2032.732 4423781 4503388 4593792 4694899 4802060 4905293 4994306 5062049 
2036.589 5108212 5138890 5164037 5193880 5233216 5281644 5334438 5385662 
2040.447 5430954 5470009 5504772 5537592 5568870 5596492 5616866 5628413 
2044.304 5631803 5632642 5637979 5654226 5684505 5727713 5778648 5830361 
2048.161 5877008 5914458 5940120 5952817 5951407 5936022 5907370 5868511 
2052.019 5825088 5783617 5749671 5726404 5712068 5701929 5689743 5671279 
2055.876 5645196 5615053 5585349 5560279 5541753 5527726 5514839 5500041 
2059.734 5482860 5465848 5452594 5446723 5448568 5455413 5461386 5461117 
2063.591 5451085 5431457 5405288 5375934 5346380 5317029 5286641 5253371 
2067.448 5216482 5177214 5137717 5100937 5068519 5040696 5015992 4994138 
2071.306 4974833 4959818 4950836 4949161 4953618 4961158 4967325 4968699 
2075.163 4963638 4953450 4940782 4929488 4921244 4916586 4913872 4911325 
2079.021 4907840 4903416 4898892 4895642 4894268 4894570 4895877 4897854 
2082.878 4900468 4904020 4908912 4914207 4918094 4918061 4912531 4901507 
2086.736 4886829 4871549 4858180 4847190 4836401 4821860 4800016 4769061 
2090.593 4731275 4691884 4657052 4632571 4620916 4621352 4630762 4645665 
2094.450 4663750 4684214 4707560 4733419 4759983 4783399 4798977 4803132 
2098.308 4795493 4778274 4756666 4735060 4717072 4703105 4691616 4679693 
2102.165 4665258 4647139 4625404 4601460 4576078 4550362 4525518 4503287 
2106.023 4486548 4478614 4482330 4498332 4524581 4556255 4587463 4613516 
2109.880 4631466 4640943 4643924 4642484 4638264 4631264 4621184 4607622 
2113.738 4591280 4573633 4557494 4544569 4535563 4530440 4527694 4525954 
2117.595 4524547 4523342 4522606 4522036 4521132 4518822 4514871 4510285 
2121.452 4507941 4510820 4521568 4540652 4565296 4590845 4612109 4625370 
2125.310 4629724 4626710 4619878 4612678 4607019 4603134 4600355 4597676 
2129.167 4595097 4593490 4593691 4595935 4599116 4601594 4602063 4601360 
2133.025 4602565 4610167 4628016 4657119 4694631 4734859 4770904 4798308 
2136.882 4816198 4826752 4834893 4843940 4854562 4864178 4868065 4862569 
2140.740 4845883 4819615 4786683 4751340 4715331 4678956 4641412 4602599 
2144.597 4564090 4529402 4502216 4484975 4477944 4477944 4481057 4484506 
2148.454 4486615 4488155 4490833 4494918 4498734 4499404 4493612 4480522 
2152.312 4461373 4439815 4419262 4401087 4383180 4362195 4336057 4308682 
2156.169 4290511 4297605 4347368 4450761 4607655 4804237 5016528 5219500 
2160.027 5390057 5516316 5595452 5631769 5632642 5608340 5567830 5521215 
2163.884 5477424 5444609 5427465 5426961 5438536 5456285 5472425 5482021 
2167.741 5483263 5477659 5468432 5458701 5449877 5442831 5437530 5434544 
2171.599 5435383 5442395 5456487 5477458 5502692 5529202 5554942 5579610 
2175.456 5604850 5632172 5660705 5686822 5703306 5703641 5684338 5647646 
2179.314 5601829 5558634 5528732 5518228 5526920 5547492 5570918 5589243 
2183.171 5598640 5601057 5600721 5602198 5607871 5616463 5624989 5629856 
2187.029 5630359 5627339 5624351 5624788 5630695 5642410 5659160 5679033 
2190.886 5701056 5724255 5747757 5770186 5790367 5805813 5816961 5824283 
2194.743 5830831 5839965 5853835 5873012 5896656 5921646 5946435 5970554 
2198.601 5995312 6022491 6053200 6085792 6116740 6141507 6157336 6163990 
2202.458 6165133 6166343 6173165 6188961 6213598 6243715 6275750 6305064 
2206.316 6331019 6354218 6376981 6400720 6426848 6454121 6481766 6508605 
2210.173 6534303 6559094 6582775 6604541 6622675 6635863 6644341 6649893 
2214.031 6656924 6669778 6691547 6722909 6760465 6799135 6832962 6857265 
2217.888 6870325 6873186 6868036 6857837 6845046 6831077 6816772 6803679 
2221.745 6792606 6785740 6783721 6786312 6792101 6799102 6805900 6811891 
2225.603 6817849 6824850 6833837 6844507 6855682 6865612 6873490 6879582 
2229.460 6885743 6894395 6907658 6926174 6949405 6975802 7003615 7032440 
2233.318 7062681 7095787 7132331 7172011 7213110 7254044 7292387 7327937 
2237.175 7360423 7391024 7419908 7446974 7471412 7492818 7511292 7528384 
2241.032 7546927 7569314 7596862 7628795 7662517 7694387 7721808 7744305 
2244.890 7763397 7783164 7807553 7839873 7881372 7931244 7986656 8044540 
2248.747 8100912 8152497 8196220 8230122 8253355 8266796 8273348 8277535 
2252.605 8284830 8300467 8327284 8365992 8413792 8466225 8518056 8564081 
2256.462 8601256 8627619 8642625 8646715 8641071 8627719 8608793 8588278 
2260.320 8569758 8556714 8552422 8558269 8574591 8600242 8632891 8669903 
2264.177 8708405 8745559 8779029 8807161 8829005 8845202 8857106 8866642 
2268.034 8875570 8884802 8893765 8901712 8907394 8910810 8913076 8916728 
2271.892 8924812 8940235 8964419 8997197 9036878 9081064 9126844 9172256 
2275.749 9215271 9254904 9290345 9321420 9348233 9371898 9393838 9415542 
2279.607 9438500 9463050 9488957 9515407 9542062 9569091 9598019 9630471 
2283.464 9667806 9710225 9756851 9805176 9853100 9899233 9943303 9986462 
2287.322 10029964 10073978 10117930 10159750 10196993 10228236 10253713 
2290.697 10276003 10298566 10325438 10359473 10401926 10452156 10508264 
2294.072 10568352 10630723 10694054 10757632 10820880 10882879 10942984 
2297.447 11000346 11054995 11107544 11159284 11211540 11265774 11322532 
2300.823 11382597 11445731 11512005 11581453 11654283 11730358 11809682 
2304.198 11891948 11977261 12065487 12157308 12253717 12355498 12463441 
2307.573 12577754 12698410 12825004 12956822 13093462 13233902 13377121 
2310.948 13521516 13664966 13805387 13941506 14072604 14199598 14323924 
2314.323 14448320 14575493 14708221 14849013 14999660 15161407 15334027 
2317.699 15516055 15704378 15894879 16083332 16266121 16440935 16607042 
2321.074 16764292 16912160 17049224 17172402 17278584 17365722 17434388 
2324.449 17488922 17536114 17585038 17643488 17717378 17808986 17917498 
2327.824 18038888 18167668 18298252 18425486 18545322 18654882 18752676 
2331.200 18838828 18915100 18984808 19052554 19122492 19198260 19281348 
2334.575 19371730 19467812 19567486 19669020 19771028 19872714 19972898 
2337.950 20069876 20161568 20245568 20320214 20385112 20440540 20487568 
2341.325 20526298 20555096 20569444 20562600 20524248 20443388 20309590 
2344.701 20115580 19860680 19553900 19216028 18877378 18574438 18346362 
2348.076 18225406 18234080 18382138 18664984 19064636 19552132 20094862 
2351.451 20659154 21216040 21746574 22239984 22692898 23106166 23481354 
2354.826 23820286 24124106 24394912 24635552 24849168 25038704 25205604 
2358.202 25349840 25470690 25568588 25645382 25705388 25752602 25790540 
2361.577 25820182 25840226 25847926 25841106 25819372 25784844 25740930 
2364.952 25690728 25636244 25577234 25511834 25438402 25355392 25263126 
2368.327 25162590 25055130 24941136 24820012 24690786 24552518 24405532 
2371.703 24251062 24090974 23927686 23762222 23595388 23427392 23258656 
2375.078 23090546 22925366 22765834 22614390 22473220 22342878 22223662 
2378.453 22115880 22020188 21937794 21870640 21820326 21787996 21773746 
2381.828 21776602 21795206 21827956 21873218 21929288 21994708 22067978 
2385.204 22147332 22231822 22320308 22412336 22507454 22604894 22703126 
2388.579 22800298 22893860 22982200 23064618 23141950 23215766 23288196 
2391.954 23360462 23432846 23504192 23572716 23636740 23695802 23749902 
2395.329 23800300 23848326 23895302 23941692 23987838 24033538 24078960 
2398.705 24124492 24170556 24217672 24266338 24316376 24368276 24422216 
2402.080 24479176 24539686 24604448 24673356 24745574 24819802 24894710 
2405.455 24969422 25044038 25119408 25196720 25277452 25362450 25452246 
2408.830 25546872 25646156 25749614 25856544 25966206 26077200 26188678 
2412.206 26299658 26410524 26521736 26634562 26749956 26867740 26986720 
2415.581 27104570 27218606 27327202 27430072 27528556 27625400 27723538 
2418.956 27824984 27930516 28039680 28151028 28263358 28375790 28488354 
2422.331 28601552 28716158 28832742 28951448 29072666 29196080 29322222 
2425.707 29451380 29583732 29719320 29857858 29999600 30144160 30292286 
2429.082 30444444 30601346 30762748 30928378 31096844 31267408 31439248 
2432.457 31612546 31787838 31965982 32147270 32331486 32517496 32704088 
2435.832 32890044 33075362 33260726 33447706 33638064 33833408 34035148 
2439.208 34244440 34461976 34688560 34924376 35168804 35420700 35678248 
2442.583 35939084 36201476 36464388 36727424 36990872 37254984 37519512 
2445.958 37783656 38046116 38306532 38564748 38821848 39078812 39336144 
2449.333 39593412 39848144 40097652 40339040 40570424 40791840 41004124 
2452.708 41208788 41406840 41598132 41781656 41955740 42118976 42270984 
2456.084 42412124 42543336 42665704 42780096 42886768 42985964 43077428 
2459.459 43161588 43238340 43307488 43368228 43419708 43461272 43493060 
2462.834 43516392 43532872 43544412 43551956 43554812 43550748 43537008 
2466.209 43510896 43470868 43417288 43351568 43275712 43191636 43099896 
2469.585 43000744 42894192 42779588 42657004 42527184 42390244 42246076 
2472.960 42094440 41935012 41768380 41596412 41422076 41248936 41079512 
2476.335 40915608 40756900 40601456 40447040 40291236 40132860 39972008 
2479.710 39809576 39647136 39485480 39325480 39167496 39011492 38857868 
2483.086 38706860 38558376 38412180 38267484 38123672 37980084 37837300 
2486.461 37696120 37558164 37424768 37297044 37174956 37058060 36945344 
2489.836 36835900 36729012 36624560 36521656 36419996 36318104 36215272 
2493.211 36110512 36003656 35895140 35785888 35676488 35567472 35458344 
2496.587 35348056 35235172 35118544 34997028 34869872 34736796 34597732 
2499.962 34452544 34301952 34147220 33989748 33831296 33673044 33515670 
2503.337 33358640 33200848 33041254 32879320 32715414 32550924 32387674 
2506.712 32227378 32070636 31917658 31767658 31620100 31474478 31330936 
2510.088 31189362 31050006 30912154 30775162 30638500 30502306 30367826 
2513.463 30237258 30112944 29997258 29891044 29793798 29704274 29621048 
2516.838 29543334 29470882 29404790 29346008 29295140 29251934 29215182 
2520.213 29183428 29155362 29130098 29107210 29086838 29068768 29052508 
2523.589 29037346 29022290 29006988 28991402 28975746 28960586 28945746 
2526.964 28930482 28913836 28894782 28872650 28848180 28822084 28795706 
2530.339 28769898 28744584 28719202 28692300 28662532 28628908 28591288 
2533.714 28550240 28506682 28461926 28417458 28374444 28333982 28296988 
2537.090 28263996 28234894 28209080 28186064 28165310 28146962 28131478 
2540.465 28119918 28113096 28111470 28114544 28120872 28128826 28136852 
2543.840 28143886 28149330 28153150 28155162 28155340 28153360 28149330 
2547.215 28143532 28137804 28133706 28133280 28137594 28145690 28155730 
2550.591 28164602 28169412 28168422 28161350 28149650 28135544 28121402 
2553.966 28108676 28097790 28088388 28079444 28069900 28059332 28047738 
2557.341 28035546 28023458 28011972 28001864 27993454 27986738 27981366 
2560.716 27976562 27971118 27964226 27954970 27943838 27932072 27921472 
2564.092 27914228 27911932 27915216 27923768 27936666 27952918 27971824 
2567.467 27993242 28017590 28045124 28075450 28107828 28140670 28172912 
2570.842 28204094 28234928 28267248 28303108 28344592 28393334 28449616 
2574.217 28512626 28581698 28655452 28732830 28813268 28896164 28981376 
2577.593 29068484 29157310 29247042 29337180 29427090 29515776 29602852 
2580.968 29687812 29770664 29851682 29931654 30011246 30090890 30170194 
2584.343 30248554 30324724 30397532 30466442 30531452 30593024 30652332 
2587.718 30710614 30768688 30827378 30887000 30947554 31009010 31070968 
2591.094 31133080 31194880 31255834 31316120 31376130 31437072 31500164 
2594.469 31566754 31637668 31712588 31790510 31870376 31951324 32033108 
2597.844 32116834 32203502 32294258 32389604 32488894 32591424 32696012 
2601.219 32802380 32910738 33022340 33138082 33258472 33382758 33509266 
2604.594 33635736 33760308 33881944 34000568 34117292 34233040 34349284 
2607.970 34466032 34583556 34701300 34819108 34936588 35054100 35171536 
2611.345 35288712 35405316 35520800 35634872 35747176 35857996 35967480 
2614.720 36075768 36183076 36289108 36393620 36496568 36598212 36698868 
2618.095 36799116 36899240 36999784 37100712 37201988 37303944 37406568 
2621.471 37509796 37613480 37716720 37818612 37918176 38014764 38108804 
2624.846 38200944 38292672 38385504 38480384 38577820 38677268 38778336 
2628.221 38880152 38982312 39084576 39186932 39289460 39391792 39493932 
2631.596 39595556 39696796 39797668 39898524 39999728 40101068 40202428 
2634.972 40303376 40403260 40502036 40599380 40695216 40789548 40882152 
2638.347 40972660 41061008 41147584 41232580 41317476 41403304 41490680 
2641.722 41579680 41669968 41760644 41850940 41940484 42029644 42118608 
2645.097 42208468 42299036 42390096 42480704 42569760 42656236 42740024 
2648.473 42821420 42901616 42982048 43063816 43148016 43235192 43325392 
2651.848 43418208 43513496 43610936 43710368 43812024 43916272 44023776 
2655.223 44134820 44249824 44368636 44490640 44615060 44740364 44866400 
2658.598 44992768 45119944 45249144 45381804 45519028 45661964 45810988 
2661.974 45966396 46127904 46294892 46466736 46642408 46820920 47001316 
2665.349 47182640 47364552 47547468 47731864 47918520 48107964 48300112 
2668.724 48494204 48689456 48885128 49081112 49277892 49476948 49679180 
2672.099 49885668 50096200 50310180 50526348 50743888 50962364 51182100 
2675.475 51404000 51628964 51857700 52090404 52327080 52567556 52811572 
2678.850 53059500 53311956 53569244 53831936 54100264 54374204 54653844 
2682.225 54939412 55230852 55528436 55831912 56140656 56454036 56771300 
2685.600 57091672 57414776 57740124 58067312 58395612 58723824 59050648 
2688.976 59375100 59696028 60013464 60327140 60637420 60944032 61246704 
2692.351 61544964 61838584 62127580 62412524 62694020 62972516 63247896 
2695.726 63519196 63785100 64044020 64295264 64538836 64775520 65006248 
2699.101 65232396 65454432 65672180 65885456 66093900 66297844 66498140 
2702.477 66696444 66894448 67094244 67297264 67504760 67717504 67936200 
2705.852 68161016 68391880 68628224 68869472 69114544 69362632 69613280 
2709.227 69865696 70119432 70373512 70626456 70876384 71121344 71359328 
2712.602 71588536 71807520 72015304 72210616 72392208 72558528 72708688 
2715.978 72841936 72958288 73058608 73143288 73213056 73267608 73306208 
2719.353 73328176 73333200 73321664 73294752 73254632 73203096 73142160 
2722.728 73072992 72996272 72912744 72823288 72728864 72631056 72531352 
2726.103 72431160 72331624 72233704 72138512 72047296 71961136 71880976 
2729.479 71806968 71738840 71675720 71617064 71562168 71511928 71467240 
2732.854 71429784 71400688 71380688 71369368 71365616 71367848 71374712 
2736.229 71384640 71396432 71408856 71420568 71430448 71437912 71442864 
2739.604 71446072 71448888 71452200 71456816 71461968 71466184 71467712 
2742.979 71464272 71454664 71438416 71415376 71386240 71351248 71310440 
2746.355 71264016 71212248 71156080 71096792 71035712 70974144 70912936 
2749.730 70852040 70791192 70730048 70668400 70606296 70543656 70480592 
2753.105 70416416 70350600 70282264 70211064 70136912 70059976 69980208 
2756.480 69896944 69808880 69713640 69609304 69494280 69368000 69231424 
2759.856 69085520 68931792 68771016 68603000 68427136 68242664 68049384 
2763.231 67847680 67638544 67423488 67204272 66982312 66759416 66538184 
2766.606 66321740 66114076 65919356 65741220 65582192 65443264 65323972 
2769.981 65223000 65139032 65070712 65017292 64978348 64953260 64940484 
2773.357 64938100 64943328 64952908 64964144 64973956 64980156 64980812 
2776.732 64974384 64959644 64935944 64903080 64860760 64809440 64749552 
2780.107 64681560 64606504 64525268 64439364 64350432 64260140 64169832 
2783.482 64080192 63991456 63903196 63814916 63726076 63636304 63545464 
2786.858 63453004 63357720 63257208 63148864 63029060 62894688 62743708 
2790.233 62574760 62387660 62183172 61962916 61728988 61484040 61231556 
2793.608 60975564 60720292 60469664 60227668 59996728 59778720 59574772 
2796.983 59385620 59211704 59053416 58911056 58784176 58671860 58572464 
2800.359 58483480 58402700 58327924 58256872 58187536 58118100 58045988 
2803.734 57968848 57883812 57788568 57681392 57561076 57427596 57281224 
2807.109 57122664 56952780 56772360 56582236 56383064 56175464 55960192 
2810.484 55737536 55508516 55274164 55036436 54797936 54561936 54331848 
2813.860 54111144 53902828 53709152 53531496 53370884 53228272 53104956 
2817.235 53002072 52920844 52862460 52827096 52814600 52823916 52853556 
2820.610 52902132 52967368 53047332 53139368 53240332 53346796 53455080 
2823.985 53561520 53662964 53756964 53841608 53916220 53979960 54032752 
2827.361 54074932 54106868 54129048 54141512 54144660 54138132 54122032 
2830.736 54096212 54061196 54017968 53967952 53912880 53854404 53793976 
2834.111 53732740 53671508 53611488 53553840 53499940 53451596 53410080 
2837.486 53376916 53353276 53341176 53342976 53362492 53403932 53472320 
2840.862 53572544 53708968 53884936 54103828 54368156 54681308 55047192 
2844.237 55470228 55954764 56503848 57118088 57793792 58521768 59286860 
2847.612 60065552 60827764 61538556 62158052 62649040 62979564 63126720 
2850.987 63081892 62850340 62451812 61914580 61274252 60568732 59831536 
2854.363 59092788 58376472 57698460 57069076 56493092 55970484 55498352 
2857.738 55071828 54685632 54334176 54012864 53717968 53445976 53193932 
2861.113 52959360 52739620 52533192 52338708 52155968 51984808 51825628 
2864.488 51678556 51543144 51419180 51306108 51204092 51113400 51034688 
2867.864 50968396 50914560 50872612 50841472 50819680 50805936 50799008 
2871.239 50797596 50799976 50804448 50808396 50809924 50807428 50801468 
2874.614 50793872 50788024 50788432 50798860 50822252 50860244 50912808 
2877.989 50979204 51058388 51149448 51251856 51365584 51490648 51627244 
2881.365 51775344 51934804 52105648 52287468 52479644 52681260 52890868 
2884.740 53106640 53326528 53548328 53770056 53989228 54203708 54410632 
2888.115 54607172 54790684 54958888 55110196 55244324 55361552 55462772 
2891.490 55548916 55621148 55680544 55727892 55764512 55791976 55811868 
2894.865 55825392 55833648 55836848 55834588 55826564 55812020 55790580 
2898.241 55761608 55724540 55678280 55621676 55553776 55474292 55383908 
2901.616 55284736 55179680 55072204 54965996 54864212 54769820 54685444 
2904.991 54614012 54558744 54523388 54511560 54526884 54573056 54653312 
2908.366 54771588 54932304 55140064 55400016 55716816 56093828 56532640 
2911.742 57032464 57589448 58196556 58843208 59515868 60196612 60864208 
2915.117 61497056 62071808 62567560 62968076 63261620 63442072 63508728 
2918.492 63464508 63315132 63067408 62730192 62312460 61824564 61277572 
2921.867 60683100 60053184 59400244 58735540 58070340 57415308 56779344 
2925.243 56170636 55595128 55056408 54556040 54093172 53665624 53269852 
2928.618 52902132 52558956 52237424 51934952 51649972 51381064 51127376 
2931.993 50888184 50662492 50449228 50246600 50052472 49865004 49682488 
2935.368 49504168 49330412 49162292 49001804 48850868 48710916 48583500 
2938.744 48469124 48368556 48282452 48211320 48155048 48113108 48083460 
2942.119 48062956 48047708 48033680 48016952 47994560 47964476 47925144 
2945.494 47875976 47816860 47748468 47672696 47592532 47512716 47438092 
2948.869 47374012 47324720 47292428 47277464 47278132 47291508 47313488 
2952.245 47340648 47369616 47397700 47422940 47444376 47461488 47474312 
2955.620 47483964 47491352 47497932 47505064 47513792 47525212 47540036 
2958.995 47558744 47581292 47607320 47635420 47664116 47691260 47715480 
2962.370 47736264 47754276 47771884 47792632 47820412 47859144 47911564 
2965.746 47980016 48065840 48169524 48291192 48430564 48585872 48754216 
2969.121 48931116 49110496 49285016 49447428 49590552 49708568 49797000 
2972.496 49853336 49876264 49866416 49825352 49755900 49661276 49545464 
2975.871 49412044 49264084 49104044 48933488 48753288 48564232 48367220 
2979.247 48163268 47954264 47742592 47531092 47323392 47122768 46932576 
2982.622 46755712 46593788 46447668 46316676 46199244 46092568 45993688 
2985.997 45899252 45805868 45710740 45611392 45505488 45391364 45267308 
2989.372 45131596 44982000 44815664 44629236 44419500 44184124 43922544 
2992.748 43636832 43331800 43014864 42694180 42377276 42069764 41774432 
2996.123 41490896 41216984 40950016 40687720 40429552 40176440 39930740 
2999.498 39695056 39471688 39262188 39067028 38886308 38719284 38565364 
3002.873 38423260 38291660 38168816 38052628 37940776 37831628 37723732 
3006.249 37616480 37509796 37404292 37300584 37199392 37101468 37007216 
3009.624 36916808 36830132 36746896 36666384 36588300 36512500 36439272 
3012.999 36369336 36303408 36242100 36184944 36130640 36076992 36021620 
3016.374 35962368 35898236 35829716 35757900 35684868 35612248 35541188 
3019.750 35471540 35402872 35334396 35265788 35197368 35130000 35064876 
3023.125 35002484 34942476 34883228 34822192 34755640 34680088 34592604 
3026.500 34491176 34375428 34246200 34105572 33956496 33801960 33644972 
3029.875 33488218 33333742 33182714 33036426 32895226 32759144 32628462 
3033.250 32502570 32380998 32263566 32149944 32040312 31935454 31836220 
3036.626 31743276 31656664 31575840 31499096 31424214 31349026 31271216 
3040.001 31189576 31103216 31011714 30914644 30811336 30700868 30582360 
3043.376 30455106 30318862 30174528 30023176 29866342 29705870 29543370 
3046.751 29380432 29219328 29061968 28910472 28766746 28631880 28506082 
3050.127 28388488 28277398 28171180 28068486 27968432 27871052 27776696 
3053.502 27685608 27597470 27512212 27429296 27348482 27269972 27194406 
3056.877 27122486 27054810 26991446 26931510 26874296 26818678 26763946 
3060.252 26710278 26658132 26608422 26562136 26519764 26481270 26446196 
3063.628 26413658 26382954 26353170 26323772 26294448 26264984 26235170 
3067.003 26205394 26175552 26145778 26116046 26086136 26055808 26024320 
3070.378 25991358 25956112 25918054 25876694 25831610 25782560 25729504 
3073.753 25672730 25612766 25550736 25487696 25425156 25363926 25304144 
3077.129 25245776 25188328 25131028 25073420 25015642 24957770 24900780 
3080.504 24844712 24790158 24736944 24685140 24634674 24585792 24539056 
3083.879 24494776 24453060 24413594 24375462 24337542 24298854 24258806 
3087.254 24217462 24175670 24134720 24096052 24060924 24030526 24005102 
3090.630 23984618 23968442 23955872 23945684 23936546 23927336 23916904 
3094.005 23904824 23890962 23876260 23861558 23848430 23838138 23831558 
3097.380 23829248 23830858 23835932 23843528 23852350 23861382 23869432 
3100.755 23875490 23879164 23880460 23879866 23877870 23875664 23873668 
3104.131 23872198 23871184 23870168 23868418 23865898 23862326 23858336 
3107.506 23854590 23851896 23850460 23850706 23851650 23852910 23853330 
3110.881 23852840 23851474 23849866 23849200 23850494 23854452 23861136 
3114.256 23869678 23878674 23886410 23891452 23893098 23891138 23886482 
3117.632 23880390 23874264 23869292 23865862 23863832 23862572 23861312 
3121.007 23858930 23855010 23848920 23840798 23830824 23819202 23806426 
3124.382 23792706 23778322 23763588 23748714 23733910 23719598 23706300 
3127.757 23694788 23685726 23679846 23677256 23677502 23679776 23682576 
3131.133 23684324 23683452 23679322 23671974 23662212 23651470 23641288 
3134.508 23633032 23627782 23625790 23627084 23631072 23636844 23643806 
3137.883 23650908 23657348 23662666 23666828 23669628 23671834 23674002 
3141.258 23676836 23680756 23685514 23690694 23695874 23700350 23704062 
3144.634 23707350 23710814 23715294 23720996 23728172 23736324 23744900 
3148.009 23753508 23761732 23769922 23778600 23788470 23799706 23812308 
3151.384 23825398 23838348 23849970 23859666 23867438 23873844 23879620 
3154.759 23885710 23892782 23901046 23910462 23920650 23931572 23943092 
3158.135 23955276 23968476 23982868 23998308 24014628 24031506 24048700 
3161.510 24066632 24086070 24108134 24133880 24164040 24198510 24236242 
3164.885 24275694 24314904 24351946 24385940 24416224 24443564 24468836 
3168.260 24493024 24517318 24542350 24568682 24596768 24626890 24659188 
3171.635 24693662 24730350 24768970 24808926 24849766 24890466 24930504 
3175.011 24969350 25006588 25041758 25074860 25105928 25135206 25163082 
3178.386 25190260 25217296 25244440 25271764 25298982 25325500 25350542 
3181.761 25373728 25394452 25412298 25427546 25440088 25450276 25458814 
3185.136 25466228 25473114 25480178 25487766 25495988 25504528 25513312 
3188.512 25522096 25531128 25540826 25551648 25563772 25576742 25589464 
3191.887 25600604 25609144 25614522 25617406 25619514 25622784 25629460 
3195.262 25640778 25656806 25676526 25698320 25720610 25742442 25763290 
3198.637 25784000 25805098 25827146 25850002 25873248 25895792 25916894 
3202.013 25936204 25953684 25970356 25987170 26005288 26025446 26048278 
3205.388 26073682 26101478 26131000 26161476 26192198 26222712 26252664 
3208.763 26282374 26312296 26343206 26375738 26410278 26446758 26484686 
3212.138 26523392 26562136 26600496 26638332 26675748 26713272 26751014 
3215.514 26789318 26828510 26868058 26907892 26947480 26986474 27024554 
3218.889 27061686 27098080 27134302 27171054 27209294 27249758 27292976 
3222.264 27338952 27387264 27437168 27487748 27538580 27589350 27639984 
3225.639 27690764 27741974 27793756 27846216 27899460 27953238 28007130 
3229.015 28060994 28114402 28166936 28218414 28268698 28317784 28366062 
3232.390 28413604 28460760 28507070 28552186 28595676 28637472 28677646 
3235.765 28717150 28757010 28798326 28841806 28887452 28935192 28984600 
3239.140 29035256 29087404 29140906 29195938 29251544 29306730 29359728 
3242.516 29408972 29453684 29494252 29532198 29570112 29610442 29654890 
3245.891 29703886 29757036 29812644 29869358 29926116 29982808 30039758 
3249.266 30097746 30157018 30217932 30280064 30343022 30406204 30469356 
3252.641 30532306 30594980 30657272 30718864 30779466 30838974 30897638 
3256.017 30955952 31014454 31073672 31133864 31194524 31255014 31314306 
3259.392 31371572 31425818 31476580 31523500 31566578 31606488 31643942 
3262.767 31680044 31716436 31754150 31794112 31836860 31882036 31929034 
3266.142 31977360 32026544 32076486 32127146 32178882 32231410 32284264 
3269.518 32336556 32387316 32435584 32480504 32521856 32559208 32592352 
3272.893 32621068 32645430 32665648 32682330 32696870 32710622 32725416 
3276.268 32742280 32762002 32784514 32809098 32834542 32859952 32884038 
3279.643 32906518 32926820 32945372 32962746 32979798 32997634 33016942 
3283.019 33038144 33060990 33084228 33106972 33127926 33146306 33162080 
3286.394 33176136 33189476 33203494 33218768 33235472 33253108 33270884 
3289.769 33287984 33303690 33318072 33331022 33343006 33354490 33365798 
3293.144 33377536 33390022 33403620 33418182 33433430 33448424 33462380 
3296.520 33474226 33484030 33492156 33499636 33507798 33517890 33530418 
3299.895 33545736 33563388 33582712 33603336 33625028 33647692 33671180 
3303.270 33695244 33719092 33742440 33764788 33786060 33806332 33826316 
3306.645 33845980 33865612 33884920 33903616 33921636 33939412 33957860 
3310.021 33978248 34001608 34028520 34058692 34091808 34127148 34164248 
3313.396 34203032 34244044 34287864 34334872 34385472 34439916 34498136 
3316.771 34560384 34626944 34698104 34773408 34851884 34931884 35011320 
3320.146 35088260 35161904 35232224 35300360 35368148 35437276 35508860 
3323.521 35583300 35659976 35737932 35816224 35894312 35971732 36049128 
3326.897 36126572 36204216 36281688 36358348 36432712 36502948 36567356 
3330.272 36624996 36675468 36719924 36760128 36799008 36838644 36881024 
3333.647 36926112 36972400 37017140 37057444 37090824 37116124 37133988 
3337.022 37146080 37154128 37160408 37165788 37170584 37174416 37176432 
3340.398 37176000 37172464 37165248 37153912 37138068 37117604 37092520 
3343.773 37063832 37032404 36999460 36965616 36931092 36895196 36856856 
3347.148 36815232 36769828 36720464 36667860 36612596 36555028 36495348 
3350.523 36433400 36368864 36301860 36232812 36162116 36090492 36018276 
3353.899 35945600 35871996 35797440 35722028 35646236 35570712 35496348 
3357.274 35423288 35351648 35280916 35210376 35139596 35068432 34997060 
3360.649 34925816 34854756 34783816 34712428 34639896 34565404 34488736 
3364.024 34409644 34328092 34244836 34160304 34075072 33990036 33905768 
3367.400 33822664 33741152 33660764 33580996 33500854 33419580 33336424 
3370.775 33251424 33164654 33076220 32987018 32896832 32805986 32714840 
3374.150 32623928 32533958 32445834 32360114 32277164 32196332 32116584 
3377.525 32036356 31954854 31871158 31785664 31698756 31611226 31523320 
3380.901 31435222 31346142 31255550 31162662 31067160 30969010 30868928 
3384.276 30767338 30665346 30563554 30462924 30364130 30267880 30174636 
3387.651 30084678 29997932 29913868 29831346 29749444 29666918 29582880 
3391.026 29496804 29408476 29318572 29227974 29137786 29049212 28962924 
3394.402 28878812 28796024 28713080 28628838 28541960 28452338 28360686 
3397.777 28268204 28176128 28085348 27996208 27907902 27820074 27732086 
3401.152 27644080 27556798 27471018 27387476 27305996 27225730 27145554 
3404.527 27063978 26980268 26894494 26807012 26718418 26629102 26538784 
3407.903 26446548 26351972 26254706 26155244 26054718 25954318 25854996 
3411.278 25756716 25658458 25558996 25456706 25350930 25242124 25131624 
3414.653 25021504 24914152 24811032 24713550 24621490 24533586 24448190 
3418.028 24363124 24276570 24186740 24093318 23996594 23897718 23798692 
3421.404 23700980 23605706 23512902 23421342 23329486 23235690 23138946 
3424.779 23039462 22938254 22837140 22737552 22640742 22546540 22454308 
3428.154 22362134 22268722 22172856 22074358 21973514 21871338 21769216 
3431.529 21668410 21569960 21474524 21381896 21291652 21202680 21114004 
3434.905 21024306 20932780 20839362 20744436 20648974 20554332 20461412 
3438.280 20370770 20282022 20194402 20106418 20016788 19925094 19831822 
3441.655 19738052 19645862 19556672 19471694 19389676 19308540 19224546 
3445.030 19133988 19034034 18923752 18805092 18681726 18558670 18440868 
3448.406 18331536 18230900 18137404 18047592 17957522 17864154 17766390 
3451.781 17664334 17559678 17454360 17350478 17249004 17150274 17054116 
3455.156 16959564 16866240 16773384 16680513 16587386 16493728 16399231 
3458.531 16303789 16207235 16109705 16011165 15911479 15811266 15710767 
3461.906 15611288 15513926 15420122 15330457 15245374 15163603 15083494 
3465.282 15002953 14920507 14835128 14747092 14657668 14568400 14480418 
3468.657 14394406 14309986 14226234 14142292 14057408 13971617 13885226 
3472.032 13798614 13712566 13626775 13541137 13454832 13367485 13279028 
3475.407 13189463 13099574 13010080 12921935 12836060 12752694 12671834 
3478.783 12592967 12515001 12436640 12357236 12276075 12193395 12110151 
3482.158 12027980 11948788 11873662 11803008 11736111 11671470 11606840 
3485.533 11540008 11469442 11394263 11314710 11231907 11147657 11063866 
3488.908 10982301 10904046 10829643 10758583 10690013 10622438 10554840 
3492.284 10486234 10416146 10344712 10272339 10199300 10125426 10050580 
3495.659 9974459 9896691 9817717 9738858 9661539 9587857 9519268 9456752 
3499.516 9399966 9347555 9297115 9245461 9189786 9127115 9056197 8977205 
3503.374 8892005 8804287 8718885 8640293 8572090 8515420 8468860 8428859 
3507.231 8390516 8348462 8298812 8239882 8172248 8098853 8024018 7952065 
3511.089 7886164 7828098 7778104 7734591 7695399 7657762 7619083 7577305 
3514.946 7531014 7479840 7424155 7365410 7305192 7245385 7187844 7133981 
3518.803 7084875 7040926 7002033 6967351 6935500 6904494 6871571 6834880 
3522.661 6792471 6744009 6690168 6632801 6574096 6515736 6458863 6403578 
3526.518 6348939 6294307 6238606 6181601 6123461 6063952 6003476 5941967 
3530.376 5879594 5817062 5755412 5696558 5642108 5592767 5548029 5506349 
3534.233 5464741 5420385 5371237 5316392 5256959 5195054 5133391 5074118 
3538.091 5018640 4968029 4922183 4881166 4845146 4813954 4787520 4764974 
3541.948 4745009 4725714 4705014 4680765 4651191 4614855 4570955 4519157 
3545.805 4459465 4393255 4322469 4250458 4180699 4116538 4060681 4013693 
3549.663 3974869 3941799 3911240 3879947 3845179 3805368 3760847 3712220 
3553.520 3661761 3610907 3561529 3514729 3471373 3431863 3396063 3364073 
3557.378 3335090 3308546 3283473 3258568 3233397 3207193 3180357 3153989 
3561.235 3129993 3110804 3099190 3097155 3105864 3124587 3150785 3179055 
3565.093 3202821 3213769 3204656 3169743 3108000 3022743 2921591 2814426 
3568.950 2711055 2618142 2539580 2475628 2424046 2381399 2344086 2309309 
3572.807 2275799 2243125 2212019 2183313 2157339 2134163 2113486 2094807 
3576.665 2078227 2063845 2051694 2041540 2032119 2021899 2009483 1993938 
3580.522 1975797 1957024 1940649 1929999 1928202 1936922 1956259 1984351 
3584.380 2018470 2054357 2086051 2107393 2111522 2092843 2048964 1981821 
3588.237 1898715 1809636 1726396 1658340 1610979 1585471 1579219 1587267 
3592.094 1602964 1620058 1633428 1638849 1633927 1617963 1591590 1557438 
3595.952 1518999 1480896 1447650 1421787 1404368 1393598 1386019 1377410 
3599.809 1364114 1344537 1319311 1290730 1262517 1237628 1218422 1206394 
3603.667 1202640 1207557 1222011 1245204 1275045 1307314 1335298 1352282 
3607.524 1352016 1332572 1296480 1250953 1204832 1166425 1140013 1125895 
3611.382 1119782 1115862 1109019 1096064 1077496 1057267 1040959 1034217 
3615.239 1040727 1061120 1092775 1130147 1165229 1189482 1195862 1180412 
3619.096 1144166 1093672 1038202 988252 950561 929642 925258 935685 958431 
3623.436 992835 1039830 1101877 1181475 1279531 1393232 1515541 1633561 
3627.293 1730322 1788309 1793399 1743296 1649825 1537320 1431959 1352614 
3631.151 1308112 1296679 1310604 1338954 1372025 1402506 1427571 1448182 
3635.008 1468429 1492267 1522357 1558502 1599106 1641909 1685814 1731453 
3638.866 1780790 1835989 1897717 1965279 2036014 2107626 2179450 2253683 
3642.723 2335359 2430044 2542546 2674647 2824097 2985009 3149484 3309046 
3646.581 3454774 3579302 3675462 3735814 3754096 3726423 3654109 3545962 
3650.438 3418672 3293388 3188401 3117879 3086176 3089346 3117278 3156392 
3654.295 3192073 3209830 3199549 3157527 3087444 3000356 2911217 2833736 
3658.153 2776843 2742964 2728093 2724625 2723025 2715056 2696185 2666480 
3662.010 2629842 2591775 2557278 2529448 2509019 2496589 2494089 2505953 
3665.868 2539180 2600042 2692717 2816760 2969462 3147915 3355958 3607332 
3669.725 3928592 4354363 4914073 5630561 6515972 7576429 8816933 10236039 
3673.583 11814039 13477799 15078725 16399885 17186122 17255794 16571276 
3676.958 15239266 13448168 11399502 9281239 7240028 5393378 3828499 2584342 
3680.815 1657242 1003064 559364 259914 51891 -95680 -198096 -260752 -286713 
3685.155 -282839 -259825 -229922 -204985 -193857 -200679 -227107 -271912 
3689.012 -333167 -407754 -491960 -580749 -668130 -748945 -819459 -877364 
3692.870 -922729 -956519 -979926 -993612 -998306 -995199 -986108 -973711 
3696.727 -960586 -947857 -934764 -919489 -899749 -875909 -851174 -831960 
3700.584 -826305 -840327 -875512 -927226 -986207 -1041709 -1084348 -1109334 
3704.442 -1115448 -1104806 -1079820 -1042833 -995100 -937707 -872205 -801832 
3708.299 -731182 -666311 -612911 -576811 -562020 -571914 -607849 -668726 
3712.157 -750301 -844923 -941807 -1030239 -1101567 -1150247 -1175230 
3715.532 -1178633 -1165118 -1139507 -1105831 -1067161 -1024818 -979926 
3718.907 -933839 -889003 -848230 -814399 -788966 -771403 -759959 -751426 
3722.765 -743289 -734027 -724103 -715370 -710210 -711500 -720828 -738625 
3726.622 -763135 -790157 -813936 -827727 -825445 -803584 -761977 -704090 
3730.479 -636336 -567314 -504801 -452938 -412256 -380112 -354124 -335783 
3734.337 -331114 -349820 -400637 -485539 -597393 -720332 -836458 -931789 
3738.194 -998934 -1037313 -1049907 -1039726 -1007496 -952122 -872734 -771337 
3742.052 -656551 -545011 -459425 -424438 -455420 -547095 -671273 -789594 
3745.909 -872304 -906032 -894261 -849355 -788437 -726783 -676963 -647453 
3749.767 -642622 -663565 -710342 -780962 -871577 -974140 -1077440 -1168356 
3753.624 -1236259 -1275838 -1287467 -1276070 -1249177 -1214485 -1179096 
3756.999 -1147604 -1124371 -1112804 -1115845 -1135905 -1173016 -1222943 
3760.375 -1277457 -1325655 -1357564 -1366449 -1351684 -1318487 -1276202 
3763.750 -1235333 -1204936 -1190099 -1190628 -1200905 -1213031 -1220168 
3767.125 -1218251 -1207810 -1193206 -1180979 -1178072 -1189141 -1214980 
3770.500 -1252481 -1295363 -1335994 -1368332 -1389041 -1397661 -1396274 
3773.875 -1388017 -1375896 -1360801 -1342337 -1318487 -1287831 -1251027 
3777.251 -1211412 -1175230 -1149983 -1142085 -1153585 -1181806 -1218714 
3780.626 -1255454 -1283701 -1299096 -1301871 -1295099 -1283635 -1271841 
3784.001 -1262624 -1257205 -1255619 -1257172 -1261335 -1268306 -1278184 
3787.376 -1290474 -1303820 -1316571 -1326944 -1333616 -1336622 -1336490 
3790.752 -1334244 -1329751 -1322418 -1310526 -1292687 -1268273 -1238637 
3794.127 -1206951 -1177411 -1154378 -1140234 -1133559 -1129758 -1121265 
3797.502 -1100675 -1062864 -1007463 -939360 -869295 -811191 -780135 -787511 
3801.360 -834705 -910165 -993711 -1064219 -1105930 -1113895 -1092677 
3804.735 -1054435 -1014637 -988852 -989281 -1019727 -1074763 -1141060 
3808.110 -1204407 -1253703 -1284098 -1296552 -1293777 -1278647 -1252150 
3811.485 -1212965 -1158971 -1088843 -1004521 -912050 -820881 -743983 -693504 
3815.343 -676599 -691685 -726948 -764821 -787511 -784567 -754072 -703462 
3819.200 -645799 -598055 -577639 -595639 -652812 -738062 -832225 -915753 
3823.058 -974802 -1005215 -1009877 -996356 -973512 -950304 -932648 -923159 
3826.915 -920547 -921076 -919985 -913438 -899320 -877893 -851339 -822865 
3830.772 -796143 -774016 -757479 -745339 -734060 -719340 -697110 -664822 
3834.630 -622672 -573767 -524493 -482130 -454361 -446880 -461047 -494442 
3838.487 -540874 -592529 -642722 -687086 -724004 -754138 -779606 -803221 
3842.345 -828289 -857258 -891781 -931557 -974603 -1016554 -1052188 -1076349 
3846.202 -1085042 -1075887 -1048816 -1004521 -944022 -866947 -772330 -658933 
3850.060 -526809 -380510 -230121 -93030 6030 41088 -5897 -133807 -318798 
3854.399 -522573 -708589 -855836 -958900 -1022835 -1056881 -1070168 -1069078 
3858.257 -1057509 -1037578 -1010670 -978636 -943129 -906296 -869560 -834176 
3862.114 -800939 -771536 -748846 -736309 -736673 -749276 -769055 -786849 
3865.971 -791447 -774909 -735151 -677526 -613440 -559604 -532038 -540510 
3869.829 -583959 -649041 -717521 -772263 -804775 -817012 -818004 -819459 
3873.686 -830769 -856200 -892706 -932086 -963594 -978934 -974074 -950171 
3877.544 -911355 -864699 -818401 -779771 -754700 -745703 -751227 -765450 
3881.401 -779771 -786056 -778481 -755725 -722119 -686888 -662241 -658470 
3885.259 -681859 -729429 -789627 -845552 -882291 -891516 -873032 -833349 
3889.116 -783575 -737004 -704917 -694794 -708589 -742296 -787709 -835267 
3892.973 -877463 -908512 -925474 -927127 -912909 -883845 -840988 -786783 
3896.831 -724930 -659165 -594514 -535347 -485605 -447840 -423346 -411197 
3900.688 -409740 -416924 -430462 -449297 -472929 -502253 -537995 -580385 
3904.546 -629024 -681396 -734754 -785295 -829744 -865988 -892508 -909338 
3908.403 -916679 -915852 -908115 -895418 -879579 -862119 -844295 -826536 
3912.260 -808545 -789627 -768857 -745703 -720729 -695721 -673225 -656088 
3916.118 -646526 -645104 -651423 -662705 -676500 -690362 -702271 -711169 
3919.975 -715833 -715271 -708887 -696515 -679014 -659032 -640836 -628826 
3923.833 -626874 -636601 -656650 -683017 -709780 -731844 -745075 -747919 
3927.690 -740940 -726121 -705910 -682687 -659065 -637726 -621216 -612845 
3931.548 -614731 -627899 -650993 -680735 -711963 -739518 -759364 -769684 
3935.405 -771238 -766012 -757181 -747258 -737500 -727973 -717653 -705711 
3939.262 -691321 -675475 -659793 -646990 -639678 -639413 -646361 -658801 
3943.120 -673688 -687053 -695324 -696283 -689898 -677823 -663466 -650794 
3946.977 -643582 -643913 -652614 -668263 -687980 -708391 -726617 -740808 
3950.835 -750301 -755560 -757545 -757743 -757346 -757346 -758305 -759959 
3954.692 -761812 -762705 -761415 -756619 -747556 -734325 -717587 -699327 
3958.550 -681859 -667502 -657974 -654632 -657610 -666410 -679742 -695886 
3962.407 -712625 -728238 -740675 -748746 -752021 -750400 -744876 -736342 
3966.264 -726286 -715767 -705380 -695621 -686524 -678055 -670082 -662572 
3970.122 -655294 -648280 -641299 -634682 -628925 -624591 -622572 -623135 
3973.979 -626311 -631307 -636733 -641067 -643152 -642788 -640571 -637196 
3977.837 -634318 -632598 -632333 -632862 -633392 -632862 -631009 -627899 
3981.694 -624293 -620819 -618403 -617245 -617444 -618437 -619727 -620720 
3985.552 -620984 -620091 -617973 -615029 -611885 -609536 -609139 -611058 
3989.409 -615492 -621547 -627370 -630910 -630645 -625517 -615955 -603713 
3993.266 -590841 -580021 -573039 -571186 -574330 -581675 -591966 -603547 
3997.124 -615194 -625683 -634252 -640968 -645732 -648776 -650662 -651357 
##END=
