
##TITLE=Z345_1_c
##JCAMP-DX=5.01  $$ Nicolet v. 1
##DATATYPE=INFRARED SPECTRUM
##ORIGIN=UniL
##OWNER=Nicolet
##LONGDATE=2011/09/14
##TIME=08:59:33
##SPECTROMETER/DATA SYSTEM=Nicolet iS5
##DATA PROCESSING=
Ratio against background
%Transmittance->Absorbance
Truncated
ElementMultiply or ElementDivide
##COMMENTS=
Number of sample scans: 32
Collection length: 51.24 sec
Sample gain: 2.0
Background collected on: Mer Sep 14 08:50:51 2011 (GMT+02:00);
Number of background scans: 32
Background gain: 2.0
Sample spacing:  1.000
Number of scan points: 12415
Resolution points: 8192
Number of FFT points: 65536
Apodization: N-B fort;
Phase correction: Mertz;
Laser frequency: 15798.0 cm-1
Number of rejected sample scans: 0
Number of rejected background scans: 0
Bench serial number: ASB1000141;
##RESOLUTION=4.000
##XUNITS=1/CM
##YUNITS=ABSORBANCE
##FIRSTX=649.893372
##LASTX=4000.122314
##FIRSTY=0.108731
##MAXX=4000.122314
##MINX=649.893372
##MAXY=0.420851
##MINY=-0.002466
##XFACTOR=1.000000
##YFACTOR=1.000000E-009
##NPOINTS=6950
##DELTAX=0.482117
##ZPD=6100
##XYDATA=(X++(Y..Y))
649.893 108731088 109043000 109512272 110160704 110970296 111892256 
652.786 112866696 113855040 114854360 115894016 117014464 118244856 
655.679 119586992 121020008 122516600 124065272 125680504 127398040 
658.571 129254952 131267232 133423656 135693856 138051840 140494832 
661.464 143051648 145766128 148675568 151783632 155059328 158446192 
664.357 161896112 165384496 168896192 172397696 175778768 178792016 
667.250 181085008 182291200 182203280 180888176 178625904 175751248 
670.142 172505088 169014608 165318496 161426000 157373168 153241776 
673.035 149137392 145172288 141420976 137908288 134625008 131548880 
675.928 128668192 125989736 123530832 121302104 119294976 117479568 
678.820 115812976 114253232 112775224 111371296 110047736 108811920 
681.713 107664096 106595480 105592736 104647912 103763112 102949864 
684.606 102222072 101585456 101032256 100540944 100086352 99650000 99225744 
687.981 98820496 98444800 98101032 97775304 97436376 97042776 96558976 
691.355 95963912 95257248 94454656 93579296 92652560 91688088 90696160 
694.730 89688520 88682080 87700744 86769088 85902904 85106312 84369720 
698.105 83678160 83017952 82385184 81787248 81237792 80748288 80322000 
701.480 79950928 79620296 79314336 79022888 78743648 78480024 78235360 
704.855 78008600 77792624 77579088 77363560 77150472 76953712 76791472 
708.229 76681168 76634040 76654560 76745920 76915888 77178768 77553696 
711.604 78052224 78665208 79349016 80026896 80595080 80938832 80968776 
714.979 80633656 79936672 78929904 77705232 76374264 75041048 73799568 
718.354 72718480 71835976 71165992 70700768 70418128 70287840 70278256 
721.729 70360568 70504792 70679744 70847552 70959744 70962592 70803440 
725.104 70438976 69851136 69050912 68080080 66998088 65873808 64772980 
728.478 63742652 62815576 62006944 61318476 60742852 60266764 59874628 
731.853 59548396 59271668 59031592 58819684 58632948 58471992 58337816 
735.228 58229708 58143256 58071664 58008268 57949160 57893996 57845616 
738.603 57807456 57780360 57762264 57748604 57735620 57722716 57713708 
741.978 57715184 57732556 57767680 57816504 57871468 57924096 57970212 
745.352 58011184 58052996 58102384 58163328 58233684 58307236 58375600 
748.727 58432456 58476732 58511232 58541108 58569732 58597380 58622104 
752.102 58642732 58661200 58684564 58721888 58782468 58870528 58984376 
755.477 59117388 59262476 59415328 59576524 59750356 59941800 60153376 
758.852 60383908 60630864 60893556 61176852 61491060 61850808 62268212 
762.227 62751016 63300260 63913332 64588628 65331444 66156136 67090692 
765.601 68177296 69469776 71042664 72983376 75378936 78300504 81762448 
768.976 85690752 89882256 94018072 97695960 100473832 102005064 102107456 
772.351 100821864 98393680 95214216 91725416 88286744 85151576 82433056 
775.726 80127096 78162160 76449016 74922320 73547560 72321408 71253400 
779.101 70351496 69614440 69032424 68592984 68287712 68113256 68067832 
782.475 68146472 68337968 68625080 68991024 69423896 69919872 70481800 
785.850 71114392 71819632 72593928 73430336 74323680 75275488 76297120 
789.225 77407272 78627440 79978808 81479440 83145736 84998304 87064680 
792.600 89379984 91985656 94919168 98205992 101851336 105835136 110107800 
795.975 114586824 119166304 123712528 128071096 132094992 135648672 
798.867 138632912 140998416 142739024 143877648 144442864 144456656 
801.760 143930512 142878736 141345808 139425328 137263728 135067008 
804.653 133059352 131454736 130442936 130148752 130631464 131880000 
807.546 133818832 136308688 139145776 142091728 144862656 147153984 
810.438 148692512 149236144 148614544 146750064 143651328 139415408 
813.331 134207424 128260168 121842048 115221376 108665808 102393928 96562536 
816.706 91274968 86572336 82451800 78881184 75814448 73200152 70985768 
820.081 69123400 67564992 66263296 65176420 64266868 63506304 62877840 
823.455 62372320 61985924 61715544 61555048 61494844 61523476 61628508 
826.830 61799156 62025940 62298156 62602728 62923224 63239312 63531236 
830.205 63781216 63973716 64096972 64140448 64094864 63954292 63719788 
833.580 63403308 63028328 62629520 62246416 61912324 61651688 61473732 
836.955 61373924 61338928 61353008 61403692 61482512 61585364 61710008 
840.329 61853368 62011340 62180112 62357020 62540508 62728852 62916784 
843.704 63094072 63244908 63350976 63398168 63379884 63300484 63173852 
847.079 63020208 62860572 62711700 62586888 62495124 62443360 62438348 
850.454 62486136 62590256 62750176 62960908 63214244 63501440 63817108 
853.829 64160264 64533808 64941868 65386944 65867872 66381188 66921928 
857.204 67488384 68081864 68707784 69372696 70081352 70836512 71638552 
860.578 72488048 73387880 74344088 75363448 76450784 77605152 78817768 
863.953 80072512 81350384 82632792 83904088 85154768 86380464 87582848 
867.328 88769456 89956632 91170120 92441384 93803896 95282328 96881352 
870.703 98576624 100311248 102005528 103557664 104865984 105844432 106425176 
874.078 106572272 106282272 105585216 104539992 103229536 101757928 
876.970 100228864 98739920 97375216 96190776 95220936 94480392 93969776 
880.345 93683304 93613496 93752456 94090368 94612744 95300000 96124408 
883.720 97053008 98052736 99087064 100121736 101125800 102069648 102930880 
887.095 103697016 104368080 104957064 105487624 105989296 106489360 
889.987 107009240 107563272 108159200 108803112 109502752 110267168 
892.880 111105848 112022296 113009112 114042200 115079216 116065176 
895.773 116930144 117601224 118012696 118108792 117859328 117264960 
898.666 116362688 115220592 113928864 112591232 111299656 110129064 
901.558 109132152 108335328 107749520 107376552 107215488 107266592 
904.451 107530376 108005448 108685808 109561384 110620368 111851440 
907.344 113246696 114801136 116508856 118359976 120337816 122418024 
910.236 124573888 126781136 129020480 131280496 133554008 135834400 
913.129 138112528 140376576 142614720 144820288 146993040 149140000 
916.022 151269008 153382864 155472992 157518128 159484096 161329728 
918.914 163014400 164497968 165747120 166737408 167454928 167902048 
921.807 168101472 168100944 167967744 167784656 167646800 167644896 
924.700 167867920 168403088 169326352 170708016 172598704 175012864 
927.593 177906768 181154096 184550384 187790064 190505792 192335152 
930.485 192939344 192093872 189730816 185953152 181026000 175324912 
933.378 169308400 163413504 158013568 153400176 149737568 147088704 
936.271 145433744 144699744 144786768 145588224 147010976 148964160 
939.163 151352992 154074736 156992352 159935392 162715536 165117152 
942.056 166933040 167995072 168182096 167454064 165856960 163526816 
944.949 160663440 157499936 154283408 151217376 148453584 146086000 
947.841 144147888 142632816 141509824 140741168 140288208 140113616 
950.734 140183712 140462336 140913008 141504032 142208976 143011120 
953.627 143902848 144879664 145936336 147063264 148245728 149468736 
956.520 150721792 152001744 153312880 154662416 156055232 157490000 
959.412 158958224 160449280 161954944 163473136 165008368 166567040 
962.305 168152384 169760944 171382864 173005840 174621632 176230304 
965.198 177839648 179461472 181104608 182770608 184453392 186144016 
968.090 187834784 189525408 191221984 192933520 194665088 196414880 
970.983 198173232 199928848 201674672 203412688 205153888 206914816 
973.876 208711312 210553360 212446944 214397248 216413904 218515392 
976.768 220725904 223068256 225557776 228196256 230973440 233871536 
979.661 236874864 239973504 243161632 246431184 249762208 253112640 
982.554 256423088 259618192 262615120 265340176 267728064 269725600 
985.447 271296704 272422368 273111424 273406016 273391456 273187840 
988.339 272926944 272744224 272747424 273003712 273546240 274378144 
991.232 275488416 276861408 278482720 280335328 282392992 284620288 
994.125 286973984 289411232 291903168 294437312 297016736 299650208 
997.017 302341760 305083840 307859584 310650752 313449312 316263200 
999.910 319114432 322028608 325022624 328098624 331245120 334446400 
1002.803 337692672 340986496 344339968 347764320 351258944 354806112 
1005.695 358374944 361936384 365475232 368996992 372522944 376076288 
1008.588 379665696 383276288 386871296 390405088 393840768 397155872 
1011.481 400341792 403391424 406285376 408986048 411446144 413619520 
1014.374 415481888 417035232 418303232 419312576 420078272 420596192 
1017.266 420850528 420828256 420536608 420006400 419285312 418420896 
1020.159 417440512 416348928 415133568 413781888 412295616 410695872 
1023.052 409012928 407271072 405471360 403588736 401576832 399388000 
1025.945 396989312 394366176 391519168 388450400 385152864 381611104 
1028.838 377811200 373757984 369487584 365070048 360601248 356175520 
1031.731 351879328 347779072 343918784 340333632 337052032 334092352 
1034.624 331456000 329112288 326994112 324993440 322981696 320835968 
1037.517 318449152 315755520 312729760 309378880 305733504 301840000 
1040.410 297760480 293565824 289337856 285162016 281107808 277224160 
1043.303 273530816 270020896 266673408 263467696 260396064 257465776 
1046.196 254695088 252101488 249694224 247469792 245415264 243515792 
1049.089 241761024 240148400 238678816 237350672 236155088 235074704 
1051.982 234090288 233187216 232361920 231621088 230975488 230430032 
1054.875 229975296 229583408 229211504 228812672 228339792 227751008 
1057.768 227011360 226084448 224932912 223522896 221827632 219840976 
1060.661 217581952 215097168 212450272 209710160 206946464 204217328 
1063.554 201573568 199064560 196736480 194635760 192804208 191268864 
1066.448 190039424 189104704 188438064 188000368 187747536 187637328 
1069.341 187623792 187658464 187692192 187671424 187549296 187293504 
1072.234 186888192 186336688 185654352 184861056 183972624 182998384 
1075.127 181944080 180816624 179629856 178406448 177172336 175953872 
1078.020 174771872 173638512 172561632 171547808 170605952 169748992 
1080.913 168989760 168335808 167786912 167333392 166961072 166655456 
1083.806 166407488 166214864 166079488 166003248 165984304 166016096 
1086.699 166090064 166199952 166345136 166530528 166763296 167048208 
1089.592 167383952 167763568 168178096 168624000 169107040 169644048 
1092.485 170257360 170970224 171798368 172745792 173804784 174959232 
1095.378 176188112 177465984 178765056 180054128 181296528 182456496 
1098.271 183502656 184411552 185171440 185776368 186219104 186483456 
1101.164 186539056 186343552 185855600 185043328 183896832 182431728 
1104.057 180687664 178720704 176591648 174366144 172106880 169870224 
1106.950 167709584 165666752 163768496 162024704 160426736 158952448 
1109.844 157570944 156253952 154977888 153726160 152488048 151254032 
1112.737 150013808 148758416 147482336 146187760 144885872 143595328 
1115.630 142337312 141128768 139980416 138895248 137871424 136905104 
1118.523 135992704 135129136 134303920 133498624 132686096 131832104 
1121.416 130905720 129885704 128765744 127555264 126274584 124946784 
1124.309 123588128 122205056 120792624 119340112 117834120 116265072 
1127.202 114630472 112934840 111189600 109410120 107615104 105822744 
1130.095 104047720 102299472 100579288 98880400 97190624 95496336 93789256 
1133.470 92069488 90348264 88646560 86992536 85413112 83933592 82574368 
1136.845 81349064 80267664 79336928 78560256 77938184 77466760 77137688 
1140.221 76938208 76852648 76865856 76962088 77126968 77345864 77600520 
1143.596 77869712 78128960 78351496 78513648 78596464 78586936 78479664 
1146.971 78274640 77977232 77597624 77152688 76667168 76170936 75700280 
1150.346 75292704 74979616 74787224 74732120 74821776 75057200 75434552 
1153.722 75946088 76578864 77314184 78126624 78981160 79838736 80657200 
1157.097 81392064 82004104 82456128 82714120 82750560 82544072 82081832 
1160.472 81363216 80399224 79211216 77825960 76273968 74585624 72788336 
1163.847 70910200 68978592 67019500 65059892 63122964 61227364 59387140 
1167.223 57611168 55904716 54272032 52717248 51244844 49860064 48566640 
1170.598 47367028 46261936 45250764 44333152 43509944 42783132 42156432 
1173.973 41633684 41218112 40912404 40718360 40638528 40677060 40840180 
1177.348 41135492 41571876 42157528 42899788 43805684 44882052 46136268 
1180.724 47576968 49212092 51047172 53083836 55317364 57734828 60312596 
1184.099 63016912 65796076 68578752 71280096 73794464 76011440 77833960 
1187.474 79182384 80014264 80327616 80160456 79582208 78681768 77564472 
1190.849 76331552 75074688 73871944 72772624 71797392 70934816 70145480 
1194.225 69366944 68524120 67549888 66389172 65013132 63422284 61645120 
1197.600 59732600 57745652 55752796 53817380 51989364 50307352 48792956 
1200.975 47452544 46280476 45261832 44376856 43602544 42918516 42306156 
1204.350 41749192 41234764 40751040 40286908 39833944 39386244 38941976 
1207.726 38504096 38079720 37678704 37311416 36988488 36719744 36513832 
1211.101 36380360 36328840 36368472 36507560 36751800 37103348 37561492 
1214.476 38123272 38785004 39542456 40390748 41322904 42327668 43389500 
1217.851 44488032 45599580 46701252 47770996 48789952 49744344 50625144 
1221.227 51429812 52162844 52836940 53471720 54089604 54714420 55364900 
1224.602 56052132 56779384 57542276 58332396 59139600 59954728 60769872 
1227.977 61577728 62371476 63144340 63890300 64606272 65292580 65954068 
1231.352 66598744 67238888 67890136 68571648 69309544 70136176 71088240 
1234.728 72208664 73540376 75121560 76987968 79168072 81685024 84559048 
1238.103 87805704 91434280 95442992 99814832 104512464 109474192 114623488 
1241.478 119864224 125086320 130178720 135021376 139495168 143497616 
1244.371 146941456 149771472 151967888 153541152 154522784 154949248 
1247.264 154854096 154258304 153170224 151588960 149508368 146920160 
1250.157 143814992 140187760 136042208 131399496 126304776 120832712 
1253.050 115086992 109182552 103245296 97396112 91732328 86335760 81262600 
1256.426 76542144 72183816 68177376 64498900 61114068 57985092 55076040 
1259.801 52353284 49791832 47375044 45093364 42944008 40927912 39047776 
1263.176 37305424 35701272 34233292 32897870 31689916 30603798 29633144 
1266.551 28770782 28008014 27335812 26744494 26225738 25773802 25386198 
1269.927 25062678 24804752 24613670 24489590 24431680 24438970 24511534 
1273.302 24650910 24859588 25138542 25485552 25892836 26346798 26827982 
1276.677 27311922 27773126 28183482 28514642 28741788 28843400 28805054 
1280.052 28622574 28302294 27861336 27322720 26715106 26066644 25402112 
1283.427 24744100 24110130 23514268 22967806 22478350 22050060 21682932 
1286.803 21373786 21116962 20906738 20739048 20611518 20523484 20473742 
1290.178 20459502 20475168 20514208 20569792 20637196 20714720 20803036 
1293.553 20903782 21017628 21143572 21279472 21423526 21575426 21737656 
1296.928 21914198 22109536 22326378 22564826 22823520 23100644 23396268 
1300.304 23712634 24053850 24424634 24828152 25265828 25737168 26241788 
1303.679 26780192 27354938 27968964 28623954 29318250 30045652 30796360 
1307.054 31556744 32312356 33047688 33746344 34392356 34969160 35461756 
1310.429 35859364 36157148 36357480 36468824 36503492 36474516 36391816 
1313.805 36261696 36086680 35867248 35603584 35296584 34948224 34561096 
1317.180 34138404 33684000 33204426 32708876 32210142 31723458 31263136 
1320.555 30840076 30459830 30122710 29825066 29563126 29335054 29142748 
1323.930 28990340 28882672 28823430 28814118 28854236 28943798 29084108 
1327.306 29277878 29527374 29832412 30188026 30584102 31008048 31447262 
1330.681 31891984 32336946 32780476 33222236 33660724 34092560 34511624 
1334.056 34911704 35286524 35630444 35938436 36204464 36421004 36580872 
1337.431 36678352 36712860 36689924 36622328 36528068 36425256 36330892 
1340.807 36256796 36209868 36194380 36213108 36268720 36363932 36500244 
1344.182 36677056 36892276 37143048 37428128 37747768 38103560 38495772 
1347.557 38920556 39368756 39825700 40274216 40699148 41088868 41436804 
1350.932 41740436 41998332 42208720 42369276 42478112 42535624 42546112 
1354.308 42517572 42459512 42380968 42289284 42189328 42085348 41983768 
1357.683 41893156 41825512 41793552 41807960 41876732 42004720 42195868 
1361.058 42456736 42798196 43233216 43774460 44426512 45181048 46014724 
1364.433 46892380 47771732 48603176 49337540 49925888 50320336 50484660 
1367.809 50398324 50062884 49502084 48757512 47880452 46916888 45905480 
1371.184 44873232 43835264 42803828 41792860 40821868 39919588 39118332 
1374.559 38446280 37922768 37554048 37336476 37263180 37330876 37542956 
1377.934 37909680 38443820 39155456 40047832 41113856 42333368 43668964 
1381.310 45066608 46448076 47713628 48761404 49490132 49821152 49709944 
1384.685 49143628 48143460 46759956 45082044 43228276 41332492 39531856 
1388.060 37931192 36588656 35516772 34690784 34065468 33586292 33203672 
1391.435 32875172 32568778 32265742 31959992 31658198 31376522 31139168 
1394.811 30970434 30887462 30896462 30989614 31147602 31338486 31522610 
1398.186 31659338 31711872 31661082 31511672 31291690 31042318 30805608 
1401.561 30618340 30504474 30479522 30553564 30733018 31019898 31407546 
1404.936 31876616 32390532 32898620 33348802 33694168 33906376 33981652 
1408.312 33938908 33813852 33647584 33482742 33352882 33280686 33280722 
1411.687 33359538 33518318 33753112 34055288 34411436 34805500 35223996 
1415.062 35658972 36109684 36581272 37079964 37608132 38162160 38733740 
1418.437 39316336 39911596 40533572 41202700 41932784 42726824 43574044 
1421.813 44457564 45360284 46275056 47207572 48174744 49196952 50288712 
1425.188 51454316 52686980 53976396 55315896 56707000 58156816 59672536 
1428.563 61255328 62898016 64588936 66319884 68094072 69927536 71840472 
1431.938 73849952 75959816 78160896 80430760 82743384 85073624 87386120 
1435.313 89635368 91760448 93694032 95388352 96842712 98115200 99293072 
1438.689 100471616 101728368 103104232 104599512 106164936 107710376 
1441.582 109099440 110169928 110768672 110758800 110054696 108635600 
1444.475 106547240 103892016 100800344 97422688 93899312 90356920 86920168 
1447.850 83699656 80786320 78235800 76055024 74207192 72626552 71247464 
1451.225 70020728 68927528 67975488 67186592 66577660 66146172 65866680 
1454.601 65694808 65581000 65477588 65356748 65219848 65095388 65020600 
1457.976 65019408 65095388 65237060 65430044 65664856 65937980 66247940 
1461.351 66589936 66952772 67315336 67647608 67917984 68098608 68176488 
1464.726 68159152 68074344 67959984 67850120 67772072 67744264 67779272 
1468.102 67890832 68093144 68400064 68821872 69361392 70010960 70747640 
1471.477 71537520 72340816 73124784 73878672 74620288 75393992 76252408 
1474.852 77251600 78443184 79864024 81538640 83473040 85655520 88060400 
1478.227 90654928 93407744 96287168 99267840 102334320 105479936 108713640 
1481.603 112058360 115547880 119214312 123078776 127140704 131374520 
1484.496 135721344 140079584 144317296 148258864 151691904 154399280 
1487.389 156158976 156775696 156111936 154107136 150812752 146403616 
1490.282 141181632 135520752 129779320 124255696 119130696 114476656 
1493.175 110310352 106619112 103402792 100701680 98586552 97137168 96393512 
1496.550 96313472 96745456 97440608 98123960 98522488 98415120 97675752 
1499.925 96265416 94241376 91728240 88896632 85916112 82911064 79959176 
1503.301 77064560 74161056 71126056 67805416 64066828 59874436 55370584 
1506.676 50867212 46721068 43166384 40240084 37828444 35773800 33937224 
1510.051 32229874 30612010 29080000 27647858 26328736 25129168 24044638 
1513.426 23063396 22171040 21352102 20589978 19865640 19161484 18467076 
1516.802 17785928 17136624 16544908 16032068 15601877 15236829 14899314 
1520.177 14546609 14145441 13694066 13226182 12796235 12448472 12195746 
1523.552 12019634 11884252 11754698 11607419 11438825 11261388 11095240 
1526.927 10954809 10841873 10747680 10661522 10579895 10509282 10463153 
1530.302 10453853 10484537 10545470 10615240 10667837 10686040 10669773 
1533.678 10639552 10624544 10649636 10723260 10838476 10979956 11132088 
1537.053 11284749 11430967 11565425 11678891 11754733 11772469 11718648 
1540.428 11598979 11439336 11273697 11128824 11011560 10909686 10799071 
1543.803 10657242 10472827 10252357 10016672 9792672 9600424 9444493 9316444 
1547.661 9200346 9082451 8955963 8825352 8701509 8596761 8516367 8457339 
1551.518 8410616 8367344 8323737 8283142 8253997 8246196 8266053 8313672 
1555.376 8384672 8472205 8569285 8666286 8746741 8786063 8753943 8632789 
1559.233 8438149 8219824 8034076 7915857 7873140 7892540 7951694 8026279 
1563.091 8097570 8155704 8201218 8243765 8296448 8369742 8466022 8580066 
1566.948 8701847 8822005 8933977 9035728 9128570 9215406 9300196 9387202 
1570.805 9482861 9595580 9734047 9905030 10110673 10346883 10602236 10861509 
1574.663 11109720 11337054 11545350 11748298 11966839 12216636 12504702 
1578.038 12830190 13189121 13579424 14001558 14458048 14949347 15471313 
1581.413 16015634 16570209 17122698 17663538 18185048 18680134 19140636 
1584.789 19555668 19913194 20204052 20424078 20576358 20671560 20726294 
1588.164 20759728 20790698 20837798 20916368 21041068 21225608 21481696 
1591.539 21817818 22237056 22735316 23302004 23922680 24584354 25277348 
1594.914 25998464 26749850 27537310 28367618 29245872 30173712 31148244 
1598.290 32160326 33191908 34216372 35199312 36098380 36871788 37481260 
1601.665 37894672 38092308 38066120 37822984 37382948 36778776 36051392 
1605.040 35238908 34376256 33489150 32592640 31695690 30802480 29914614 
1608.415 29032352 28155376 27283980 26421018 25574176 24757148 23989136 
1611.791 23289070 22671184 22141194 21693592 21313888 20980696 20671214 
1615.166 20363790 20043574 19708856 19372422 19057920 18790628 18587512 
1618.541 18452798 18379198 18350544 18346880 18347848 18333952 18291444 
1621.916 18214348 18106762 17980798 17852658 17737672 17644076 17573480 
1625.292 17522038 17483402 17450426 17415798 17373274 17317962 17247314 
1628.667 17162716 17069658 16976414 16891386 16820672 16766151 16724655 
1632.042 16688226 16645050 16581429 16480925 16328491 16112903 15832985 
1635.417 15502800 15151354 14813837 14517623 14275607 14085541 13935998 
1638.792 13811338 13696870 13583184 13466828 13351289 13244458 13154626 
1642.168 13086906 13040160 13007417 12976794 12934634 12866708 12761224 
1645.543 12611352 12416796 12186443 11938161 11696591 11485399 11323417 
1648.918 11220618 11177065 11183558 11221332 11262408 11265570 11181485 
1652.293 10970067 10627430 10206424 9790536 9447033 9196419 9023820 8901848 
1656.151 8806248 8721421 8639617 8559688 8483118 8412102 8347313 8287464 
1660.008 8229447 8169209 8101891 8021790 7924900 7809746 7680121 7544972 
1663.866 7417448 7310246 7231942 7184980 7165341 7163792 7167564 7163287 
1667.723 7139741 7089657 7011730 6910419 6795366 6677718 6568849 6477999 
1671.581 6410909 6368978 6348401 6339995 6329270 6299685 6238437 6142314 
1675.438 6022391 5898705 5792717 5716768 5671379 5648016 5635394 5625526 
1679.295 5616295 5612972 5625056 5660100 5718849 5792146 5859376 5893667 
1683.153 5867806 5767533 5602903 5409415 5230499 5094333 5008484 4964276 
1687.010 4947485 4943430 4940514 4931231 4910923 4878754 4837440 4793852 
1690.868 4757671 4738611 4744406 4777068 4832414 4898892 4960689 5001043 
1694.725 5007847 4981234 4936425 4899529 4892057 4923523 4986865 5064530 
1698.583 5130809 5158270 5127356 5036171 4908276 4781322 4689372 4647574 
1702.440 4652732 4691516 4747689 4805042 4849736 4873359 4874364 4859051 
1706.297 4837976 4821659 4817605 4827724 4849937 4880195 4914944 4952646 
1710.155 4994172 5042238 5099429 5166854 5243344 5325851 5410690 5494806 
1714.012 5576422 5654562 5727713 5791777 5839730 5863272 5856455 5820286 
1717.870 5765653 5710221 5671078 5659194 5676751 5718782 5775928 5837917 
1721.727 5895716 5942035 5971595 5981640 5970554 5938306 5886144 5817096 
1725.584 5735267 5644894 5550177 5453098 5354263 5252734 5148714 5044786 
1729.442 4947351 4864379 4803366 4767018 4750938 4741860 4718580 4658961 
1733.299 4546076 4379532 4180933 3986606 3829702 3726290 3675829 3666607 
1737.157 3682813 3708578 3730701 3740059 3732205 3708912 3676097 3641646 
1741.014 3611809 3589559 3574090 3562231 3550071 3534437 3514662 3493084 
1744.872 3473711 3460619 3456945 3462823 3475983 3491815 3505109 3511422 
1748.729 3507013 3489410 3456644 3407718 3342969 3266012 3184129 3107066 
1752.586 3043998 3001290 2979671 2974500 2976801 2975734 2961789 2929797 
1756.444 2881630 2825431 2772574 2732094 2708488 2700219 2701386 2704020 
1760.301 2700419 2685649 2657578 2618009 2572010 2526016 2486824 2459566 
1764.159 2447370 2450036 2464798 2485491 2505120 2517217 2518550 2511652 
1768.016 2504020 2505320 2522216 2555911 2599375 2641277 2666446 2663612 
1771.874 2629176 2569876 2499754 2433975 2382398 2347751 2326697 2314239 
1775.731 2306844 2303513 2305111 2312573 2325498 2340589 2352915 2357345 
1779.588 2351216 2334959 2312540 2289456 2269738 2254882 2243325 2231568 
1783.446 2215816 2193803 2165231 2132032 2097171 2063778 2035048 2013644 
1787.303 2001926 2001993 2014709 2039210 2071669 2105628 2132665 2144385 
1791.161 2134662 2102499 2051993 1991707 1931796 1880445 1841945 1816756 
1795.018 1803248 1798690 1800253 1805410 1812630 1820317 1827470 1833393 
1798.875 1837220 1838284 1835889 1829300 1818154 1803248 1786412 1770676 
1802.733 1759231 1754474 1757468 1767149 1781422 1797425 1813063 1827770 
1806.590 1842311 1858349 1876319 1895953 1914789 1929666 1937953 1938353 
1810.448 1931630 1920347 1907301 1894389 1882841 1872259 1861677 1851162 
1814.305 1841346 1833593 1829800 1831363 1838850 1851994 1870096 1892792 
1818.163 1919615 1949868 1983319 2018637 2054723 2090912 2127504 2165430 
1822.020 2205858 2248688 2291888 2332060 2364908 2388129 2402822 2414317 
1825.877 2429977 2456534 2497322 2550779 2611009 2669913 2720324 2758569 
1829.735 2786147 2808323 2832535 2864286 2905346 2954450 3008596 3064853 
1833.592 3121449 3177820 3233698 3288647 3340833 3388048 3427254 3456578 
1837.450 3475482 3484600 3485702 3481026 3472943 3463391 3453839 3445122 
1841.307 3436472 3425584 3408085 3379366 3335891 3278031 3211499 3146814 
1845.165 3094785 3063317 3054508 3064953 3086910 3112205 3134866 3152221 
1849.022 3165471 3177587 3191438 3207527 3223817 3236535 3242344 3240073 
1852.879 3231528 3220479 3211266 3206826 3208028 3213802 3222114 3231494 
1856.737 3241509 3252291 3264043 3276061 3286811 3294657 3298730 3299732 
1860.594 3299732 3301234 3305941 3314355 3325507 3338462 3353621 3373623 
1864.452 3402408 3443686 3498996 3565438 3636434 3702195 3753227 3782605 
1868.309 3788588 3774283 3746943 3714660 3683481 3656181 3632391 3609705 
1872.167 3585249 3555650 3518670 3472142 3414998 3347277 3270352 3187199 
1876.024 3101059 3015303 2931798 2850645 2770607 2689750 2606975 2522916 
1879.881 2439873 2360710 2288290 2223609 2166063 2113719 2064844 2018537 
1883.739 1975231 1936622 1904173 1878515 1858982 1843742 1830532 1817022 
1887.596 1801717 1783085 1759897 1731420 1698088 1661699 1625845 1594882 
1891.454 1572868 1561927 1561495 1568079 1576459 1582412 1583210 1579153 
1895.311 1573001 1568245 1567846 1572402 1581048 1591823 1603030 1613905 
1899.168 1624248 1633661 1641111 1644936 1644071 1638783 1631998 1628106 
1903.026 1631831 1646200 1670047 1698321 1724234 1740834 1743828 1733216 
1906.883 1712392 1686279 1659337 1634226 1611644 1591258 1573566 1559200 
1910.741 1549823 1546864 1549590 1556141 1564022 1571970 1580450 1592023 
1914.598 1608917 1631964 1657674 1680059 1691169 1685248 1661699 1626111 
1918.456 1588830 1559267 1543804 1542142 1548992 1556640 1558469 1551452 
1922.313 1536689 1518068 1499714 1484420 1472385 1462544 1454399 1448548 
1926.170 1446653 1450875 1461314 1475876 1490571 1501244 1505965 1505633 
1930.028 1503704 1504236 1509722 1520296 1533430 1546032 1556108 1563723 
1933.885 1570473 1577856 1586003 1592887 1595947 1593752 1587832 1583243 
1937.743 1586801 1603928 1634991 1675203 1715452 1744859 1755572 1745026 
1941.600 1716483 1677798 1637120 1600902 1571903 1550023 1534062 1523521 
1945.458 1519431 1522756 1533729 1550355 1568079 1582245 1590060 1590559 
1949.315 1586269 1581048 1578288 1580217 1587600 1600170 1618595 1644004 
1953.172 1677531 1719311 1766384 1813063 1852792 1880013 1891494 1888898 
1957.030 1876153 1858050 1838517 1819119 1799455 1778794 1757734 1738639 
1960.887 1725066 1719677 1724035 1736410 1754807 1776332 1800619 1827703 
1964.745 1857185 1886868 1911694 1925506 1922843 1902809 1870262 1834591 
1968.602 1807074 1794597 1800120 1820084 1847668 1876818 1903508 1927769 
1972.459 1951200 1973999 1993871 2006553 2007752 1998098 1983885 1976230 
1976.317 1986781 2022765 2082655 2155807 2227272 2283027 2316304 2327164 
1980.174 2321068 2305645 2286358 2264508 2239162 2208555 2173589 2137559 
1984.032 2105861 2082622 2069238 2063878 2062014 2059783 2056021 2052825 
1987.889 2054190 2064178 2084486 2113486 2147715 2183213 2217414 2250719 
1991.747 2283760 2317670 2351349 2381766 2405121 2418815 2422280 2417649 
1995.604 2408119 2396858 2385797 2375269 2364975 2355280 2347984 2344686 
1999.461 2346985 2353514 2360044 2360610 2350716 2328529 2296717 2262410 
2003.319 2233167 2215682 2213218 2225374 2249620 2282894 2322800 2369439 
2007.176 2420048 2471462 2516417 2547246 2557711 2546879 2519117 2482692 
2011.034 2447637 2421914 2408886 2408053 2416616 2432376 2455001 2486524 
2014.891 2528615 2581242 2641777 2704820 2765338 2820395 2869356 2915186 
2018.749 2958720 3000155 3036156 3062583 3077833 3083973 3087878 3098723 
2022.606 3124086 3166739 3221847 3280501 3331750 3367812 3385678 3388182 
2026.463 3380201 3367312 3353187 3339063 3325473 3314455 3310249 3319030 
2030.321 3344539 3388883 3450232 3523814 3605595 3693373 3787819 3890678 
2034.178 4001453 4116103 4225865 4321097 4393790 4442024 4470111 4487251 
2038.036 4505028 4531578 4571088 4622156 4680396 4739147 4793584 4840522 
2041.893 4877815 4904824 4921512 4928919 4929756 4927746 4927712 4934716 
2045.750 4950635 4975604 5008149 5045557 5085315 5125847 5165546 5201224 
2049.608 5227615 5238615 5229225 5197870 5147943 5087527 5027087 4975470 
2053.465 4937967 4913671 4896983 4880630 4859219 4831476 4800787 4772444 
2057.323 4750670 4736768 4727423 4717977 4704445 4686492 4668071 4654641 
2061.180 4651861 4661808 4681870 4705416 4724241 4731744 4725078 4704210 
2065.038 4672023 4632571 4589137 4544770 4501881 4463148 4430844 4406309 
2068.895 4389004 4376185 4363968 4347837 4326552 4300918 4274717 4252298 
2072.752 4237241 4229679 4227136 4225531 4221449 4213419 4202981 4192040 
2076.610 4183075 4176116 4169693 4161062 4148852 4134033 4119515 4109146 
2080.467 4106135 4110852 4120853 4132126 4140623 4144001 4142094 4136541 
2084.325 4129082 4120519 4110618 4098910 4085565 4072588 4062922 4059510 
2088.182 4062888 4070915 4078039 4077838 4065631 4039945 4004296 3964469 
2092.040 3928458 3901811 3887870 3886700 3896295 3914315 3938188 3965807 
2095.897 3994464 4020749 4040781 4050948 4049878 4039276 4023324 4008175 
2099.754 3998243 3996136 4000550 4007807 4013124 4012622 4004630 3989181 
2103.612 3967947 3942635 3915151 3887335 3861460 3840767 3828699 3827931 
2107.469 3839396 3860824 3888104 3915653 3939392 3957514 3970354 3980420 
2111.327 3989883 3999346 4007473 4011787 4010181 4001721 3987676 3971057 
2115.184 3954705 3941030 3931100 3924613 3921036 3919966 3921270 3924747 
2119.042 3929695 3934376 3936316 3933841 3926452 3916288 3906057 3899638 
2122.899 3899103 3903817 3910938 3916221 3916556 3910303 3898635 3884460 
2126.756 3870786 3859186 3849358 3839630 3827763 3812253 3793435 3772378 
2130.614 3751389 3732405 3717734 3709179 3709848 3722480 3749450 3791095 
2134.471 3844177 3901778 3955207 3996972 4022053 4031551 4029611 4023391 
2138.329 4018542 4017438 4018609 4018308 4012455 3998009 3974668 3943772 
2142.186 3907194 3865772 3820376 3771642 3722179 3676898 3641880 3622133 
2146.043 3619060 3630219 3647928 3663933 3670850 3665571 3649331 3625909 
2149.901 3599347 3572186 3544693 3515463 3484166 3450933 3417937 3386980 
2153.758 3358229 3329881 3299131 3265678 3235667 3221513 3240708 3311584 
2157.616 3443418 3633895 3864903 4109213 4338801 4530909 4674769 4769630 
2161.473 4822363 4840455 4832950 4806851 4769363 4727423 4689138 4661104 
2165.331 4646971 4646804 4657487 4673697 4691516 4708632 4725346 4742999 
2169.188 4761859 4779815 4794187 4801691 4800184 4791373 4778207 4765812 
2173.045 4757068 4753451 4753618 4755829 4758911 4763299 4770837 4782796 
2176.903 4798710 4814992 4826383 4827991 4817739 4796934 4770904 4746315 
2180.760 4728796 4721293 4723236 4732112 4745980 4763567 4786347 4815729 
2184.618 4852785 4895877 4941251 4983849 5018640 5043110 5056887 5061982 
2188.475 5060876 5056451 5050685 5045724 5042741 5043110 5047267 5054675 
2192.333 5062988 5070296 5074185 5074721 5074017 5076364 5086555 5106872 
2196.190 5137247 5174331 5212458 5246429 5273091 5291840 5304585 5313440 
2200.047 5320350 5325851 5329407 5331990 5335076 5341918 5356376 5380127 
2203.905 5412535 5449642 5486048 5517021 5540243 5556788 5570011 5584711 
2207.762 5603272 5626936 5653857 5682122 5709751 5736778 5764142 5793053 
2211.620 5823712 5854775 5883961 5909823 5931622 5951003 5970487 5992322 
2215.477 6016880 6042146 6064892 6081390 6089623 6090026 6085322 6078736 
2219.334 6073024 6069395 6067446 6065329 6062037 6056661 6050243 6043322 
2223.192 6037241 6031966 6027665 6024608 6023533 6025817 6033108 6046077 
2227.049 6063582 6083675 6103433 6120941 6135122 6146985 6158546 6171854 
2230.907 6187752 6206607 6227950 6251715 6278204 6308763 6344400 6384815 
2234.764 6427958 6470096 6507966 6538642 6562323 6581295 6599596 6620387 
2238.622 6645182 6673142 6701575 6727755 6749730 6768306 6785538 6804554 
2242.479 6827509 6854841 6885305 6916546 6946543 6974254 7000618 7027355 
2246.336 7056518 7089152 7125965 7165510 7206439 7246362 7283189 7314761 
2250.194 7339428 7356682 7366792 7372353 7377071 7385968 7404033 7434267 
2254.051 7477615 7531284 7590523 7648690 7699379 7737728 7761271 7769603 
2257.909 7764443 7749331 7728520 7705888 7685787 7671319 7664507 7666193 
2261.766 7675838 7692431 7714118 7738739 7764712 7790214 7814132 7835285 
2265.624 7853368 7868213 7880765 7892473 7904688 7918691 7934618 7951728 
2269.481 7968432 7983552 7996241 8007007 8017639 8030533 8047476 8070058 
2273.338 8098144 8130822 8167117 8205202 8244306 8283007 8320427 8355115 
2277.196 8385618 8411089 8431258 8447034 8459907 8472307 8485991 8502344 
2281.053 8522213 8545866 8573408 8605042 8641036 8681227 8724801 8770273 
2284.911 8815919 8860081 8902084 8942061 8980960 9019760 9058835 9097339 
2288.768 9134119 9167721 9197570 9224037 9249151 9275214 9304460 9338111 
2292.625 9376232 9418014 9462237 9507922 9554560 9601982 9649917 9697689 
2296.483 9744585 9789485 9831816 9871608 9909640 9947168 9985512 10025623 
2300.340 10067909 10112809 10160258 10210766 10264807 10322826 10384788 
2303.716 10450018 10517328 10585837 10654459 10723771 10795266 10870853 
2307.091 10952839 11042828 11141708 11249044 11363617 11483664 11606806 
2310.466 11730732 11852889 11970892 12083032 12188488 12287561 12381816 
2313.841 12473534 12565783 12661600 12763408 12873365 12992668 13121772 
2317.217 13259863 13405415 13555597 13707060 13857106 14003337 14145133 
2320.592 14282661 14416327 14545615 14668258 14779760 14875517 14951542 
2323.967 15006931 15044422 15070423 15093682 15122706 15164117 15221318 
2327.342 15294143 15379441 15472274 15567773 15661575 15750414 15832538 
2330.718 15907148 15974589 16036365 16094850 16153136 16214285 16280740 
2334.093 16353125 16430955 16512314 16594717 16676450 16756302 16834242 
2337.468 16910644 16985854 17059630 17131454 17200118 17264792 17324650 
2340.843 17378618 17425456 17462362 17485334 17488646 17464776 17405554 
2344.219 17303894 17155306 16960358 16727377 16473491 16222576 16003121 
2347.594 15844841 15771888 15800511 15937293 16177485 16506704 16902032 
2350.969 17338342 17789758 18234182 18657166 19050200 19410500 19738260 
2354.344 20034378 20300180 20537032 20747148 20933648 21099918 21248850 
2357.719 21381548 21497536 21595656 21675690 21738316 21787192 21826144 
2361.095 21858968 21887784 21912666 21932076 21943926 21947236 21941836 
2364.470 21928976 21909702 21885172 21855378 21819908 21778482 21730690 
2367.845 21677118 21618154 21553908 21483820 21406538 21321510 21228532 
2371.220 21128964 21024826 20918698 20812386 20706936 20602346 20498092 
2374.596 20394036 20290876 20190168 20093752 20003498 19920686 19846076 
2377.971 19780010 19723662 19678070 19645202 19626760 19624160 19637264 
2381.346 19665068 19705356 19755700 19813960 19878784 19949272 20024836 
2384.721 20105376 20190238 20278828 20370354 20463878 20558328 20652276 
2388.097 20743950 20831436 20913240 20988520 21057588 21121972 21183684 
2391.472 21244606 21305954 21367868 21429024 21488032 21543286 21594022 
2394.847 21640060 21681470 21719054 21753262 21784510 21813602 21841544 
2398.222 21870082 21900958 21935702 21975362 22019804 22068222 22119542 
2401.598 22172784 22227568 22283824 22341866 22402114 22464636 22529508 
2404.973 22596414 22665282 22735946 22808538 22882578 22957850 23033976 
2408.348 23110918 23189378 23270786 23356476 23447674 23544804 23646710 
2411.723 23751968 23858336 23964486 24069924 24175178 24281300 24388744 
2415.099 24497264 24605290 24711166 24813136 24910888 25004658 25096028 
2418.474 25186536 25277242 25368386 25459762 25551510 25644224 25739102 
2421.849 25837658 25941232 26049652 26161896 26275720 26388940 26499760 
2425.224 26608034 26714470 26820862 26929360 27042222 27161038 27287084 
2428.600 27421214 27563964 27714956 27872888 28036428 28202964 28371050 
2431.975 28539660 28709078 28880510 29055024 29232866 29413334 29594408 
2435.350 29773750 29949614 30122214 30293104 30465304 30642126 30826098 
2438.725 31018476 31219588 31428632 31644904 31867984 32097854 32334630 
2442.101 32578278 32828358 33083838 33343796 33606988 33872560 34139228 
2445.476 34406276 34672048 34935368 35195716 35452804 35707532 35960536 
2448.851 36212244 36462048 36708096 36947976 37179252 37400644 37612176 
2452.226 37815396 38011944 38203404 38390136 38571120 38744352 38908016 
2455.602 39060684 39201876 39332156 39452348 39563616 39666340 39761136 
2458.977 39847672 39926416 39997364 40060368 40115236 40161320 40197668 
2462.352 40223944 40240340 40247356 40246336 40237940 40222708 40200172 
2465.727 40169352 40129048 40078244 40016400 39943780 39860276 39766616 
2469.103 39662524 39548408 39424664 39291924 39151472 39005004 38854060 
2472.478 38699836 38542804 38383368 38221604 38057768 37892904 37728032 
2475.853 37564416 37403064 37244372 37088552 36935204 36783644 36633108 
2479.228 36483056 36332840 36182136 36030912 35879412 35728684 35579560 
2482.604 35433392 35290336 35150268 35012288 34875076 34737944 34600996 
2485.979 34465492 34333616 34207872 34090124 33981008 33880048 33785412 
2489.354 33695100 33606880 33519250 33431102 33342042 33251640 33159864 
2492.729 33066996 32973540 32880500 32788802 32699336 32612138 32526676 
2496.104 32441370 32354154 32263066 32166250 32062930 31952500 31835184 
2499.480 31711482 31582006 31447690 31309926 31169924 31028832 30887782 
2502.855 30746496 30605006 30462178 30317688 30171118 30023070 29874574 
2506.230 29726734 29581108 29438224 29298720 29163192 29031784 28904698 
2509.605 28781686 28661648 28543056 28423932 28302648 28178640 28052688 
2512.981 27926878 27804284 27687584 27578652 27478112 27385146 27298938 
2516.356 27218358 27143542 27074594 27012742 26958198 26910782 26869856 
2519.731 26834326 26803240 26776280 26753516 26734768 26719546 26706472 
2523.106 26693752 26680152 26664860 26648656 26632696 26618852 26608070 
2526.482 26600426 26594192 26587286 26577530 26563158 26544278 26521138 
2529.857 26494722 26465598 26433940 26399960 26363378 26324688 26284802 
2533.232 26244744 26205500 26167422 26130612 26094686 26059960 26026606 
2536.607 25995650 25968106 25944680 25925438 25910034 25898182 25890022 
2539.983 25885978 25887032 25893540 25905322 25920868 25937750 25953332 
2543.358 25965644 25974086 25979256 25982316 25984956 25987488 25989740 
2546.733 25991216 25991112 25989704 25987736 25986644 25987488 25989704 
2550.108 25992554 25993750 25991640 25985202 25974648 25961282 25947000 
2553.484 25933354 25921288 25911230 25902930 25896528 25892240 25890374 
2556.859 25891008 25893400 25896282 25897796 25896600 25891888 25883904 
2560.234 25873810 25863014 25852568 25842898 25833720 25824824 25815926 
2563.609 25807628 25800596 25796060 25794442 25796236 25801054 25808650 
2566.985 25819058 25832630 25850212 25872472 25899378 25930328 25964166 
2570.360 25999414 26035296 26071710 26109148 26148700 26191422 26238340 
2573.735 26289484 26344684 26403974 26466902 26533114 26602188 26673210 
2577.110 26745514 26818148 26890900 26963734 27037602 27113598 27192360 
2580.486 27274206 27358854 27445144 27532086 27618444 27703478 27786796 
2583.861 27867518 27945252 28018794 28087008 28149614 28206606 28259186 
2587.236 28308908 28357856 28407660 28459522 28513724 28570056 28627776 
2590.611 28686036 28744088 28801302 28857210 28912242 28966890 29022432 
2593.987 29080282 29141826 29207950 29278408 29352530 29428934 29506416 
2597.362 29584194 29662554 29742168 29824142 29909218 29997436 30089010 
2600.737 30183372 30280704 30381398 30486382 30596474 30711324 30830224 
2604.112 30950970 31071112 31188650 31302444 31412960 31521540 31629972 
2607.488 31740140 31852656 31967838 32084834 32202754 32320670 32437942 
2610.863 32553888 32668292 32780476 32890006 32996636 33100214 33201136 
2614.238 33299756 33396642 33492264 33586724 33680060 33772092 33863176 
2617.613 33953488 34043752 34134172 34225264 34317012 34409104 34501508 
2620.989 34593640 34685292 34776532 34866820 34956156 35044400 35131512 
2624.364 35217852 35303956 35390472 35478228 35567512 35658648 35751096 
2627.739 35844792 35938936 36033392 36127724 36222112 36316452 36410736 
2631.114 36505220 36599980 36695404 36791504 36888272 36985676 37083284 
2634.490 37180404 37276612 37371500 37464932 37557008 37647988 37738008 
2637.865 37827288 37915972 38003984 38091948 38179888 38268352 38357344 
2641.240 38446864 38536104 38624500 38711572 38797172 38881524 38965680 
2644.615 39049952 39135264 39220984 39306872 39391976 39475792 39557768 
2647.990 39638492 39718508 39798680 39880140 39963468 40049176 40137552 
2651.366 40228924 40323228 40420420 40520076 40621684 40724620 40828568 
2654.741 40933596 41039920 41148388 41259612 41373892 41491192 41610744 
2658.116 41732412 41855680 41980704 42108204 42239104 42374460 42514980 
2661.491 42661172 42812896 42970308 43132788 43300060 43471344 43645660 
2664.867 43822104 43999796 44178176 44357296 44537588 44719648 44904204 
2668.242 45091308 45280220 45470536 45661412 45852560 46044380 46237760 
2671.617 46433696 46633000 46835832 47041564 47249388 47458608 47668848 
2674.992 47880340 48093748 48309780 48528996 48751732 48978064 49208120 
2678.368 49442268 49680888 49925032 50174924 50431032 50693248 50961208 
2681.743 51234780 51513816 51798188 52088128 52383564 52684064 52989080 
2685.118 53298020 53610212 53925188 54242336 54561072 54880604 55199472 
2688.493 55516536 55830520 56140732 56447128 56750080 57049992 57347316 
2691.869 57642000 57933712 58222432 58507856 58789904 59068868 59344404 
2695.244 59616048 59882500 60142568 60395140 60639552 60876060 61105184 
2698.619 61327936 61545312 61757292 61964180 62166080 62363292 62557116 
2701.994 62748684 62939772 63131696 63325516 63521916 63721432 63924620 
2705.370 64132532 64346172 64566248 64793096 65026140 65264240 65505668 
2708.745 65748968 65992556 66235356 66476436 66714516 66948524 67176928 
2712.120 67398408 67611560 67815336 68008504 68189744 68357480 68510112 
2715.495 68646384 68765584 68867768 68953856 69024736 69081368 69123912 
2718.871 69152080 69165328 69163112 69145704 69113696 69068904 69012576 
2722.246 68946360 68871376 68788448 68698896 68603896 68505456 68405496 
2725.621 68305784 68207576 68111712 68018424 67928144 67841400 67758976 
2728.996 67681600 67609936 67543968 67483392 67427976 67377624 67333360 
2732.372 67296144 67267712 67248840 67239784 67239240 67245736 67256760 
2735.747 67271000 67287208 67304928 67323888 67344280 67365520 67387344 
2739.122 67408856 67429944 67450808 67470896 67490400 67508472 67524040 
2742.497 67535608 67541960 67542344 67536576 67524928 67508016 67485952 
2745.873 67458744 67426200 67388312 67345784 67299664 67251120 67201528 
2749.248 67151904 67102788 67054228 67006284 66959156 66913112 66868356 
2752.623 66824800 66781520 66737436 66690916 66640928 66586772 66528296 
2755.998 66465936 66399524 66328764 66252412 66168904 66076724 65974852 
2759.374 65863168 65741876 65611832 65473692 65327592 65173724 65011828 
2762.749 64842144 64665100 64481684 64292840 64100124 63904500 63708080 
2766.124 63513212 63322724 63140548 62970408 62815308 62677636 62558144 
2769.499 62456520 62371672 62302324 62247064 62204848 62174796 62155680 
2772.875 62145856 62143676 62146772 62153040 62160764 62168068 62173688 
2776.250 62176212 62174260 62166080 62150520 62126508 62092984 62049560 
2779.625 61995708 61931736 61858412 61777004 61689496 61598688 61507136 
2783.000 61417168 61329924 61245788 61163692 61082264 60999928 60915632 
2786.375 60829024 60739688 60647592 60551668 60450356 60341112 60221160 
2789.751 60088000 59939516 59774616 59592976 59395536 59183796 58960236 
2793.126 58728260 58491744 58254712 58021220 57795120 57579048 57375144 
2796.501 57184908 57009148 56848604 56703264 56573328 56457884 56355448 
2799.876 56264200 56181608 56105024 56032340 55961288 55889908 55816500 
2803.252 55739384 55656892 55567560 55470340 55364376 55249324 55124944 
2806.627 54991232 54847972 54694764 54531620 54358540 54175780 53983976 
2810.002 53783888 53576100 53361556 53141316 52916876 52690612 52465472 
2813.377 52244788 52032132 51830816 51643516 51472256 51318820 51184448 
2816.753 51070652 50978532 50908936 50862332 50838456 50836368 50854432 
2820.128 50891052 50944628 51013148 51094952 51188064 51289736 51396988 
2823.503 51506580 51614856 51718944 51816144 51904412 51982756 52050360 
2826.878 52106880 52152496 52187652 52213100 52228980 52236228 52235108 
2830.254 52225804 52208500 52183616 52151672 52113304 52069412 52020964 
2833.629 51968824 51914380 51858820 51804052 51752048 51705092 51664976 
2837.004 51633032 51610116 51596796 51594108 51603848 51629224 51674080 
2840.379 51743724 51843136 51976668 52147788 52359676 52614568 52915268 
2843.755 53264832 53666896 54124996 54641816 55218020 55850904 56532640 
2847.130 57250680 57984412 58706944 59386416 59985620 60469284 60806420 
2850.505 60973888 60962220 60774824 60428576 59948912 59368376 58721888 
2853.880 58040684 57353328 56683140 56046176 55453772 54911772 54421372 
2857.256 53980336 53584312 53227748 52904676 52610156 52340424 52092272 
2860.631 51863260 51651464 51454840 51271612 51100056 50939188 50788060 
2864.006 50646108 50513172 50388648 50272528 50164812 50065892 49976332 
2867.381 49897340 49829512 49773476 49729300 49696532 49674128 49661088 
2870.757 49655888 49656816 49661684 49668260 49673792 49676764 49676060 
2874.132 49672528 49668296 49666328 49670488 49683528 49707528 49743416 
2877.507 49791200 49850548 49921276 50003692 50098244 50205684 50326736 
2880.882 50461476 50609696 50770704 50943696 51127340 51320348 51521168 
2884.258 51728084 51939472 52153840 52369548 52585324 52799296 53009632 
2887.633 53213852 53409028 53592672 53762740 53917456 54056392 54179456 
2891.008 54286672 54378068 54453972 54514788 54561372 54595448 54619236 
2894.383 54634712 54643584 54646700 54643880 54634564 54618180 54594736 
2897.759 54564716 54528952 54487968 54441616 54389260 54329668 54262156 
2901.134 54186740 54104768 54018228 53929648 53841496 53755764 53674208 
2904.509 53598780 53532248 53478352 53441816 53427280 53438932 53480380 
2907.884 53554172 53662772 53809056 53996804 54230548 54515052 54854364 
2911.260 55250568 55703408 56209288 56761296 57349356 57960672 58578796 
2914.635 59184704 59759024 60280656 60730660 61094160 61359840 61521868 
2918.010 61579064 61533704 61390792 61156524 60838744 60445784 59987444 
2921.385 59474068 58916252 58325084 57711552 57085516 56456944 55835228 
2924.760 55228892 54645912 54092644 53573404 53089864 52641420 52225580 
2928.136 51838396 51475840 51135020 50813576 50510528 50225696 49958784 
2931.511 49709608 49477468 49260780 49057852 48866516 48684304 48509468 
2934.886 48340260 48175888 48016320 47862100 47714484 47574528 47443564 
2938.261 47322648 47212816 47115124 47030524 46959860 46903412 46860816 
2941.637 46830148 46808524 46792096 46776748 46758296 46733648 46700440 
2945.012 46657052 46602864 46537872 46462896 46379492 46290760 46200868 
2948.387 46114380 46036128 45970300 45919068 45883016 45861140 45850904 
2951.762 45849132 45853000 45859700 45867400 45874468 45879920 45883048 
2955.138 45883640 45881984 45878816 45875168 45872336 45871484 45873624 
2958.513 45879148 45888172 45900212 45914612 45930264 45946468 45962528 
2961.888 45978220 45993984 46010780 46030232 46054068 46084240 46123000 
2965.263 46171976 46233296 46308672 46399884 46508112 46633592 46774940 
2968.639 46928888 47090532 47253340 47409820 47552940 47676208 47774140 
2972.014 47843088 47880820 47886408 47860512 47805172 47723136 47618228 
2975.389 47494424 47355424 47204100 47042376 46871376 46691472 46503092 
2978.764 46306868 46103768 45895424 45684088 45471968 45261832 45056424 
2982.140 44858648 44671392 44496988 44337408 44193220 44063968 43947656 
2985.515 43841420 43741516 43643904 43545104 43442340 43333552 43217476 
2988.890 43093528 42960944 42818528 42663876 42493712 42304404 42092652 
2992.265 41856520 41596412 41315800 41020912 40719088 40418128 40124284 
2995.641 39841208 39569676 39308432 39055140 38807860 38565616 38329004 
2999.016 38100012 37880720 37673032 37478188 37296252 37126588 36968356 
3002.391 36820644 36682536 36553120 36431488 36316020 36205112 36097264 
3005.766 35991056 35885996 35782108 35680156 35581032 35485812 35394964 
3009.142 35308988 35227516 35150052 35076012 35004532 34935080 34867396 
3012.517 34801660 34737944 34676680 34618044 34561924 34507644 34453868 
3015.892 34399028 34341648 34280692 34215868 34147796 34077724 34007340 
3019.267 33938084 33871124 33807116 33746020 33687828 33632048 33578528 
3022.643 33527196 33477410 33428524 33378858 33326298 33267986 33200778 
3026.018 33121954 33029738 32923568 32804132 32673758 32535602 32393064 
3029.393 32249502 32107774 31969692 31836074 31707488 31583540 31463720 
3032.768 31347636 31234792 31124750 31017336 30912474 30810268 30711110 
3036.144 30615424 30523704 30436126 30352758 30273386 30197082 30123244 
3039.519 30050622 29978122 29904318 29827728 29746746 29659680 29565076 
3042.894 29462158 29350510 29230348 29102602 28968378 28828918 28685646 
3046.269 28540296 28394642 28251052 28112036 27979670 27855506 27739960 
3049.645 27632426 27531026 27433532 27338070 27243230 27148656 27055162 
3053.020 26963556 26875038 26790164 26709432 26632554 26559108 26488914 
3056.395 26421758 26357674 26296840 26239288 26184842 26133252 26084376 
3059.770 26037794 25993504 25951432 25911794 25874548 25840014 25808156 
3063.146 25779078 25752780 25729222 25707742 25687880 25668970 25649954 
3066.521 25630198 25609144 25586442 25562052 25535906 25508216 25479228 
3069.896 25449154 25418202 25386514 25354056 25320336 25284794 25246550 
3073.271 25204586 25158590 25108560 25055096 24999568 24943452 24888008 
3076.646 24834082 24781950 24731438 24682018 24633378 24585302 24537724 
3080.022 24490782 24444438 24398802 24353488 24308526 24263884 24219460 
3083.397 24175634 24132512 24090098 24048386 24007310 23967040 23928108 
3086.772 23891346 23857356 23827042 23800476 23777202 23756308 23737024 
3090.147 23718164 23699722 23681806 23665220 23650664 23638664 23629216 
3093.523 23621766 23615818 23610430 23605322 23600564 23596610 23594162 
3096.898 23594022 23596576 23602172 23610604 23621484 23633976 23647236 
3100.273 23660288 23672008 23681596 23688384 23692478 23694054 23694018 
3103.648 23693108 23692302 23692058 23692934 23694682 23697342 23700562 
3107.024 23704306 23708434 23712948 23718024 23723832 23730202 23737164 
3110.399 23744234 23751444 23758654 23765512 23772548 23779582 23786826 
3113.774 23793966 23800756 23806530 23810696 23812622 23812132 23809472 
3117.149 23805376 23800650 23796242 23793056 23791270 23790886 23791342 
3120.525 23791516 23790640 23787770 23782382 23774822 23765336 23754838 
3123.900 23744410 23735170 23727472 23721662 23717218 23713684 23710466 
3127.275 23707104 23703956 23701436 23700350 23701016 23703396 23706720 
3130.650 23709904 23711794 23711304 23708504 23704270 23699826 23696818 
3134.026 23696536 23699442 23705356 23713334 23722258 23731110 23739298 
3137.401 23746754 23754032 23761732 23770482 23780562 23791692 23803732 
3140.776 23815842 23827322 23837752 23846644 23854240 23861068 23867752 
3144.151 23875104 23883926 23894498 23906926 23920614 23934864 23949008 
3147.527 23962454 23975304 23987770 24000866 24015292 24031506 24049508 
3150.902 24068558 24087540 24105122 24120358 24132584 24141832 24148872 
3154.277 24154966 24161376 24169084 24178892 24190908 24205026 24220826 
3157.652 24237852 24256038 24275308 24295806 24317776 24341186 24366068 
3161.028 24392528 24420604 24450818 24483734 24519808 24559426 24602064 
3164.403 24646492 24690858 24733088 24771322 24804366 24832048 24855378 
3167.778 24876010 24895694 24916572 24940012 24967036 24997988 25032808 
3171.153 25070928 25111438 25153498 25196370 25239104 25281422 25323040 
3174.529 25364032 25404430 25444516 25483936 25522484 25559804 25595404 
3177.904 25629250 25661482 25692556 25722648 25752040 25780378 25807382 
3181.279 25832278 25854608 25874056 25890480 25904408 25916576 25928254 
3184.654 25940634 25954916 25971870 25991604 26013484 26036000 26057250 
3188.030 26075546 26089794 26100104 26107424 26113688 26120830 26130050 
3191.405 26141626 26154612 26167914 26180126 26191002 26201066 26211518 
3194.780 26224120 26240310 26260478 26284416 26310994 26339474 26368800 
3198.155 26398624 26429046 26459754 26490674 26520856 26549456 26575558 
3201.531 26598630 26618920 26637100 26654714 26673352 26694388 26718982 
3204.906 26747948 26781532 26819240 26860092 26902496 26944660 26984710 
3208.281 27021628 27055162 27086126 27116174 27147386 27181250 27219310 
3211.656 27261328 27306666 27354198 27402544 27450684 27498020 27544124 
3215.031 27589350 27633770 27678192 27722832 27768218 27814316 27861160 
3218.407 27908080 27954262 27999142 28042296 28083898 28124760 28166300 
3221.782 28209612 28255542 28304698 28356618 28410666 28466350 28522994 
3225.157 28580600 28639206 28698672 28758710 28818756 28878458 28937138 
3228.532 28994660 29051410 29107954 29164896 29222480 29280642 29338778 
3231.908 29396102 29451414 29504252 29554080 29600864 29645278 29688274 
3235.283 29731170 29775454 29822224 29872658 29926826 29984370 30044728 
3238.658 30107298 30171546 30237648 30305396 30374860 30445260 30515316 
3242.033 30582858 30645788 30702646 30753362 30799170 30842532 30886430 
3245.409 30933572 30985630 31043066 31105350 31171668 31240702 31311918 
3248.784 31384784 31458552 31533014 31607092 31679936 31750978 31820030 
3252.159 31887740 31955070 32023300 32093502 32166358 32241724 32318852 
3255.534 32397490 32476574 32555352 32633570 32710302 32785084 32857378 
3258.910 32926678 32992880 33055804 33115662 33172630 33226960 33279184 
3262.285 33329628 33378824 33427060 33475086 33523046 33571152 33619304 
3265.660 33667492 33715796 33764712 33814712 33866112 33919416 33974272 
3269.035 34030024 34085572 34140016 34192280 34242076 34288864 34332540 
3272.411 34372632 34408996 34441352 34469512 34494116 34516144 34537132 
3275.786 34558696 34581980 34607780 34636164 34666740 34698604 34731124 
3279.161 34762888 34793256 34821116 34845780 34866964 34884736 34899888 
3282.536 34913424 34926172 34938992 34951528 34963556 34973896 34982084 
3285.912 34988120 34992608 34997028 35003168 35012288 35025076 35041348 
3289.287 35060600 35081436 35102664 35123068 35141788 35158244 35172432 
3292.662 35184432 35195320 35205596 35216484 35228556 35241892 35256048 
3296.037 35270136 35282820 35293352 35301224 35306576 35309740 35311392 
3299.413 35312040 35312220 35312472 35313620 35316644 35322716 35332636 
3302.788 35346760 35364484 35384648 35405856 35426776 35446660 35465104 
3306.163 35482468 35498864 35514688 35529932 35544892 35559960 35576036 
3309.538 35594552 35616600 35643108 35673860 35707856 35744228 35781716 
3312.914 35820216 35859728 35901148 35945420 35992680 36042644 36094924 
3316.289 36148468 36203460 36260328 36319800 36382560 36448752 36517760 
3319.664 36588548 36660000 36731640 36803768 36877596 36953964 37033520 
3323.039 37115656 37198740 37280760 37360016 37435604 37508024 37578364 
3326.415 37648204 37718596 37789804 37860692 37929964 37995704 38056572 
3329.790 38112020 38162632 38209412 38254204 38298644 38343916 38390028 
3333.165 38436652 38481796 38523180 38558484 38586260 38606068 38619032 
3336.540 38627036 38632612 38637248 38641992 38646372 38649272 38649056 
3339.916 38644636 38635328 38620768 38600852 38575576 38545012 38508916 
3343.291 38467928 38423044 38375804 38327700 38279644 38231588 38182132 
3346.666 38129564 38072232 38009736 37942184 37871828 37800428 37729696 
3350.041 37660128 37591224 37521064 37448248 37371392 37290148 37205204 
3353.417 37117820 37028976 36939460 36849392 36759264 36669048 36579144 
3356.792 36490372 36403528 36319368 36238392 36160712 36085524 36012440 
3360.167 35940380 35868252 35795280 35720700 35644152 35565424 35484912 
3363.542 35402872 35319552 35234848 35148544 35060096 34969012 34875260 
3366.917 34779544 34682960 34587040 34493008 34401756 34313284 34226876 
3370.293 34141664 34056652 33971224 33884920 33797840 33709960 33621556 
3373.668 33532638 33443448 33354278 33265126 33176422 33088450 33001032 
3377.043 32914418 32828144 32742244 32656432 32570850 32484968 32398670 
3380.418 32310926 32221348 32129142 32034426 31937450 31838998 31739570 
3383.794 31640198 31540886 31442024 31343542 31246220 31151020 31059188 
3387.169 30971964 30889668 30811868 30737144 30663070 30587444 30508704 
3390.544 30425678 30338476 30248198 30156556 30065004 29975352 29888808 
3393.919 29805866 29726202 29648506 29570644 29490528 29406066 29316480 
3397.295 29222304 29125634 29028950 28935156 28845880 28761010 28679344 
3400.670 28598048 28515138 28429238 28340490 28250134 28160326 28072658 
3404.045 27987976 27905818 27824596 27742750 27658628 27571238 27480582 
3407.420 27386840 27290612 27192678 27093706 26994442 26895518 26797460 
3410.796 26700482 26603984 26506908 26407390 26304058 26195822 26082654 
3414.171 25965960 25848314 25732422 25621166 25516544 25418832 25327046 
3417.546 25239140 25152234 25064012 24972544 24877026 24777916 24676442 
3420.921 24574432 24473534 24374864 24278532 24183832 24089432 23994002 
3424.297 23896458 23796942 23695662 23593846 23492336 23392072 23292880 
3427.672 23194340 23095332 22995196 22893300 22789996 22685636 22581230 
3431.047 22477478 22375006 22274128 22174982 22077462 21981636 21887714 
3434.422 21795798 21705678 21616936 21529046 21440966 21352102 21261934 
3437.798 21170360 21077378 20983478 20889006 20793722 20697658 20600644 
3441.173 20502608 20404108 20305978 20209016 20114122 20020708 19927624 
3444.548 19832690 19733476 19628042 19515602 19397298 19275842 19154730 
3447.923 19037148 18925344 18819348 18717736 18618154 18517972 18415356 
3451.299 18310072 18202532 18093948 17985736 17878620 17772568 17667128 
3454.674 17561782 17456394 17351170 17247244 17145310 17045916 16948816 
3458.049 16853082 16757198 16659476 16558608 16454047 16346037 16236093 
3461.424 16125901 16018214 15914677 15816834 15724819 15637873 15553727 
3464.800 15470008 15384178 15294658 15200866 15103425 15004119 14905007 
3468.175 14807460 14712917 14621239 14531499 14442942 14354334 14265163 
3471.550 14174949 14084001 13992524 13900758 13808943 13716807 13624758 
3474.925 13532864 13441777 13352007 13264305 13179046 13096536 13015952 
3478.301 12936238 12855889 12773475 12687391 12597230 12503440 12407318 
3481.676 12311353 12218443 12131174 12051315 11979135 11913572 11852515 
3485.051 11793032 11732400 11668374 11599897 11526737 11449677 11369841 
3488.426 11288354 11206202 11123624 11040551 10956713 10872109 10786639 
3491.802 10700914 10615341 10530635 10446827 10364087 10282076 10200283 
3495.177 10118608 10037220 9956661 9877573 9800941 9727201 9656727 9589043 
3499.034 9523841 9459867 9396106 9331204 9263502 9191851 9114933 9032785 
3502.892 8946526 8858390 8771625 8689812 8615789 8550597 8493559 8441865 
3506.749 8391564 8339071 8280845 8215602 8143449 8066008 7985947 7906139 
3510.606 7829111 7756516 7689328 7628086 7572146 7520866 7472794 7426312 
3514.464 7379700 7331610 7280864 7227158 7170798 7112459 7052813 6993008 
3518.321 6934221 6877798 6824917 6776316 6732096 6691312 6652248 6612010 
3522.179 6568613 6520210 6466867 6409765 6350990 6292727 6235715 6179853 
3526.036 6123663 6065396 6003644 5938340 5870929 5803261 5737416 5674636 
3529.894 5615121 5558198 5502658 5447730 5393076 5339067 5286205 5234222 
3533.751 5183150 5132016 5079884 5026014 4970576 4914274 4858348 4804103 
3537.608 4752412 4703842 4658894 4617501 4579392 4544369 4511390 4479517 
3541.466 4447146 4413136 4376051 4335521 4291482 4244201 4193947 4140957 
3545.323 4084662 4024862 3961961 3896763 3831674 3769169 3711518 3660492 
3549.181 3615652 3575694 3538178 3500599 3460686 3417169 3370050 3320365 
3553.038 3269518 3219177 3170678 3125020 3082538 3043564 3007796 2975100 
3556.896 2944875 2916321 2888968 2861585 2833269 2803421 2771140 2736429 
3560.753 2700286 2664379 2631476 2605108 2587875 2581776 2586742 2600142 
3564.610 2616609 2629609 2630776 2613409 2573176 2509619 2426945 2332427 
3568.468 2234666 2141489 2057753 1985783 1924940 1873557 1828701 1788309 
3572.325 1750881 1715918 1683885 1655047 1629603 1607088 1586735 1567281 
3576.183 1547961 1528675 1509656 1491569 1474313 1457258 1439273 1419127 
3580.040 1395925 1370330 1343972 1319943 1301564 1291594 1291262 1300335 
3583.897 1316054 1335032 1352315 1362319 1359694 1339685 1299305 1238558 
3587.755 1161408 1075204 989149 912442 851749 810485 788311 782070 787481 
3592.094 798900 811182 820444 823465 817921 803215 779448 748214 712435 
3596.434 675830 642314 614408 593206 577479 564772 551402 534714 513350 
3600.774 487874 460044 433045 409663 391224 379451 374808 377030 385884 
3605.113 399747 415732 429496 435997 430889 411620 379550 339093 297280 
3609.453 260644 233525 215921 205181 195800 182905 163447 137660 108792 
3613.792 82379 63920 57491 64351 82644 107765 133451 152045 156719 143427 
3618.614 111410 65278 13121 -35186 -71397 -91572 -95713 -87332 -71431 -51984 
3623.436 -29885 -3710 30517 76944 137859 211579 291975 367844 424654 448966 
3628.258 431752 374642 290715 201435 127220 80788 65378 76446 105312 141803 
3633.080 177469 207070 229215 245924 261771 280669 304641 333622 365556 
3637.419 398553 431685 465782 502934 545231 593604 647159 703674 761059 
3641.759 819016 879472 947041 1026146 1119915 1228590 1348194 1472152 
3645.616 1592588 1702080 1794231 1864605 1910163 1928102 1915888 1873158 
3649.474 1803081 1714221 1620424 1537719 1477937 1448548 1448814 1471587 
3653.331 1506132 1540845 1564920 1569409 1550222 1507993 1448681 1381831 
3657.188 1318181 1266438 1231281 1212740 1206726 1207092 1206660 1199882 
3661.046 1184598 1162505 1138252 1117590 1104501 1100249 1103339 1111045 
3664.903 1122506 1139714 1168086 1214269 1283685 1378972 1500978 1650856 
3668.761 1836421 2074665 2392993 2823864 3392256 4113093 4989479 6019636 
3672.618 7201117 8527923 9980258 11492305 12933404 14113026 14807562 
3675.993 14857173 14228186 13012982 11376576 9497051 7542982 5648687 3924881 
3679.851 2456067 1283054 406247 -212569 -630679 -910396 -1102625 -1238010 
3683.708 -1333055 -1394722 -1427484 -1438779 -1439340 -1440034 -1450766 
3687.083 -1477217 -1520143 -1577162 -1643746 -1716261 -1791601 -1867225 
3690.459 -1939966 -2005834 -2061273 -2103712 -2132992 -2150434 -2159039 
3693.834 -2161676 -2160292 -2156006 -2149477 -2141631 -2133553 -2126233 
3697.209 -2119803 -2113208 -2104438 -2091808 -2075683 -2058535 -2045773 
3700.584 -2043761 -2056953 -2086269 -2127618 -2173314 -2215150 -2246532 
3703.960 -2264595 -2269638 -2263606 -2248674 -2226061 -2195568 -2156896 
3707.335 -2110768 -2059459 -2007154 -1959658 -1922680 -1900941 -1897906 
3710.710 -1914994 -1951544 -2004845 -2069187 -2137839 -2202326 -2255333 
3714.085 -2291985 -2311200 -2314233 -2305532 -2289843 -2271550 -2252498 
3717.461 -2232852 -2211491 -2186667 -2158445 -2128706 -2100481 -2077299 
3720.836 -2061273 -2052303 -2048279 -2045872 -2042211 -2035748 -2027569 
3724.211 -2019719 -2015036 -2015828 -2023380 -2037001 -2054314 -2071100 
3727.586 -2083004 -2085543 -2075453 -2051940 -2016586 -1973907 -1929641 
3730.962 -1890120 -1859900 -1839478 -1826082 -1814698 -1801863 -1788565 
3734.337 -1781008 -1788103 -1818625 -1875110 -1952105 -2036836 -2115022 
3737.712 -2175524 -2213139 -2228435 -2225039 -2206612 -2174831 -2129497 
3741.087 -2070803 -2001283 -1928354 -1865377 -1829480 -1836640 -1892892 
3744.463 -1987332 -2092138 -2176776 -2221644 -2222633 -2188678 -2134311 
3747.838 -2076046 -2026579 -1994885 -1984528 -1994687 -2022193 -2063581 
3751.213 -2115714 -2175524 -2237599 -2295249 -2340697 -2368676 -2377573 
3754.588 -2370126 -2351375 -2327416 -2303587 -2283284 -2268320 -2259651 
3757.964 -2258662 -2267133 -2287305 -2319704 -2361195 -2405220 -2442255 
3761.339 -2464231 -2466076 -2447922 -2414710 -2375069 -2337533 -2309520 
3764.714 -2294721 -2292546 -2299105 -2308827 -2317858 -2324285 -2328602 
3768.089 -2333282 -2340862 -2353022 -2369697 -2389107 -2408317 -2424166 
3771.465 -2434216 -2437610 -2434578 -2426901 -2416390 -2405088 -2393885 
3774.840 -2382318 -2368939 -2351869 -2330217 -2304905 -2279065 -2257442 
3778.215 -2245246 -2245938 -2259486 -2281999 -2306718 -2327218 -2338819 
3781.590 -2340598 -2335259 -2327020 -2320429 -2318155 -2320692 -2326559 
3784.966 -2333150 -2338324 -2341587 -2343498 -2345871 -2349925 -2355890 
3788.341 -2363271 -2370785 -2376914 -2381132 -2383175 -2383307 -2380869 
3791.716 -2375530 -2365875 -2350946 -2330810 -2307081 -2282559 -2261134 
3795.091 -2245840 -2238060 -2235917 -2234632 -2227709 -2209644 -2177139 
3798.467 -2131607 -2078849 -2028756 -1992840 -1982417 -2003559 -2053754 
3801.842 -2120067 -2184128 -2229555 -2246367 -2233841 -2198930 -2154324 
3805.217 -2113604 -2089599 -2090852 -2117891 -2163951 -2216271 -2262947 
3808.592 -2295710 -2312189 -2314299 -2305532 -2288689 -2264529 -2231995 
3811.968 -2189205 -2135564 -2072946 -2006989 -1945375 -1898269 -1873757 
3815.343 -1875275 -1898566 -1931752 -1960021 -1970114 -1955931 -1918359 
3818.718 -1866235 -1811597 -1768997 -1752365 -1769162 -1817833 -1886953 
3822.093 -1959691 -2020313 -2058997 -2074562 -2071627 -2058239 -2042409 
3825.469 -2030866 -2026678 -2029382 -2035088 -2038748 -2036209 -2025392 
3828.844 -2006989 -1983670 -1959394 -1937986 -1922186 -1912685 -1908529 
3832.219 -1906648 -1902755 -1893057 -1874450 -1845680 -1808000 -1764212 
3835.594 -1720287 -1681903 -1655497 -1645232 -1652097 -1674113 -1705963 
3838.969 -1741639 -1776026 -1806086 -1831229 -1852477 -1871514 -1890582 
3842.345 -1911201 -1934589 -1961175 -1990168 -2019983 -2048082 -2071298 
3845.720 -2086565 -2091314 -2083894 -2063779 -2031064 -1985979 -1928057 
3849.095 -1856766 -1771967 -1674740 -1569833 -1466287 -1378208 -1324433 
3852.470 -1322880 -1383558 -1500926 -1652460 -1807109 -1938613 -2034066 
3855.846 -2093523 -2124419 -2135498 -2134805 -2126859 -2113670 -2095534 
3859.221 -2072287 -2044817 -2014739 -1984627 -1956854 -1933401 -1914862 
3862.596 -1901766 -1894805 -1894343 -1900512 -1911234 -1922120 -1926507 
3865.971 -1917336 -1890318 -1845977 -1790809 -1735402 -1693884 -1679196 
3869.347 -1697547 -1745567 -1809320 -1871514 -1916974 -1939438 -1941813 
3872.722 -1933632 -1926177 -1928453 -1944122 -1970246 -1999238 -2021170 
3876.097 -2029020 -2019785 -1995214 -1960021 -1920833 -1884710 -1857162 
3879.472 -1841556 -1837795 -1843041 -1851487 -1856436 -1852906 -1838422 
3882.848 -1814731 -1787377 -1764839 -1756688 -1769690 -1805195 -1856766 
3886.223 -1912025 -1955865 -1977008 -1971664 -1943033 -1899325 -1851652 
3889.598 -1811597 -1787740 -1784374 -1800609 -1830932 -1867390 -1901766 
3892.973 -1928684 -1944848 -1949070 -1941648 -1923505 -1896158 -1861154 
3896.349 -1820869 -1778302 -1735534 -1695633 -1660415 -1631368 -1609614 
3899.724 -1595616 -1589179 -1590434 -1598423 -1612585 -1631731 -1654936 
3903.099 -1681507 -1710320 -1740814 -1771802 -1801863 -1829447 -1853368 
3906.474 -1872470 -1886591 -1895630 -1900281 -1900842 -1898203 -1892397 
3909.850 -1883984 -1873394 -1861088 -1847627 -1833572 -1818922 -1803645 
3913.225 -1787740 -1770812 -1753652 -1737514 -1723950 -1714445 -1710287 
3916.600 -1710947 -1715699 -1722300 -1729165 -1734940 -1739098 -1741408 
3919.975 -1741672 -1738999 -1732960 -1723125 -1710023 -1695732 -1683454 
3923.351 -1676919 -1678305 -1688405 -1705435 -1725501 -1744048 -1757348 
3926.726 -1763552 -1762199 -1754840 -1742662 -1726921 -1708307 -1687679 
3930.101 -1666456 -1646948 -1632754 -1627076 -1631995 -1647146 -1669789 
3933.476 -1695435 -1719033 -1736821 -1746953 -1750022 -1747547 -1741771 
3936.852 -1734412 -1725864 -1716063 -1704445 -1690979 -1676193 -1661637 
3940.227 -1649490 -1641733 -1639983 -1644373 -1653913 -1666654 -1679427 
3943.602 -1689461 -1694082 -1691804 -1683454 -1670780 -1656916 -1645694 
3946.977 -1640346 -1642921 -1653649 -1670813 -1691309 -1711574 -1728736 
3950.353 -1741111 -1748240 -1751012 -1750550 -1748339 -1745402 -1742563 
3953.728 -1740253 -1738273 -1736524 -1734247 -1730584 -1724907 -1716921 
3957.103 -1706920 -1695996 -1685665 -1677843 -1673816 -1673750 -1677546 
3960.478 -1683916 -1691441 -1699131 -1706260 -1712399 -1717515 -1721475 
3963.854 -1723851 -1724412 -1722762 -1718802 -1712861 -1705336 -1696755 
3967.229 -1687019 -1675896 -1663287 -1648995 -1633810 -1618065 -1603572 
3970.604 -1591391 -1582477 -1577426 -1576073 -1578252 -1583501 -1591226 
3973.979 -1600932 -1611759 -1622653 -1631830 -1638300 -1641006 -1640148 
3977.354 -1636286 -1631005 -1625789 -1621630 -1618890 -1617437 -1616216 
3980.730 -1614928 -1612849 -1610175 -1607072 -1604101 -1601394 -1599281 
3984.105 -1597333 -1595484 -1593570 -1591721 -1590202 -1589377 -1590103 
3987.480 -1592645 -1597366 -1604596 -1613674 -1623742 -1633216 -1640049 
3990.855 -1642393 -1639224 -1630542 -1617437 -1602450 -1587594 -1575313 
3994.231 -1566796 -1562141 -1560358 -1560127 -1560655 -1560754 -1561051 
3997.606 -1562008 -1563956 -1567555 -1572573 -1578549 -1584689 -1590004 
##END=
