
##TITLE=Z345_3_a
##JCAMP-DX=5.01  $$ Nicolet v. 1
##DATATYPE=INFRARED SPECTRUM
##ORIGIN=UniL
##OWNER=Nicolet
##LONGDATE=2011/09/14
##TIME=10:16:57
##SPECTROMETER/DATA SYSTEM=Nicolet iS5
##DATA PROCESSING=
Ratio against background
%Transmittance->Absorbance
Truncated
ElementMultiply or ElementDivide
##COMMENTS=
Number of sample scans: 32
Collection length: 51.22 sec
Sample gain: 2.0
Background collected on: Mer Sep 14 10:08:15 2011 (GMT+02:00);
Number of background scans: 32
Background gain: 2.0
Sample spacing:  1.000
Number of scan points: 12415
Resolution points: 8192
Number of FFT points: 65536
Apodization: N-B fort;
Phase correction: Mertz;
Laser frequency: 15798.0 cm-1
Number of rejected sample scans: 0
Number of rejected background scans: 0
Bench serial number: ASB1000141;
##RESOLUTION=4.000
##XUNITS=1/CM
##YUNITS=ABSORBANCE
##FIRSTX=649.893372
##LASTX=4000.122314
##FIRSTY=0.128300
##MAXX=4000.122314
##MINX=649.893372
##MAXY=0.479641
##MINY=-0.002193
##XFACTOR=1.000000
##YFACTOR=1.000000E-009
##NPOINTS=6950
##DELTAX=0.482117
##ZPD=6100
##XYDATA=(X++(Y..Y))
649.893 128300008 128589776 128983872 129485648 130075616 130721856 
652.786 131396800 132097872 132852968 133709144 134704880 135850672 
655.679 137116864 138451152 139802048 141147440 142503936 143917808 
658.571 145436336 147079920 148831824 150649376 152491920 154346896 
661.464 156240832 158223296 160341280 162604128 164974400 167373472 
664.357 169716032 171934608 173976240 175799728 177343152 178500096 
667.250 179137936 179151888 178541888 177424752 175963648 174272752 
670.142 172379808 170246336 167816080 165062720 162018832 158781760 
673.035 155474560 152222976 149104592 146142416 143325568 140637552 
675.928 138080560 135682128 133477584 131488872 129708840 128101856 
678.820 126618880 125217720 123880800 122615112 121440392 120371568 
681.713 119405936 118522144 117692104 116894144 116126128 115404584 
684.606 114756736 114203664 113748768 113375720 113056344 112763280 
687.498 112477920 112195240 111916680 111640032 111352664 111030968 
690.391 110647128 110182480 109634264 109017832 108357104 107674840 
693.284 106983088 106281304 105561552 104820680 104065240 103314728 
696.177 102593288 101919208 101299184 100725920 100185496 99665256 99162704 
699.551 98685608 98247912 97860136 97523464 97228920 96962032 96710544 
702.926 96470096 96244280 96041280 95865808 95714736 95576880 95438752 
706.301 95292192 95139304 94992560 94868456 94781976 94741880 94750832 
709.676 94812688 94936856 95138968 95434704 95826272 96288656 96760648 
713.051 97154528 97369864 97315472 96941200 96245312 95277760 94119256 
716.425 92867192 91614232 90430152 89366064 88452520 87701600 87114208 
719.800 86679768 86382696 86203240 86123880 86132368 86219128 86372952 
723.175 86572976 86777592 86926880 86946192 86758000 86307712 85574616 
726.550 84581472 83387240 82075544 80737312 79447312 78263888 77220960 
729.925 76330728 75589616 74982528 74488496 74082608 73741448 73446384 
733.300 73184192 72949904 72743512 72567264 72421296 72301328 72198328 
736.674 72102368 72005008 71902400 71795400 71687952 71583856 71485248 
740.049 71391824 71304072 71224040 71157720 71112520 71094288 71103896 
743.424 71135384 71178216 71218920 71247888 71261088 71260264 71250000 
746.799 71234576 71215104 71190072 71156856 71115056 71067168 71018976 
750.174 70976488 70942856 70917736 70898768 70883992 70875008 70878256 
753.548 70901808 70952456 71032480 71137696 71259760 71389992 71523296 
756.923 71659664 71803016 71958280 72128736 72315024 72516784 72735872 
760.298 72978632 73255568 73579464 73960096 74403392 74911424 75485960 
763.673 76133312 76869536 77719144 78720176 79922048 81384640 83187352 
767.048 85422032 88176320 91515064 95433712 99823344 104423664 108844272 
770.423 112604800 115189832 116208688 115476072 113078184 109343920 
773.315 104774120 99930008 95272880 91141464 87707200 84989352 82909064 
776.690 81337600 80149696 79235152 78515192 77938616 77467984 77078968 
780.065 76757672 76499744 76309480 76195536 76164184 76215008 76339736 
783.440 76525864 76763040 77047944 77384464 77780456 78241352 78765536 
786.815 79344280 79965272 80618616 81303280 82027600 82806408 83655032 
790.189 84586624 85610192 86733848 87971008 89343760 90882096 92621960 
793.564 94594736 96819984 99300536 102020152 104944456 108020528 111186128 
796.939 114366784 117480704 120453320 123221240 125744104 128010992 
799.832 130034984 131842032 133454960 134886960 136142288 137228928 
802.724 138180352 139070640 140014864 141171360 142705984 144767280 
805.617 147470704 150870752 154958864 159655936 164823536 170254576 
808.510 175665744 180734784 185086448 188334784 190158096 190311824 
811.402 188681120 185290512 180288784 173922432 166487696 158326992 
814.295 149781632 141159200 132743568 124752032 117332896 110580480 
817.188 104528480 99169704 94469152 90376704 86834568 83780904 81156184 
820.563 78900576 76956080 75273480 73810648 72536592 71432984 70488352 
823.938 69695272 69045592 68527688 68126672 67827296 67615784 67483008 
827.312 67423560 67433624 67507936 67637856 67810184 68008808 68216992 
830.687 68416704 68592176 68728128 68810960 68832000 68789960 68694856 
834.062 68567152 68437528 68339640 68301048 68339992 68460536 68653992 
837.437 68902904 69187360 69489608 69794448 70090344 70367976 70618616 
840.812 70835624 71015816 71160328 71274360 71364168 71433496 71481224 
844.186 71501224 71484744 71425960 71324928 71189760 71033928 70873888 
847.561 70723728 70592384 70484488 70402144 70347248 70324032 70338288 
850.936 70395832 70500624 70653392 70852392 71095112 71379592 71706048 
854.311 72074552 72484208 72930656 73407384 73906944 74424584 74960320 
857.686 75519160 76110248 76742608 77422000 78150544 78927992 79754368 
861.060 80633176 81572656 82582744 83674512 84854624 86125744 87487392 
864.435 88940016 90487688 92141544 93917904 95837464 97924104 100200776 
867.810 102692408 105423712 108414560 111673408 115183784 118895664 
870.703 122708192 126471208 130005256 133099824 135554496 137208240 
873.596 137945072 137720880 136562736 134570256 131897864 128738824 
876.488 125313672 121825608 118453584 115340664 112576160 110210536 
879.381 108260632 106719720 105568816 104782640 104334672 104194984 
882.274 104330800 104708376 105290264 106039928 106923912 107908968 
885.166 108963488 110056784 111155832 112230032 113254344 114211040 
888.059 115092952 115901240 116641816 117320400 117941088 118506600 
890.952 119022208 119499728 119959984 120428616 120933112 121493464 
893.844 122115376 122787096 123479888 124154256 124761664 125253840 
896.737 125589624 125735704 125675472 125412016 124971784 124401280 
899.630 123762344 123125760 122554432 122099704 121797312 121665880 
902.523 121714736 121949008 122374144 122997096 123824744 124860104 
905.415 126101312 127541664 129173424 130990608 132992016 135179568 
908.308 137554624 140113216 142843760 145724928 148732448 151842000 
911.201 155031680 158284064 161581248 164899856 168210896 171479088 
914.093 174667344 177745648 180691184 183487952 186121776 188571856 
916.986 190805904 192782928 194453504 195769440 196691488 197188160 
919.879 197240048 196839504 195993024 194725504 193083888 191142064 
922.771 188990304 186728384 184460752 182277088 180257856 178476112 
925.664 176992992 175866736 175145056 174851504 174973840 175447440 
928.557 176157232 176929296 177555760 177835152 177582384 176676704 
931.450 175080096 172842432 170095856 167029696 163878896 160870704 
934.342 158202016 156026944 154429344 153432640 153007040 153089680 
937.235 153597600 154443104 155550640 156849056 158271952 159756192 
940.128 161228176 162605872 163805264 164736704 165318944 165489824 
943.020 165209040 164471408 163310016 161801552 160055072 158198832 
945.913 156370864 154686736 153232752 152060848 151186112 150600192 
948.806 150280016 150200912 150338752 150671680 151179024 151837104 
951.698 152620240 153505520 154473792 155514576 156625040 157806144 
954.591 159058000 160376304 161751872 163174192 164635952 166135392 
957.484 167676336 169264352 170901856 172585152 174304272 176047184 
960.377 177805760 179578640 181371232 183191232 185043152 186924368 
963.269 188826080 190736336 192647216 194558176 196476544 198412416 
966.162 200372464 202356720 204357712 206366304 208376400 210389664 
969.055 212414016 214458704 216526672 218610384 220691872 222750544 
971.947 224769984 226745072 228682848 230599744 232515280 234446176 
974.840 236408304 238419632 240502704 242689264 245014720 247508784 
977.733 250189600 253057040 256095712 259280928 262588944 266002752 
980.625 269509120 273092640 276725632 280358912 283928160 287357248 
983.518 290568608 293499392 296098656 298328800 300164416 301591968 
986.411 302618240 303278144 303646144 303832128 303959328 304157376 
989.304 304530784 305145248 306034080 307202080 308641280 310341056 
992.196 312291872 314480992 316884480 319466912 322183616 324990144 
995.089 327857664 330775712 333750464 336792640 339905664 343076576 
997.982 346281184 349491552 352691872 355884960 359091264 362336480 
1000.874 365637952 368997184 372401248 375832896 379282848 382756736 
1003.767 386271136 389842656 393474816 397152320 400845664 404528416 
1006.660 408189920 411843168 415517664 419243232 423031776 426867904 
1009.552 430711584 434514624 438241696 441876000 445419200 448874688 
1012.445 452231872 455457824 458506464 461332064 463911648 466251488 
1015.338 468381088 470330944 472115840 473724352 475128640 476302848 
1018.231 477243008 477973184 478538496 478982784 479325920 479557120 
1021.123 479640768 479538496 479224384 478693632 477952768 476998528 
1024.016 475799584 474294368 472395456 470019296 467107520 463631104 
1026.909 459589664 454994048 449852864 444173280 437972448 431299296 
1029.802 424241824 416930976 409526944 402181280 395033216 388195968 
1032.695 381751072 375770336 370316064 365434880 361155936 357472224 
1035.588 354335744 351656512 349320416 347214464 345235680 343312192 
1038.481 341400032 339471776 337510208 335501312 333436384 331317248 
1041.374 329160160 326993248 324844160 322730464 320651456 318590592 
1044.267 316525376 314443392 312351680 310280480 308272992 306369504 
1047.160 304599168 302973120 301488608 300139872 298925408 297850496 
1050.053 296921920 296138656 295485472 294931424 294440576 293981024 
1052.947 293534432 293098144 292677280 292272704 291871264 291441440 
1055.840 290938656 290318624 289541920 288580576 287415520 286026912 
1058.733 284392192 282488992 280302496 277839520 275133472 272247872 
1061.626 269260928 266252256 263296688 260451968 257765264 255281872 
1064.519 253044816 251098752 249482928 248219696 247308992 246725184 
1067.412 246425088 246352288 246447264 246656480 246924784 247196688 
1070.305 247417984 247531712 247491248 247269152 246860112 246280384 
1073.198 245558000 244722928 243795936 242787280 241702656 240550464 
1076.091 239348688 238127456 236919472 235755840 234657696 233633696 
1078.984 232685904 231815536 231028592 230335536 229746160 229262848 
1081.877 228875344 228562480 228299744 228065808 227851264 227657920 
1084.770 227494336 227366736 227273792 227204960 227145952 227086272 
1087.663 227024784 226970320 226938320 226943936 226996848 227102880 
1090.556 227269456 227510848 227854368 228336384 228991424 229843184 
1093.449 230893200 232118480 233473472 234901696 236346864 237754208 
1096.343 239077520 240277104 241316224 242166816 242812992 243255072 
1099.236 243509088 243599472 243547424 243356608 243007808 242459696 
1102.129 241665152 240581536 239186768 237485008 235504464 233289568 
1105.022 230889952 228361200 225759056 223137232 220550672 218045536 
1107.915 215651792 213380064 211218080 209136848 207097712 205065696 
1110.808 203014176 200926080 198791952 196603728 194352288 192030128 
1113.701 189634976 187176384 184675632 182166592 179686896 177270000 
1116.594 174943856 172728096 170636496 168681744 166874944 165222768 
1119.487 163722176 162354912 161085888 159863760 158632976 157340976 
1122.380 155944704 154417488 152745712 150924304 148954096 146838560 
1125.273 144585968 142210256 139733888 137186576 134600304 132008864 
1128.166 129442168 126923848 124473384 122104400 119824920 117637064 
1131.059 115535648 113509232 111541064 109614912 107718824 105849840 
1133.952 104015304 102231248 100519600 98900664 97392256 96007344 94752968 
1137.328 93634176 92653704 91812800 91110152 90540464 90094264 89758064 
1140.703 89516576 89355888 89263216 89228424 89241648 89290440 89359184 
1144.078 89429320 89479888 89493080 89455376 89359264 89202624 88987712 
1147.453 88720280 88408736 88066488 87712504 87369872 87066344 86829256 
1150.829 86680768 86637288 86707392 86892928 87191632 87598744 88107848 
1154.204 88708488 89384984 90115424 90869800 91614640 92315064 92935808 
1157.579 93446032 93816856 94019848 94029632 93823600 93384568 92705592 
1160.954 91789920 90651040 89308672 87786968 86111080 84304744 82393712 
1164.330 80403928 78361544 76294344 74226728 72179008 70167680 68204432 
1167.705 66298536 64459116 62695132 61016404 59432312 57949840 56573628 
1171.080 55305812 54147140 53098700 52163368 51345444 50650388 50083816 
1174.455 49649164 49349008 49184744 49158952 49276664 49546240 49978560 
1177.831 50586428 51382368 52377284 53581348 55004280 56656224 58549296 
1181.206 60694952 63103348 65779812 68720784 71910456 75314656 78881576 
1184.581 82528928 86142792 89588072 92700136 95309528 97271112 98470984 
1187.956 98855560 98435368 97284304 95523704 93302288 90790320 88146720 
1191.332 85511024 82999064 80684688 78605000 76759920 75118880 73627592 
1194.707 72219544 70832576 69413048 67925504 66356824 64712600 63015112 
1198.082 61294400 59587008 57927652 56345340 54863084 53494772 52245276 
1201.457 51112060 50086496 49156724 48309336 47532788 46817528 46156128 
1204.833 45542468 44970056 44431688 43920308 43429632 42956224 42501128 
1208.208 42069724 41671284 41316384 41016616 40782376 40622592 40545940 
1211.583 40559432 40669052 40879092 41190792 41602616 42109992 42706864 
1214.958 43386608 44142124 44966124 45849428 46779368 47740520 48714548 
1218.333 49681816 50625408 51530756 52387004 53187752 53930024 54614948 
1221.709 55247932 55840052 56407436 56968572 57543260 58147460 58791232 
1225.084 59477868 60204644 60964928 61750380 62553092 63365236 64178816 
1228.459 64985924 65777920 66547840 67291808 68010408 68709104 69397232 
1231.834 70087232 70793736 71532752 72324104 73192464 74165216 75275216 
1235.210 76555352 78035168 79741392 81694144 83907784 86392840 89154816 
1238.585 92194144 95502568 99063336 102848616 106820936 110940992 115167632 
1241.960 119461072 123785304 128099976 132357536 136504240 140474560 
1244.853 144197872 147605056 150621568 153172880 155182992 156567056 
1247.746 157242448 157136448 156191360 154378992 151702048 148195840 
1250.639 143923168 138973952 133465648 127528768 121311040 114966600 
1253.532 108632872 102435192 96475016 90821024 85520824 80598392 76058104 
1256.908 71890048 68072912 64577976 61370908 58417216 55685176 53146592 
1260.283 50779792 48570084 46507668 44587632 42807336 41165324 39659516 
1263.658 38286484 37041276 35918244 34911092 34013648 33220376 32525174 
1267.033 31921688 31402520 30960008 30587230 30279318 30033722 29850370 
1270.409 29730388 29675220 29685188 29760442 29901232 30109678 30390068 
1273.784 30748630 31190608 31717434 32323632 32994810 33706308 34423848 
1277.159 35108624 35716744 36204612 36535928 36682280 36629284 36378196 
1280.534 35945884 35361784 34661212 33884952 33070572 32250396 31452462 
1283.910 30697382 30000384 29372136 28817942 28338756 27931294 27589774 
1287.285 27307090 27076674 26894566 26758554 26667116 26618110 26606414 
1290.660 26623958 26662326 26712814 26770184 26833164 26903236 26983724 
1294.035 27077026 27184072 27304584 27438402 27586950 27753702 27943378 
1297.411 28160714 28408154 28685646 28990942 29321724 29676816 30057512 
1300.786 30466194 30905750 31377412 31880430 32413020 32973792 33563388 
1304.161 34184824 34842156 35538708 36274844 37046800 37847676 38667528 
1307.536 39496184 40322900 41135892 41922824 42669688 43361344 43984980 
1310.912 44530836 44993868 45373600 45672272 45892552 46035464 46099716 
1314.287 46082732 45982824 45799536 45535732 45195864 44787048 44316896 
1317.662 43793736 43228716 42634776 42027420 41424228 40841016 40290396 
1321.037 39779800 39311444 38884176 38495556 38144976 37834516 37568208 
1324.413 37350556 37184772 37072600 37013816 37008876 37059356 37168820 
1327.788 37341564 37580096 37884084 38249428 38669952 39139032 39651128 
1331.163 40202284 40789076 41405676 42042932 42687232 43320596 43924488 
1334.538 44479736 44967740 45372792 45679632 45876348 45955344 45915716 
1337.914 45765372 45520976 45208220 44857032 44495740 44149128 43833544 
1341.289 43557488 43324804 43137512 42998000 42910796 42881392 42915516 
1344.664 43018816 43196104 43452776 43794472 44226164 44750644 45365728 
1348.039 46063060 46827268 47638452 48475312 49315676 50137736 50920672 
1351.415 51641088 52275096 52800792 53198872 53458644 53578536 53566696 
1354.790 53438332 53213252 52914480 52564640 52186980 51805732 51442864 
1358.165 51119252 50851604 50650088 50518904 50457308 50463632 50538704 
1361.540 50688928 50924772 51258304 51696284 52235520 52860964 53547576 
1364.916 54264672 54975208 55641560 56223960 56679740 56971632 57070360 
1368.291 56961132 56647120 56147556 55492288 54711976 53834932 52884168 
1371.666 51876256 50828992 49765224 48714476 47717328 46817308 46052336 
1375.041 45449784 45021364 44767176 44683804 44772428 45042384 45512992 
1378.417 46207500 47146960 48343816 49794544 51474048 53326864 55269272 
1381.792 57178108 58898948 60277344 61166628 61460792 61108956 60111136 
1385.167 58517412 56415848 53944356 51274336 48587872 46062836 43826320 
1388.542 41941760 40413804 39204920 38257316 37507520 36900212 36389332 
1391.917 35938904 35526156 35138804 34776492 34448992 34172708 33964416 
1395.293 33834624 33783192 33799456 33864572 33953632 34039704 34099012 
1398.668 34114244 34081484 34011644 33928556 33859808 33829144 33852892 
1402.043 33937116 34081668 34283740 34541544 34854544 35220800 35632176 
1405.418 36070224 36505040 36903604 37234840 37480644 37640288 37730096 
1408.794 37778092 37814600 37868464 37959328 38098600 38291912 38542804 
1412.169 38854168 39227588 39661584 40149360 40678988 41237824 41815476 
1415.544 42406792 43013072 43638188 44285376 44955208 45646360 46360396 
1418.919 47103340 47889664 48733716 49640436 50603816 51606872 52630392 
1422.295 53658612 54688560 55731812 56811180 57951580 59169404 60466732 
1425.670 61833428 63255100 64722172 66236124 67806504 69445248 71159672 
1429.045 72948024 74802448 76715128 78686136 80724392 82840608 85039848 
1432.420 87312632 89636912 91976520 94292088 96545768 98692136 100682800 
1435.796 102465064 103995640 105256736 106271232 107098144 107801632 
1438.689 108434680 109025160 109573920 110056952 110428392 110629592 
1441.582 110587112 110223224 109472056 108284224 106644528 104576664 
1444.475 102144888 99439320 96554008 93583000 90604096 87685016 84898136 
1447.850 82317256 80010600 78023792 76363472 74997496 73867072 72912984 
1451.225 72089264 71375688 70774152 70295160 69940776 69693328 69511344 
1454.601 69336824 69112416 68795400 68384672 67930504 67526440 67262760 
1457.976 67184856 67286280 67528064 67865768 68262280 68692920 69138240 
1461.351 69578152 69991064 70351304 70632728 70816896 70899088 70895144 
1464.726 70837368 70770720 70736600 70762688 70864800 71049064 71317392 
1468.102 71671264 72111952 72639672 73252552 73948312 74726016 75587176 
1471.477 76537408 77584992 78741584 80016064 81420520 82972784 84693120 
1474.852 86606512 88736216 91093032 93671584 96447296 99384088 102441240 
1478.227 105583272 108786256 112029840 115297888 118578040 121859512 
1481.120 125139968 128426344 131732080 135067360 138428816 141788784 
1484.013 145096416 148274432 151218880 153817936 155947424 157480368 
1486.906 158302384 158311504 157430464 155621184 152902208 149370960 
1489.800 145208336 140677808 136072752 131646184 127580416 123954184 
1492.693 120761952 117956696 115478624 113285016 111368248 109751784 
1495.586 108474440 107556360 106969224 106614920 106333016 105949680 
1498.479 105295080 104237616 102709584 100700136 98258672 95474288 92465040 
1501.854 89347296 86204408 83088240 79994592 76861832 73582408 70024472 
1505.229 66084176 61763024 57242136 52860776 48977508 45797588 43312392 
1508.604 41363140 39760808 38346956 37022408 35744908 34510404 33333742 
1511.980 32228376 31198476 30234912 29321052 28438012 27569366 26702104 
1515.355 25827074 24941734 24053042 23180884 22353342 21597364 20927842 
1518.730 20339102 19805084 19285194 18740532 18151640 17535492 16942960 
1522.105 16435361 16050462 15786113 15606960 15463176 15313054 15131900 
1525.481 14920746 14700029 14498644 14336663 14216921 14127641 14052651 
1528.856 13982224 13917386 13867608 13842500 13844415 13863879 13882079 
1532.231 13878624 13844894 13790884 13745327 13738453 13787908 13889126 
1535.606 14021235 14156053 14269272 14345464 14378617 14370192 14325500 
1538.982 14249995 14146263 14018223 13876571 13739377 13625920 13546161 
1542.357 13494718 13451619 13389320 13286032 13133793 12943577 12739831 
1545.732 12550026 12390953 12261589 12147256 12027026 11885648 11719636 
1549.107 11539837 11365794 11216470 11100135 11011628 10937208 10863310 
1552.483 10784261 10704175 10634730 10588111 10570084 10576161 10593680 
1555.858 10606446 10601387 10567741 10498148 10388351 10241806 10075708 
1559.233 9921030 9812701 9772100 9799280 9879573 9989920 10107417 10210800 
1563.091 10287064 10333786 10360185 10383261 10420558 10482093 10565501 
1566.466 10657820 10742042 10805593 10844626 10866266 10884849 10916822 
1569.841 10973635 11057409 11164961 11291279 11433893 11591356 11761847 
1573.216 11939557 12113695 12271269 12402886 12509374 12607191 12724204 
1576.592 12889098 13114839 13395744 13714242 14052890 14400297 14754049 
1579.967 15117937 15497101 15892336 16298320 16703272 17093784 17459774 
1583.342 17795938 18101546 18378160 18625450 18840870 19019874 19160306 
1586.717 19264516 19341346 19405268 19471554 19553692 19660110 19794262 
1590.093 19957390 20152160 20383862 20660024 20988380 21372184 21810432 
1593.468 22298404 22831204 23407248 24029756 24705378 25441178 26240452 
1596.843 27100620 28014374 28971176 29959768 30967338 31979606 32978508 
1600.218 33940552 34840252 35652424 36355788 36938488 37398728 37744692 
1603.594 37991040 38155212 38252180 38289668 38267484 38177972 38009736 
1606.969 37751236 37395228 36941556 36397152 35775096 35093112 34374248 
1610.344 33644828 32934614 32274592 31689416 31192494 30783414 30447924 
1613.719 30162168 29897576 29629350 29339662 29025230 28699556 28390646 
1617.094 28131512 27945252 27839644 27805978 27825018 27871158 27917514 
1620.470 27939668 27916454 27835900 27698286 27519270 27324698 27143790 
1623.845 26998286 26894988 26827278 26780086 26737516 26687128 26621564 
1627.220 26538784 26439998 26328278 26207190 26080964 25953930 25829994 
1630.595 25711822 25598322 25483654 25356058 25198616 24991530 24714566 
1633.971 24353802 23909376 23403996 22881810 22396984 21993906 21689518 
1637.346 21474420 21322520 21205602 21098562 20984208 20854936 20711280 
1640.721 20560828 20413484 20278274 20158372 20049542 19940392 19813996 
1644.096 19652172 19437492 19159578 18818760 18430566 18024036 17635692 
1647.472 17299272 17034646 16845678 16721591 16642606 16581533 16504431 
1650.847 16372219 16139381 15766494 15245752 14629943 14029003 13548862 
1654.222 13235029 13063959 12982256 12937876 12895516 12837631 12758904 
1657.597 12662281 12553914 12439436 12321682 12199631 12070188 11929613 
1660.973 11775226 11607215 11428449 11245814 11068795 10907410 10770199 
1664.348 10661623 10580846 10521639 10473607 10423952 10358963 10267318 
1667.723 10142893 9987140 9809888 9626542 9454652 9307270 9190633 9104071 
1671.581 9041648 8994423 8951127 8899953 8828869 8728925 8599093 8449400 
1675.438 8300399 8174172 8085789 8036911 8017673 8012239 8006097 7990369 
1679.295 7964248 7934180 7908500 7892642 7883295 7867674 7824927 7733748 
1683.153 7581857 7378352 7156752 6963580 6833164 6771907 6763528 6782509 
1687.010 6807415 6823133 6822123 6802905 6768205 6722404 6671325 6621968 
1690.868 6581161 6554553 6544528 6548733 6559060 6562087 6543351 6491015 
1694.725 6404083 6295820 6193398 6125276 6105214 6127494 6169939 6205867 
1698.583 6208825 6162377 6067177 5946603 5839663 5778446 5774854 5817432 
1702.440 5884901 5955606 6013924 6050714 6063112 6054241 6032503 6008079 
1706.297 5989803 5982479 5986443 5998907 6015369 6031865 6046279 6058475 
1710.155 6069966 6082936 6098527 6116068 6133005 6145372 6149237 6142213 
1714.012 6123663 6094159 6053939 6001763 5934678 5850107 5749100 5638953 
1717.870 5533531 5448199 5393143 5369593 5370532 5384589 5399551 5405791 
1721.727 5398478 5377040 5344468 5305223 5263567 5221881 5180702 5140131 
1725.584 5100703 5063122 5028931 4998261 4970342 4943229 4915849 4888873 
1729.442 4865853 4851144 4847693 4853992 4863105 4862637 4837775 4778006 
1733.299 4684114 4573298 4474496 4416618 4412835 4457222 4532449 4618003 
1737.157 4697746 4760184 4800150 4818175 4820051 4813886 4807688 4806851 
1741.014 4812714 4823636 4836166 4846855 4852450 4851043 4841695 4824775 
1744.872 4801256 4772646 4740085 4704177 4665090 4622390 4575643 4524213 
1748.729 4467332 4404601 4335086 4259057 4178658 4098308 4025030 3965874 
1752.586 3925884 3906091 3903048 3909367 3915151 3911507 3892016 3855944 
1756.444 3808543 3759443 3718436 3690833 3675996 3668311 3659823 3643016 
1760.301 3613881 3572821 3524549 3476584 3436171 3408319 3395228 3396497 
1764.159 3409788 3431930 3458247 3483331 3501601 3508516 3502570 3486470 
1768.016 3466297 3448963 3438476 3433934 3429158 3415432 3384943 3335524 
1771.874 3272756 3209964 3161432 3136201 3134498 3149517 3171779 3192674 
1775.731 3208462 3219077 3227055 3234699 3241809 3245581 3241843 3227422 
1779.588 3202287 3169576 3135767 3106332 3083673 3066521 3050237 3029984 
1783.446 3002458 2967627 2927962 2888268 2852212 2822130 2798685 2781478 
1787.303 2770774 2766672 2769540 2777943 2788581 2795684 2792816 2774975 
1791.161 2741230 2695751 2647677 2606409 2579843 2570576 2576576 2593442 
1795.018 2616875 2643210 2670047 2695351 2717023 2732728 2740597 2740130 
1798.875 2732827 2721558 2710388 2702586 2699552 2701019 2705254 2710821 
1802.733 2717323 2725759 2737429 2753334 2773041 2795017 2817061 2837204 
1806.590 2855148 2871057 2886133 2900910 2914619 2925527 2931999 2932966 
1810.448 2929030 2922291 2915453 2910616 2908849 2909749 2912484 2916554 
1814.305 2922358 2931231 2944708 2963057 2985476 3009931 3033621 3054742 
1818.163 3072928 3089646 3107300 3127924 3153289 3183327 3217508 3254261 
1822.020 3292153 3329246 3363739 3394193 3419907 3441515 3461921 3485068 
1825.877 3514161 3550939 3593033 3635933 3672855 3698385 3710650 3713356 
1829.735 3714994 3725688 3753828 3801691 3865605 3937720 4009579 4074995 
1833.592 4130988 4177655 4217099 4251528 4281677 4306942 4325916 4337362 
1837.450 4341311 4339370 4333814 4326954 4319892 4312162 4302123 4287031 
1841.307 4263875 4229378 4181536 4120117 4048005 3972795 3904386 3853971 
1845.165 3828666 3830036 3853303 3889642 3929361 3963968 3989682 4006904 
1849.022 4019846 4033791 4052520 4076668 4104262 4131691 4156679 4179261 
1852.879 4201743 4227538 4258655 4294794 4332643 4368386 4398710 4423078 
1856.737 4443430 4462980 4484640 4509180 4535194 4559771 4580766 4597609 
1860.594 4611774 4625605 4640675 4656985 4672994 4686626 4697143 4705852 
1864.452 4716034 4730806 4750938 4774019 4794589 4805343 4800988 4780116 
1868.309 4746650 4708096 4672224 4644057 4623595 4607186 4589137 4565061 
1872.167 4532851 4492541 4445405 4392819 4335186 4272207 4203616 4130420 
1876.024 4054059 3977142 3901210 3826460 3751188 3672989 3590661 3504441 
1879.881 3417336 3332886 3254862 3184629 3121449 3063051 3007495 2954183 
1883.739 2904946 2861952 2827532 2801120 2780011 2759270 2734495 2702653 
1887.596 2663679 2619442 2573443 2529148 2489490 2456200 2430943 2415083 
1891.454 2409485 2414184 2427278 2444938 2461832 2473395 2477327 2474628 
1895.311 2468796 2464264 2464231 2468963 2475927 2481659 2483525 2481193 
1899.168 2476727 2473595 2474528 2479826 2487857 2495189 2499121 2498321 
1903.026 2493323 2485525 2476494 2466297 2454134 2439040 2420714 2400856 
1906.883 2382099 2366940 2356079 2348184 2340289 2329395 2314705 2297584 
1910.741 2281229 2269637 2264608 2266040 2271236 2277365 2282661 2286525 
1914.598 2290022 2293720 2296884 2296984 2291021 2277465 2257514 2235598 
1918.456 2217381 2206491 2202761 2201395 2196067 2181215 2155540 2123142 
1922.313 2092477 2072667 2069538 2083488 2108891 2138026 2163133 2180416 
1926.170 2189673 2193236 2194002 2193703 2192804 2191105 2189773 2191438 
1930.028 2199198 2215383 2239162 2267039 2293087 2312706 2324066 2329729 
1933.885 2334392 2342654 2355546 2370405 2381566 2383498 2373836 2355080 
1937.743 2333226 2314838 2303146 2296884 2291255 2279996 2259579 2231302 
1941.600 2200829 2175920 2161568 2158537 2161901 2165896 2165031 2158238 
1945.458 2148448 2140356 2137726 2141688 2149980 2159137 2166696 2172590 
1949.315 2178551 2186843 2197199 2207024 2211453 2206091 2189640 2165031 
1953.172 2138026 2113985 2095640 2081357 2066608 2046167 2017638 1982920 
1957.030 1946673 1914257 1888000 1865837 1842377 1812597 1774069 1729956 
1960.887 1686778 1651854 1628572 1615868 1609316 1603330 1596446 1591324 
1964.745 1593951 1608917 1637718 1674072 1707568 1727328 1726064 1703676 
1968.602 1665258 1617863 1567514 1515774 1461015 1401642 1338389 1276341 
1972.459 1223938 1188452 1173501 1177488 1195164 1221911 1256834 1303791 
1976.317 1369133 1456094 1561728 1674505 1779226 1862143 1915988 1942779 
1980.174 1949868 1947605 1944210 1942746 1943212 1943678 1943245 1943412 
1984.032 1947073 1955460 1967342 1979125 1986115 1986382 1982288 1979991 
1987.889 1986947 2006953 2038677 2073932 2103730 2120545 2123708 2119213 
1991.747 2118247 2131033 2162134 2208689 2262443 2313473 2355680 2387962 
1995.604 2414850 2441672 2471929 2504753 2534814 2555844 2563577 2557744 
1999.461 2541913 2520650 2497355 2471795 2441072 2400756 2349083 2286858 
2003.319 2219612 2153809 2096206 2050362 2017172 1995768 1985283 1985416 
2007.176 1996700 2019369 2050562 2086950 2124174 2159336 2192204 2224974 
2011.034 2259512 2296351 2332360 2362376 2381566 2387429 2383265 2375369 
2014.891 2371238 2377268 2394526 2420614 2449736 2477161 2501454 2524349 
2018.749 2548979 2577876 2610942 2645444 2678548 2708554 2737129 2768339 
2022.606 2805788 2850745 2900810 2950913 2995585 3032319 3063151 3092383 
2026.463 3125688 3166773 3215004 3267815 3320933 3373289 3426353 3483464 
2030.321 3547532 3618057 3691769 3763554 3829234 3889508 3948487 4012489 
2034.178 4085030 4164909 4244502 4315442 4369993 4407279 4433254 4458996 
2038.036 4495118 4547683 4616195 4694095 4772579 4844543 4908041 4965046 
2041.893 5020182 5075727 5132486 5186168 5232880 5268731 5293282 5309046 
2045.750 5319981 5330581 5343965 5362180 5386971 5420016 5461151 5509672 
2049.608 5561319 5609649 5647646 5671279 5680779 5681988 5683901 5695819 
2053.465 5722509 5762363 5807526 5847857 5875530 5888293 5890846 5892324 
2057.323 5902232 5925408 5960779 6001393 6037744 6061969 6069697 6061230 
2061.180 6040231 6011102 5977810 5943177 5909890 5880904 5859880 5849436 
2065.038 5849838 5856992 5864078 5863608 5850107 5823073 5787882 5752928 
2068.895 5726370 5712874 5712236 5719454 5728082 5733588 5734696 5733958 
2072.752 5735469 5741680 5752961 5765619 5775760 5780393 5779353 5776230 
2076.610 5775390 5781334 5795840 5818137 5845607 5874993 5904146 5931386 
2080.467 5955673 5975761 5989736 5995716 5992423 5981405 5966019 5951171 
2084.325 5941195 5938575 5943378 5952784 5963533 5972737 5979422 5984058 
2088.182 5987115 5989265 5989064 5984663 5974081 5956915 5934309 5909184 
2092.040 5884934 5864213 5848898 5839797 5837513 5842618 5856253 5878721 
2095.897 5908815 5943378 5977239 6004753 6021819 6026993 6021484 6008314 
2099.754 5990508 5970520 5949257 5926885 5903911 5881912 5863709 5851350 
2103.612 5845271 5843525 5841778 5835163 5820723 5798492 5771798 5746414 
2107.469 5727142 5716667 5714418 5717171 5721569 5725329 5728317 5732313 
2111.327 5739766 5751283 5765552 5779319 5788486 5789896 5781972 5765083 
2115.184 5740438 5710087 5675441 5637979 5599278 5561722 5527692 5499638 
2119.042 5478465 5463600 5452696 5443066 5432665 5420989 5408643 5397001 
2122.899 5386601 5376336 5364058 5348091 5327663 5304988 5283489 5267524 
2126.756 5258972 5257295 5258335 5255954 5245389 5223423 5190259 5148580 
2130.614 5101977 5054138 5007009 4962566 4922585 4890046 4867998 4858314 
2134.471 4860425 4869673 4879189 4881568 4872689 4851948 4823234 4792378 
2138.329 4762830 4735395 4706153 4670683 4624533 4568778 4507606 4449121 
2142.186 4400250 4364604 4340240 4322135 4304231 4282246 4255142 4224895 
2146.043 4194583 4164507 4133497 4097907 4054427 4001453 3941298 3877105 
2149.901 3812320 3748715 3684785 3618391 3547198 3471240 3392657 3313521 
2153.758 3234599 3153088 3064953 2966726 2860417 2756435 2671380 2626309 
2157.616 2637776 2712355 2842507 3010064 3192306 3368413 3525251 3656983 
2161.473 3763989 3848355 3913212 3964001 4006771 4050480 4104362 4173975 
2165.331 4259693 4354262 4445673 4521501 4572562 4597107 4599853 4589639 
2169.188 4574403 4558967 4543464 4524882 4499906 4468035 4432149 4397372 
2173.045 4369725 4352790 4347402 4352891 4368252 4392920 4428099 4473525 
2176.903 4526456 4580766 4628083 4660870 4676243 4676511 4669678 4666363 
2180.760 4675138 4700358 4740286 4789262 4840254 4888170 4930360 4966018 
2184.618 4995043 5016059 5026852 5025511 5013042 4992831 4971682 4956466 
2188.475 4951071 4956366 4969269 4985189 5001043 5017467 5037478 5066575 
2192.333 5107877 5161053 5221579 5282616 5337491 5381938 5415587 5440516 
2196.190 5460412 5476820 5491350 5503128 5511719 5518228 5525041 5535511 
2200.047 5552157 5576187 5606763 5642578 5681921 5724188 5769347 5816827 
2203.905 5865153 5911166 5951507 5983924 6008649 6028539 6048093 6071848 
2207.762 6101887 6136970 6173535 6207078 6234875 6256825 6275313 6294508 
2211.620 6317234 6344837 6376745 6411144 6447227 6485264 6526499 6572448 
2215.477 6622944 6676036 6728663 6776417 6817075 6849455 6874331 6893048 
2219.334 6905942 6912607 6912607 6906076 6895101 6883487 6876048 6877159 
2223.192 6888066 6907423 6931292 6955903 6978664 6999002 7019038 7041128 
2227.049 7067194 7097303 7130075 7163489 7196535 7229348 7262905 7298452 
2230.907 7336261 7375117 7413538 7450547 7486717 7523664 7564055 7609439 
2234.764 7659415 7711352 7762047 7808734 7850804 7889841 7928950 7970727 
2238.622 8016053 8063308 8109284 8150910 8186767 8218067 8247074 8277097 
2242.479 8309484 8344172 8379031 8411765 8441562 8468928 8496296 8526064 
2246.336 8559823 8597336 8636980 8676866 8715876 8754045 8792554 8832657 
2250.194 8875029 8919096 8963844 9008868 9054910 9103733 9157942 9218689 
2254.051 9284860 9353108 9418454 9476020 9522790 9558049 9583792 9602456 
2257.909 9616616 9627761 9636400 9642973 9648122 9654220 9663097 9677123 
2261.766 9697079 9722017 9750176 9779387 9808633 9837951 9868422 9900759 
2265.624 9934557 9968595 10000634 10028811 10052751 10073809 10094902 
2268.999 10118541 10146691 10179049 10214735 10251611 10288387 10324963 
2272.374 10361780 10399618 10438343 10477206 10514272 10548458 10579522 
2275.749 10608857 10638975 10672218 10710016 10751756 10795538 10838510 
2279.125 10879040 10916754 10953587 10992359 11036303 11086912 11144530 
2282.500 11206882 11270705 11332361 11388549 11437022 11476893 11508704 
2285.875 11534257 11556136 11576927 11598673 11622597 11648429 11675045 
2289.250 11700403 11722869 11741797 11757933 11773048 11789083 11807741 
2292.625 11829565 11853877 11879246 11904445 11928523 11951546 11974264 
2296.001 11997425 12021440 12046171 12071176 12096046 12120611 12145723 
2299.376 12172301 12201062 12232279 12265100 12298333 12329999 12358804 
2302.751 12384271 12406261 12425934 12444039 12461633 12479194 12496893 
2306.126 12514695 12532462 12549378 12564760 12577652 12587408 12593615 
2309.502 12596787 12598254 12600061 12604292 12612511 12625474 12642871 
2312.877 12663202 12684763 12705507 12723624 12737920 12747372 12751330 
2316.252 12749827 12743004 12731812 12718335 12704619 12693190 12686333 
2319.627 12685582 12691791 12704722 12723521 12746654 12772007 12797156 
2323.003 12819679 12837085 12847665 12850667 12846845 12837801 12826163 
2326.378 12814288 12804493 12798078 12795417 12796951 12802890 12814049 
2329.753 12831522 12856879 12890942 12933576 12983656 13038828 13096331 
2333.128 13153874 13209513 13262187 13312065 13359421 13405347 13450765 
2336.504 13496734 13544076 13593406 13644793 13698067 13752817 13808875 
2339.879 13866171 13925186 13986501 14050255 14115969 14182412 14248386 
2343.254 14313513 14379541 14450683 14533862 14636523 14764300 14919718 
2346.629 15099651 15296854 15499745 15696201 15874876 16025845 16142957 
2350.005 16223125 16267119 16278917 16265262 16234785 16195439 16154168 
2353.380 16115619 16081888 16053418 16030142 16012197 15999613 15993357 
2356.755 15993668 16000371 16012678 16030073 16052010 16079308 16113006 
2360.130 16154684 16205275 16264779 16332000 16405595 16484058 16566800 
2363.506 16654827 16749278 16851534 16962114 17080238 17204012 17331512 
2366.881 17460844 17591800 17724934 17861772 18003590 18151534 18306098 
2370.256 18467110 18634822 18809348 18991142 19180910 19378590 19583292 
2373.631 19793812 20008286 20224636 20441894 20659050 20876144 21092820 
2377.007 21309122 21524624 21738980 21951558 22161976 22369912 22574668 
2380.382 22775890 22972594 23164074 23349450 23528186 23700246 23865652 
2383.757 24024432 24177000 24323524 24464454 24600626 24733226 24863378 
2387.132 24992234 25120286 25247252 25372252 25494476 25613118 25728310 
2390.508 25841000 25952312 26063372 26175200 26287336 26399150 26509446 
2393.883 26616876 26720672 26820404 26915892 27007770 27096494 27182624 
2397.258 27267220 27351126 27435014 27518884 27602520 27685326 27766628 
2400.633 27846286 27925110 28004620 28086832 28173476 28265268 28362526 
2404.009 28464084 28568782 28675522 28783740 28893508 29004720 29117236 
2407.384 29230420 29343740 29456982 29570750 29686748 29807214 29934244 
2410.759 30068732 30210474 30357342 30507034 30657026 30805822 30953140 
2414.134 31099442 31245294 31391588 31538394 31685784 31833828 31983066 
2417.510 32133888 32287120 32442618 32599780 32757394 32913882 33068496 
2420.885 33221058 33372276 33523046 33674616 33827320 33981292 34136396 
2424.260 34292916 34451612 34613628 34779908 34950988 35126340 35304420 
2427.635 35483800 35663252 35842056 36020724 36200072 36380864 36563284 
2431.010 36746936 36931236 37115188 37298236 37480248 37660776 37839504 
2434.386 38016136 38190088 38361760 38531724 38701608 38872900 39046764 
2437.761 39223380 39401880 39581072 39759828 39937788 40116040 40296032 
2441.136 40479412 40667420 40859908 41056020 41254184 41453168 41651624 
2444.511 41848748 42043628 42235232 42422172 42603200 42777940 42947080 
2447.887 43112408 43276260 43440324 43605548 43771200 43935816 44097744 
2451.262 44255364 44408052 44555948 44699080 44836936 44968768 45093440 
2454.637 45210464 45320268 45424620 45525944 45626408 45727708 45830096 
2458.012 45933100 46035720 46137224 46237572 46336836 46435204 46532340 
2461.388 46627320 46718780 46805976 46888536 46967388 47043116 47116456 
2464.763 47186816 47252528 47310976 47359900 47397812 47424936 47442380 
2468.138 47451692 47454172 47450328 47439316 47419728 47390196 47349772 
2471.513 47297968 47235388 47163360 47083624 46998808 46912016 46826828 
2474.889 46745788 46671000 46602348 46537948 46474220 46407476 46334704 
2478.264 46254196 46166336 46072892 45975716 45876716 45776268 45674000 
2481.639 45569220 45460748 45348112 45231052 45109760 44984464 44855340 
2485.014 44722988 44588440 44453160 44318804 44186872 44057844 43931600 
2488.390 43806784 43682228 43557012 43431060 43305072 43179636 43055216 
2491.765 42931208 42805948 42677692 42544836 42406680 42263644 42116708 
2495.140 41967308 41815876 41662640 41507196 41349184 41188788 41026448 
2498.515 40862928 40698344 40532444 40363552 40189852 40009972 39823016 
2501.891 39629532 39430836 39229036 39026644 38825364 38627108 38432888 
2505.266 38243748 38060224 37882384 37709640 37540828 37374064 37208272 
2508.641 37042216 36876332 36711272 36548252 36388144 36231080 36077032 
2512.016 35925408 35776680 35631888 35493148 35362864 35242932 35133776 
2515.392 35034668 34942976 34856336 34772152 34688844 34606556 34525832 
2518.767 34448164 34374676 34306400 34244192 34188696 34140016 34098400 
2522.142 34063032 34032712 34006300 33982044 33958864 33936688 33915940 
2525.517 33897636 33882340 33869944 33858912 33847304 33832476 33812456 
2528.893 33786096 33753936 33717408 33678556 33639532 33602260 33567860 
2532.268 33536754 33508622 33482600 33457476 33431962 33405050 33376354 
2535.643 33346262 33315852 33286590 33259760 33236116 33215728 33197880 
2539.018 33181142 33164368 33146522 33126962 33105578 33082406 33057020 
2542.394 33029954 33001102 32971110 32940478 32909628 32879178 32848906 
2545.769 32818530 32787658 32756322 32725058 32694906 32666932 32641358 
2549.144 32617818 32594922 32570816 32543886 32514070 32482040 32449830 
2552.519 32419414 32392278 32368432 32347408 32327488 32307428 32287154 
2555.895 32267596 32250468 32237586 32230124 32227698 32229520 32233552 
2559.270 32237656 32240368 32240760 32238368 32233410 32226450 32218314 
2562.645 32210532 32204430 32201864 32203860 32210856 32222596 32238264 
2566.020 32256856 32277950 32301504 32328312 32359008 32394030 32433086 
2569.396 32475506 32520246 32566816 32615210 32665864 32719518 32776508 
2572.771 32836758 32899622 32964606 33031456 33100642 33173524 33251320 
2576.146 33334636 33423192 33515100 33608456 33700936 33791072 33879224 
2579.521 33966208 34053712 34143528 34236664 34333472 34433856 34537204 
2582.896 34643088 34750328 34857808 34964128 35067392 35166004 35258884 
2586.272 35345612 35426816 35503540 35577004 35648540 35718432 35787292 
2589.647 35855696 35924256 35994192 36066768 36143100 36223408 36307296 
2593.022 36393404 36479956 36565300 36648068 36727244 36802648 36874420 
2596.397 36943032 37009528 37075016 37141100 37209284 37281196 37357636 
2599.773 37439288 37525760 37616840 37711732 37810188 37911668 38016172 
2603.148 38123164 38232496 38343700 38456164 38569744 38684184 38799348 
2606.523 38915448 39032264 39149732 39267588 39385808 39504420 39623832 
2609.898 39744180 39865580 39988100 40111456 40235432 40360024 40485268 
2613.274 40611276 40738196 40865476 40992504 41118120 41241940 41363800 
2616.649 41484156 41604400 41725484 41848200 41972676 42098240 42224056 
2620.024 42349620 42474640 42599544 42724928 42850856 42976672 43101284 
2623.399 43223444 43342120 43457684 43571040 43684060 43798176 43913928 
2626.775 44030928 44147992 44263584 44376744 44487556 44596884 44706244 
2630.150 44816656 44928608 45041464 45154392 45265764 45375216 45482528 
2633.525 45588356 45693548 45798800 45904448 46010340 46115964 46220544 
2636.900 46323492 46424144 46522052 46616992 46708888 46797968 46884700 
2640.276 46969792 47054156 47138280 47222456 47306764 47391012 47474536 
2643.651 47557152 47638604 47718884 47797440 47874460 47949156 48021352 
2647.026 48091008 48158308 48223948 48288600 48353220 48418040 48483236 
2650.401 48548780 48614036 48679264 48744464 48810120 48876860 48945244 
2653.777 49015900 49088864 49164480 49242560 49322840 49405064 49488832 
2657.152 49574096 49660752 49749216 49839916 49933472 50030016 50129408 
2660.527 50230832 50333356 50435984 50538220 50640448 50743816 50849780 
2663.902 50959828 51074640 51194328 51317928 51444472 51572840 51702408 
2667.278 51832832 51964416 52097052 52230740 52365360 52500920 52637532 
2670.653 52776060 52917328 53061856 53210072 53361708 53515944 53671960 
2674.028 53829384 53988216 54149092 54313032 54480492 54651548 54825640 
2677.403 55001872 55179344 55357636 55536532 55716476 55897932 56080932 
2680.779 56265672 56451660 56638516 56825796 57013492 57201236 57388908 
2684.154 57576324 57763100 57949124 58134920 58320760 58507440 58695184 
2687.529 58883692 59072172 59259288 59443824 59625020 59803096 59978808 
2690.904 60153188 60327064 60500592 60673464 60844800 61014112 61180860 
2694.280 61345376 61508204 61669524 61829836 61988716 62146044 62301524 
2697.655 62454952 62606668 62756760 62905064 63050812 63193320 63331500 
2701.030 63465080 63594604 63721164 63846544 63972564 64100200 64230100 
2704.405 64362236 64496324 64632496 64771056 64912932 65058468 65208524 
2707.781 65363064 65521656 65683440 65847664 66013308 66179404 66344856 
2711.156 66508332 66668352 66823296 66971720 67112496 67245080 67369232 
2714.531 67484944 67592552 67692176 67784312 67869328 67947784 68020320 
2717.906 68087480 68149928 68207968 68262008 68312072 68358448 68400992 
2721.281 68439744 68474384 68504336 68529120 68548368 68561984 68570296 
2724.657 68573744 68572696 68567496 68557800 68543248 68523656 68499328 
2728.032 68470896 68439512 68406464 68372648 68338864 68304968 68270776 
2731.407 68235872 68200520 68164616 68128960 68093408 68058256 68023032 
2734.782 67986992 67949488 67909848 67867664 67822616 67774320 67722384 
2738.158 67666352 67606304 67542424 67475264 67405880 67334720 67262104 
2741.533 67187720 67110680 67030096 66945352 66856572 66763864 66667928 
2744.908 66569240 66467552 66362964 66254652 66142976 66028348 65911948 
2748.283 65794960 65678312 65562928 65448804 65336220 65225428 65116940 
2751.659 65011440 64909740 64811556 64715864 64620616 64523540 64422108 
2755.034 64314580 64200176 64078808 63951032 63817292 63677884 63532768 
2758.409 63381872 63225052 63062616 62894920 62722312 62545328 62363984 
2761.784 62178312 61988636 61795072 61598152 61398808 61197644 60995772 
2765.160 60793880 60593456 60395940 60203424 60018336 59842720 59678312 
2768.535 59526316 59387104 59260692 59147076 59046092 58957772 58881948 
2771.910 58817828 58764184 58718852 58679596 58643680 58608940 58573524 
2775.285 58535836 58494548 58448680 58397660 58341112 58279456 58213644 
2778.661 58144996 58074848 58004024 57932840 57860980 57787852 57713372 
2782.036 57637652 57561340 57485312 57410200 57336120 57262400 57188044 
2785.411 57111776 57032764 56950216 56864164 56774136 56679328 56578272 
2788.786 56469692 56351112 56221092 56078636 55923336 55756068 55577988 
2792.162 55391100 55197740 55000708 54802712 54606272 54413708 54227020 
2795.537 54047388 53875516 53712232 53557848 53412592 53276708 53149892 
2798.912 53031496 52920620 52815688 52715716 52620064 52528292 52440684 
2802.287 52357132 52277264 52199648 52122904 52044720 51963484 51878268 
2805.663 51788892 51695952 51600416 51503000 51404000 51303124 51199548 
2809.038 51092228 50980472 50863748 50742548 50617812 50491432 50365800 
2812.413 50243032 50126172 50016444 49915516 49823792 49741296 49668184 
2815.788 49605108 49552928 49513004 49486972 49475612 49479176 49496740 
2819.164 49526968 49568192 49618968 49678324 49745684 49820520 49901580 
2822.539 49987072 50074000 50159900 50241580 50317208 50385596 50446292 
2825.914 50499620 50545928 50585384 50618520 50645400 50666472 50682224 
2829.289 50693432 50700768 50705088 50706836 50706836 50705460 50703188 
2832.665 50700620 50697824 50695068 50692280 50689820 50688292 50688928 
2836.040 50693212 50702484 50718008 50740204 50769212 50804784 50846948 
2839.415 50896864 50956364 51028056 51115300 51220908 51347648 51497964 
2842.790 51673856 51877860 52112484 52379748 52681636 53018168 53387596 
2846.166 53785164 54203184 54631596 55056484 55461944 55830596 56143788 
2849.541 56384724 56540152 56601748 56568420 56446072 56247076 55987332 
2852.916 55685216 55358916 55023912 54693260 54377020 54081988 53812244 
2856.291 53569844 53354588 53164644 52997316 52849512 52718180 52601104 
2859.667 52497144 52405320 52325252 52256224 52197704 52148832 52109156 
2863.042 52078712 52057604 52045952 52043524 52049648 52063020 52082036 
2866.417 52105496 52132504 52163404 52198900 52239816 52287428 52341996 
2869.792 52403524 52471492 52544484 52620588 52697344 52771684 52840308 
2873.167 52900896 52952176 52994472 53030260 53063356 53098476 53139476 
2876.543 53189324 53249136 53318960 53397340 53482736 53574076 53670724 
2879.918 53772640 53880060 53993652 54113812 54240832 54374920 54515616 
2883.293 54662256 54813460 54967612 55122988 55278000 55431340 55582244 
2886.668 55729852 55873328 56010780 56140092 56258428 56363260 56452448 
2890.044 56525092 56581632 56623192 56651504 56668380 56675136 56672908 
2893.419 56662488 56644252 56618432 56585216 56544644 56496868 56442488 
2896.794 56381816 56315464 56243532 56165356 56078900 55980512 55866772 
2900.169 55733580 55578180 55400436 55201764 54986004 54757644 54521740 
2903.545 54282696 54044312 53810032 53583224 53367136 53165392 52980960 
2906.920 52815688 52670560 52545832 52441320 52358180 52298116 52264816 
2910.295 52262800 52296136 52367564 52477588 52623884 52800720 53000012 
2913.670 53211680 53423868 53624048 53800052 53940000 54034140 54075456 
2917.046 54059920 53986788 53857888 53677320 53450400 53182356 52879000 
2920.421 52545528 52186196 51805316 51406460 50992916 50567924 50134984 
2923.796 49698164 49262452 48833480 48417000 48018652 47642852 47292648 
2927.171 46969308 46672732 46401060 46151856 45922272 45708900 45508984 
2930.547 45320120 45140604 44969284 44806372 44652220 44507452 44372380 
2933.922 44246560 44128844 44017800 43911692 43809056 43709304 43612216 
2937.297 43518184 43427872 43342196 43262168 43189188 43124484 43069560 
2940.672 43025216 42991308 42966648 42948620 42934096 42919868 42902900 
2944.048 42881904 42855868 42824672 42788580 42747376 42700684 42648668 
2947.423 42591652 42531424 42470692 42412708 42360984 42317588 42283768 
2950.798 42258788 42240784 42227016 42214272 42200028 42182432 42160484 
2954.173 42134344 42105140 42074876 42045816 42020376 42000520 41987308 
2957.549 41981212 41981724 41988144 41999352 42014680 42033440 42055196 
2960.924 42079364 42104992 42131240 42157052 42181992 42206384 42231144 
2964.299 42258240 42290560 42330776 42382024 42446580 42525796 42619904 
2967.674 42727592 42846248 42971884 43100444 43227104 43347832 43459404 
2971.050 43558988 43644712 43715060 43768744 43805284 43825000 43829256 
2974.425 43820788 43803012 43779444 43753132 43726016 43698756 43671348 
2977.800 43643756 43616536 43591148 43570048 43556240 43552288 43560308 
2981.175 43581224 43615180 43661672 43720076 43789084 43867340 43952680 
2984.551 44042148 44132436 44219376 44299500 44369520 44426952 44470152 
2987.926 44497868 44509100 44502716 44477128 44430920 44362252 44269380 
2991.301 44151180 44007384 43839260 43649692 43443544 43227252 43007072 
2994.676 42788984 42576888 42372272 42174360 41981396 41791436 41604036 
2998.052 41420436 41243616 41077468 40925768 40790564 40672840 40571512 
3001.427 40485012 40411404 40349224 40297268 40254696 40220420 40193192 
3004.802 40171532 40154160 40140204 40129376 40121848 40117928 40117560 
3008.177 40120508 40126104 40133664 40142640 40153068 40165280 40179164 
3011.552 40194468 40210244 40224636 40235796 40241792 40241504 40234596 
3014.928 40221652 40203628 40181892 40157796 40132424 40106440 40080280 
3018.303 40053716 40026324 39997656 39966884 39933536 39897760 39860020 
3021.678 39820872 39781216 39741164 39700392 39657880 39611960 39560816 
3025.053 39503008 39437364 39363316 39280684 39189400 39089540 38981592 
3028.429 38866560 38745912 38622328 38498560 38377612 38261768 38152248 
3031.804 38048828 37949888 37852740 37755032 37654564 37550436 37442824 
3035.179 37333300 37224008 37116988 37013892 36915468 36821364 36730276 
3038.554 36640640 36550740 36459092 36364940 36267496 36166184 36060360 
3041.930 35949376 35832412 35709044 35579520 35444716 35305856 35164996 
3045.305 35023532 34882584 34742932 34604800 34468612 34335052 34205436 
3048.680 34080948 33962696 33851068 33745732 33645580 33549316 33455652 
3052.055 33364046 33274640 33187688 33103824 33022732 32943870 32866060 
3055.431 32788050 32708980 32628786 32548066 32467648 32388852 32312178 
3058.806 32237868 32165930 32096248 32028936 31964556 31903788 31847556 
3062.181 31796216 31749800 31707704 31669140 31632860 31597972 31563942 
3065.556 31530268 31496744 31463220 31429202 31394400 31358500 31321034 
3068.932 31282008 31241662 31200220 31158034 31115318 31072214 31028652 
3072.307 30984490 30939478 30893368 30846230 30797890 30748666 30698700 
3075.682 30648490 30598216 30548482 30499674 30451942 30405280 30359226 
3079.057 30313354 30266708 30218892 30169698 30119408 30069052 30019626 
3082.433 29972230 29927854 29886500 29847672 29810726 29774780 29739188 
3085.808 29703600 29668372 29633818 29600226 29567912 29536772 29506698 
3089.183 29478010 29450918 29425850 29403406 29383480 29365790 29349304 
3092.558 29332644 29314670 29295032 29273626 29251826 29231342 29213906 
3095.934 29200934 29193210 29190552 29192288 29197320 29204122 29211496 
3099.309 29218476 29224538 29229356 29233504 29237474 29242008 29248034 
3102.684 29255796 29265508 29276778 29289042 29301592 29313998 29325802 
3106.059 29336438 29346008 29353984 29359976 29363876 29365576 29365576 
3109.435 29364760 29363982 29364266 29366322 29370222 29376000 29383622 
3112.810 29392734 29403440 29415816 29429608 29444038 29458222 29470740 
3116.185 29480316 29486698 29489890 29490812 29491024 29491734 29493472 
3119.560 29496556 29500208 29503614 29505990 29506984 29506450 29504996 
3122.936 29503152 29501664 29500990 29501664 29503896 29507906 29513578 
3126.311 29520884 29529220 29538298 29547768 29557272 29567170 29577312 
3129.686 29587882 29598808 29609308 29618954 29627326 29634492 29641160 
3133.061 29648398 29657588 29669364 29683840 29700302 29717652 29734364 
3136.437 29750118 29764736 29779038 29794260 29811436 29831346 29853954 
3139.812 29878658 29904922 29931760 29958490 29984974 30010750 30035852 
3143.187 30060246 30084074 30107262 30129778 30151726 30172822 30192714 
3146.562 30211042 30227558 30242016 30255232 30267914 30281450 30297438 
3149.938 30316516 30339362 30366048 30396004 30428556 30463386 30499320 
3153.313 30536074 30572832 30608846 30643334 30675904 30706168 30734760 
3156.688 30762074 30789106 30816850 30845912 30876398 30908382 30941792 
3160.063 30976626 31012780 31050932 31090972 31132974 31176724 31221332 
3163.438 31266018 31309926 31352482 31393084 31431980 31469702 31507004 
3166.814 31544912 31584464 31626408 31671382 31719502 31770654 31824202 
3170.189 31879324 31935026 31990484 32045058 32098104 32149694 32200220 
3173.564 32250002 32300006 32351084 32403562 32457508 32512534 32567494 
3176.939 32621320 32673114 32722310 32769364 32815028 32860916 32908450 
3180.315 32958634 33011936 33067890 33125102 33182428 33237726 33289772 
3183.690 33337962 33381794 33422158 33459768 33495876 33531528 33567504 
3187.065 33604016 33640964 33678092 33715188 33752392 33790212 33829112 
3190.440 33869192 33910424 33951948 33992900 34032568 34070592 34107616 
3193.816 34145428 34185144 34228488 34275600 34325836 34377724 34429480 
3197.191 34480092 34529276 34577636 34626440 34676532 34728684 34782456 
3200.566 34837164 34891952 34946320 35000080 35053668 35107156 35160472 
3203.941 35213288 35265176 35315888 35365704 35415596 35466936 35521016 
3207.317 35578912 35640844 35706668 35775816 35847708 35921988 35997828 
3210.692 36074220 36149548 36221968 36289972 36352800 36411204 36467272 
3214.067 36524176 36585200 36652392 36726416 36806004 36888780 36972292 
3217.442 37054088 37133412 37210440 37286144 37361676 37438060 37515936 
3220.818 37595452 37676568 37759188 37843264 37928372 38014548 38101240 
3224.193 38188244 38275156 38362048 38448996 38536212 38623304 38709976 
3227.568 38795364 38878988 38960640 39040636 39119996 39199624 39280576 
3230.943 39363096 39446836 39530916 39614244 39695856 39775480 39853412 
3234.319 39930232 40006524 40082968 40159684 40236340 40312572 40387476 
3237.694 40460464 40531168 40599380 40665632 40731136 40797228 40865516 
3241.069 40937344 41012864 41091932 41173304 41255604 41337924 41420072 
3244.444 41502492 41586352 41672708 41761704 41852652 41944644 42036036 
3247.820 42125984 42214780 42303236 42392840 42484836 42579336 42675572 
3251.195 42772236 42867348 42960068 43050608 43139928 43229812 43322204 
3254.570 43418280 43518112 43621336 43726420 43831708 43936440 44039468 
3257.945 44140656 44240064 44337700 44434368 44530212 44625708 44720860 
3261.321 44815812 44909792 45002396 45093144 45181156 45266244 45348512 
3264.696 45427972 45504896 45579484 45652284 45723328 45793388 45863312 
3268.071 45933948 46005844 46079452 46154248 46229244 46302964 46373816 
3271.446 46440736 46503168 46561332 46615700 46666608 46714720 46760360 
3274.822 46803244 46843916 46882340 46919616 46956348 46993564 47031628 
3278.197 47070736 47110436 47150172 47189324 47227592 47264904 47301148 
3281.572 47336544 47370724 47403356 47434508 47463852 47491944 47519556 
3284.947 47547692 47577152 47608284 47640636 47673396 47705312 47735416 
3288.323 47763636 47790412 47816932 47844528 47873648 47904240 47935356 
3291.698 47965516 47993304 48018060 48040080 48060104 48079460 48099040 
3295.073 48119288 48140204 48160972 48181112 48200324 48218652 48236316 
3298.448 48253644 48270232 48285636 48299116 48310372 48319480 48327816 
3301.823 48337220 48349740 48366928 48389628 48417520 48449640 48484052 
3305.199 48519028 48552932 48584316 48612740 48638496 48662180 48685492 
3308.574 48710472 48739092 48773120 48813308 48859320 48909716 48962896 
3311.949 49017348 49072320 49128120 49185740 49246120 49310256 49378560 
3315.324 49450472 49525852 49604032 49685160 49769796 49858612 49952428 
3318.700 50051352 50154956 50262744 50373764 50487636 50603852 50721916 
3322.075 50841136 50960724 51079524 51197084 51313600 51430036 51547844 
3325.450 51668820 51793524 51921996 52052752 52183840 52312808 52438256 
3328.825 52558804 52674528 52785676 52892700 52995744 53095068 53190184 
3332.201 53281160 53367700 53448976 53524004 53591472 53649956 53698768 
3335.576 53738480 53770128 53796192 53818920 53839996 53859952 53878032 
3338.951 53892808 53902940 53907516 53906428 53900016 53889248 53873980 
3342.326 53854064 53828748 53797544 53760152 53717256 53669560 53617860 
3345.702 53562948 53504852 53443576 53379580 53313716 53246816 53180072 
3349.077 53113640 53046396 52976652 52901608 52818900 52727760 52628292 
3352.452 52522272 52412272 52300508 52188700 52078188 51969612 51863372 
3355.827 51760148 51660572 51564592 51471364 51379344 51286196 51189928 
3359.203 51089288 50984196 50876152 50767052 50658876 50552552 50447372 
3362.578 50341988 50234140 50121636 50003580 49880208 49752780 49623460 
3365.953 49494660 49368388 49246008 49127564 49012524 48899184 48785724 
3369.328 48670260 48551412 48428600 48302224 48173376 48042968 47912420 
3372.704 47782424 47653172 47524656 47396776 47269412 47142492 47016232 
3376.079 46890124 46763392 46634956 46503500 46368136 46228580 46085052 
3379.454 45938732 45790920 45642532 45494372 45346784 45199432 45052196 
3382.829 44904980 44757884 44611168 44465200 44320308 44176564 44034116 
3386.205 43893220 43754084 43617340 43483500 43353176 43226700 43103592 
3389.580 42982964 42863908 42744484 42623336 42499924 42373988 42246624 
3392.955 42119192 41992856 41868232 41745108 41621612 41495528 41365036 
3396.330 41229188 41089088 40947576 40808328 40675096 40550232 40433952 
3399.706 40324572 40218384 40111820 40001800 39887152 39767744 39644848 
3403.081 39520172 39395060 39269908 39145016 39020048 38894716 38768520 
3406.456 38641488 38513220 38383296 38251204 38116292 37978380 37837624 
3409.831 37694712 37550616 37406100 37261880 37118396 36975648 36833448 
3413.207 36691728 36550272 36408968 36267388 36125528 35983284 35840620 
3416.582 35697748 35554884 35412256 35269416 35126016 34981332 34834616 
3419.957 34686080 34536128 34386584 34239316 34095788 33956712 33821872 
3423.332 33689584 33557656 33423696 33285588 33142448 32994132 32841794 
3426.708 32687366 32532922 32380678 32231804 32087046 31945794 31806662 
3430.083 31668034 31528454 31387064 31244404 31101650 30960578 30823038 
3433.458 30689880 30560852 30434988 30310512 30185752 30059784 29932256 
3436.833 29803842 29675112 29546952 29419326 29291594 29162768 29031146 
3440.208 28896164 28757328 28615176 28471338 28327900 28186840 28049612 
3443.584 27916454 27785878 27655556 27521778 27381370 27232364 27075192 
3446.959 26912226 26748016 26587252 26433728 26289166 26152924 26022208 
3450.334 25893294 25762762 25627914 25488328 25344606 25198476 25052042 
3453.709 24907204 24764902 24625524 24488572 24353346 24218900 24084108 
3457.085 23948554 23812062 23675192 23538996 23404486 23272640 23143208 
3460.460 23015214 22886978 22756824 22623394 22486584 22347622 22208388 
3463.835 22070874 21936710 21806216 21679208 21554430 21430662 21307104 
3467.210 21183406 21059606 20935770 20811728 20687512 20562636 20437448 
3470.586 20312194 20187496 20064012 19942612 19823290 19706290 19591368 
3473.961 19478348 19367226 19257726 19149744 19042480 18935036 18826338 
3477.336 18715694 18602762 18488062 18372492 18256954 18142206 18028974 
3480.711 17917154 17807260 17699740 17595320 17494406 17397898 17304754 
3484.087 17213700 17123182 17031096 16935656 16836240 16733127 16627148 
3487.462 16519334 16410826 16302001 16193271 16084913 15977200 15870614 
3490.837 15765602 15662055 15559977 15458541 15357162 15255258 15152657 
3494.212 15049670 14947015 14845516 14745617 14647832 14552193 14458254 
3497.588 14365979 14275264 14185767 14097246 14008744 13918960 13826696 
3500.963 13730383 13629578 13524250 13415565 13305369 13196294 13090935 
3504.338 12991917 12900226 12816506 12739660 12667194 12596310 12524175 
3507.713 12448302 12367873 12283880 12198813 12115773 12037825 11966600 
3511.089 11901653 11840938 11781185 11719056 11652649 11581215 11506051 
3514.464 11430015 11355489 11284512 11217830 11154423 11092384 11029404 
3517.839 10963781 10894940 10823563 10750533 10677177 10604443 10531858 
3521.214 10459080 10384890 10308982 10231391 10153170 10075810 10000465 
3524.590 9927980 9857846 9789316 9720763 9651477 9580472 9508092 9434368 
3528.447 9359675 9283676 9205963 9126032 9044152 8960834 8877329 8795327 
3532.304 8715910 8639347 8565365 8492680 8419839 8346232 8271490 8196187 
3536.162 8121539 8048286 7976768 7907354 7839603 7773550 7709632 7648185 
3540.019 7589713 7534453 7482031 7431469 7381452 7330430 7276787 7219376 
3543.877 7156853 7088310 7013347 6931932 6845988 6758076 6672234 6592329 
3547.734 6521723 6461083 6409664 6364170 6320328 6274439 6223043 6164528 
3551.592 6098863 6027900 5953657 5878990 5806384 5738054 5675676 5620558 
3555.449 5572797 5531820 5496115 5463198 5430585 5395995 5357651 5315218 
3559.306 5268765 5218963 5166954 5114013 5061379 5010796 4963739 4921278 
3563.164 4883412 4848329 4812580 4771440 4719752 4653267 4571055 4475668 
3567.021 4373808 4274750 4186788 4116137 4064527 4030213 4008108 3992558 
3570.879 3977544 3958551 3932704 3899437 3859521 3815696 3770439 3726624 
3574.736 3685954 3649198 3616119 3585783 3556618 3527355 3496725 3463959 
3578.594 3428323 3389518 3348045 3304639 3260671 3218276 3179422 3146146 
3582.451 3119013 3097789 3081070 3065920 3048902 3026113 2993550 2947944 
3586.308 2887667 2813759 2730227 2644410 2565343 2500854 2456300 2432309 
3590.166 2425979 2430876 2439140 2444071 2440706 2426811 2402888 2371671 
3594.023 2336491 2299882 2264042 2229337 2196467 2165563 2137260 2111954 
3597.881 2089414 2068539 2047699 2025461 2000994 1974965 1949602 1926571 
3601.738 1908200 1894822 1885470 1878049 1870995 1862975 1853724 1843409 
3605.595 1831796 1817555 1798690 1772905 1739204 1698653 1655047 1614038 
3609.453 1580749 1558136 1546199 1542175 1541477 1539781 1534427 1525117 
3613.310 1513712 1503172 1496257 1494594 1497919 1504270 1510055 1511052 
3617.168 1502807 1481960 1447584 1401941 1351318 1303459 1267069 1248029 
3621.025 1248461 1265906 1296048 1333636 1374186 1416235 1459818 1506231 
3624.883 1555975 1607287 1654947 1691934 1709464 1700683 1664193 1607054 
3628.740 1544902 1497254 1481162 1504170 1563490 1649492 1750482 1855954 
3632.597 1957657 2051061 2135462 2212952 2287357 2362909 2442905 2528082 
3636.455 2617575 2709154 2801053 2892704 2984808 3079135 3177620 3280635 
3640.312 3387447 3496090 3604326 3712053 3820242 3931768 4049276 4174242 
3644.170 4304633 4436200 4562115 4675305 4769765 4841728 4889778 4914643 
3648.027 4918195 4902009 4869304 4825948 4780485 4745243 4731476 4745913 
3651.885 4788425 4851378 4922015 4985290 5026148 5034126 5003657 4938034 
3655.742 4847625 4749732 4661205 4594495 4553844 4535730 4530942 4528699 
3659.599 4519090 4495319 4454276 4397439 4329162 4255610 4182004 4112056 
3663.457 4046735 3985502 3927388 3872358 3822081 3778127 3741596 3711051 
3667.314 3683047 3654377 3626711 3612344 3636668 3737285 3955040 4317349 
3671.172 4834223 5496685 6287549 7187338 8176232 9228572 10287912 11256015 
3675.029 11996915 12357816 12236846 11623652 10594800 9273758 7790214 
3678.404 6267111 4803132 3480926 2363509 1478835 822668 359719 41485 -182298 
3682.744 -350184 -482925 -589088 -670711 -730388 -775174 -816549 -865856 
3686.601 -931888 -1017149 -1116307 -1218648 -1312343 -1389140 -1445747 
3689.977 -1484449 -1508950 -1523511 -1530841 -1533218 -1533350 -1533681 
3693.352 -1536091 -1541605 -1549562 -1557815 -1563956 -1567060 -1567654 
3696.727 -1568116 -1571682 -1580761 -1595881 -1616480 -1640181 -1665564 
3700.102 -1691804 -1719495 -1749362 -1781371 -1813774 -1843668 -1867489 
3703.478 -1882335 -1887448 -1883621 -1872833 -1857162 -1838455 -1817932 
3706.853 -1796583 -1776124 -1758437 -1746689 -1743916 -1752497 -1772924 
3710.228 -1803876 -1842051 -1882797 -1921031 -1951643 -1970939 -1976183 
3713.603 -1966816 -1944023 -1911399 -1873361 -1835980 -1804536 -1783351 
3716.979 -1774310 -1777048 -1788928 -1806482 -1826445 -1846901 -1867291 
3720.354 -1887448 -1906978 -1924858 -1939240 -1948872 -1953193 -1953457 
3723.729 -1952236 -1952698 -1957052 -1965628 -1976513 -1986276 -1991092 
3727.104 -1987562 -1974732 -1953622 -1927596 -1900842 -1877848 -1862837 
3730.479 -1857888 -1863398 -1877749 -1897015 -1917007 -1935315 -1951907 
3733.855 -1970411 -1995214 -2029580 -2072485 -2118352 -2157555 -2180073 
3737.230 -2180238 -2157654 -2117165 -2066021 -2010881 -1956854 -1906351 
3740.605 -1860560 -1821034 -1791040 -1776916 -1787377 -1829381 -1904042 
3743.980 -2000293 -2096392 -2166127 -2192634 -2175062 -2125969 -2063185 
3747.356 -2003031 -1958668 -1936337 -1936964 -1955172 -1983209 -2013552 
3750.731 -2041024 -2063218 -2079344 -2087588 -2085279 -2070605 -2043168 
3754.106 -2006197 -1964903 -1925847 -1893980 -1872899 -1862837 -1862012 
3757.481 -1867159 -1875407 -1885007 -1895366 -1905527 -1913675 -1916776 
3760.857 -1911399 -1895531 -1869798 -1837828 -1804965 -1777510 -1759526 
3764.232 -1752926 -1755599 -1763453 -1771439 -1776058 -1776850 -1776058 
3767.607 -1777576 -1784539 -1798860 -1819483 -1843602 -1866235 -1883522 
3770.982 -1892628 -1893156 -1886755 -1875901 -1863266 -1851157 -1840764 
3774.358 -1832285 -1824960 -1817569 -1809122 -1799322 -1789423 -1782328 
3777.733 -1780513 -1786387 -1800510 -1820506 -1842183 -1860263 -1870788 
3781.108 -1872239 -1865674 -1853962 -1840566 -1828062 -1817635 -1809188 
3784.483 -1802127 -1796088 -1791601 -1790149 -1793284 -1801665 -1814434 
3787.859 -1829447 -1843503 -1853962 -1859406 -1859537 -1855974 -1850431 
3791.234 -1844031 -1837531 -1830932 -1823805 -1816645 -1810937 -1808363 
3794.609 -1810673 -1818493 -1830305 -1842216 -1849442 -1847858 -1835815 
3797.984 -1815556 -1791700 -1772066 -1764740 -1775960 -1808594 -1859505 
3801.360 -1918788 -1972621 -2008044 -2018334 -2004482 -1973709 -1936667 
3804.735 -1904801 -1887580 -1890483 -1912784 -1947750 -1983407 -2007055 
3808.110 -2010782 -1992774 -1956755 -1909485 -1857789 -1807109 -1760351 
3811.485 -1718670 -1682728 -1653352 -1632622 -1624469 -1632292 -1658501 
3814.861 -1701244 -1753586 -1803183 -1836970 -1846505 -1830734 -1796088 
3818.236 -1753685 -1716657 -1695633 -1697481 -1723125 -1765697 -1812488 
3821.611 -1848881 -1864453 -1856205 -1829018 -1791436 -1753223 -1722201 
3824.986 -1702300 -1693884 -1694247 -1698042 -1699462 -1694643 -1682596 
3828.362 -1665036 -1645925 -1629519 -1619451 -1617635 -1623643 -1634999 
3831.737 -1647773 -1657742 -1661505 -1657511 -1646123 -1629420 -1611363 
3835.112 -1596343 -1588783 -1591655 -1605982 -1629717 -1658402 -1685896 
3838.487 -1705831 -1714610 -1711112 -1697217 -1676853 -1654936 -1635296 
3841.863 -1621167 -1614400 -1615060 -1622389 -1633678 -1646057 -1656223 
3845.238 -1661273 -1659128 -1649127 -1631533 -1607798 -1579803 -1549661 
3848.613 -1519219 -1490294 -1465164 -1447035 -1441123 -1453739 -1491681 
3851.988 -1560226 -1658699 -1776916 -1894244 -1987925 -2041321 -2050126 
3855.364 -2021896 -1969586 -1906450 -1842117 -1782625 -1731112 -1687745 
3858.739 -1651998 -1622950 -1599974 -1582973 -1572210 -1567819 -1569635 
3862.114 -1577261 -1590169 -1607732 -1629057 -1652163 -1673816 -1689494 
3865.489 -1695270 -1688933 -1671176 -1646750 -1623016 -1607402 -1606246 
3868.865 -1622290 -1651965 -1686193 -1713851 -1726161 -1721112 -1703257 
3872.240 -1680351 -1661505 -1652658 -1655596 -1666654 -1678701 -1684279 
3875.615 -1677414 -1656850 -1624733 -1586703 -1549099 -1518096 -1498219 
3878.990 -1492044 -1498780 -1515158 -1535596 -1553755 -1563659 -1563131 
3882.365 -1552467 -1535992 -1519945 -1511790 -1517370 -1538996 -1573134 
3885.741 -1611198 -1642294 -1656322 -1648763 -1621564 -1581685 -1537907 
3889.116 -1499407 -1473717 -1464603 -1471571 -1490129 -1513540 -1534770 
3892.491 -1548439 -1551840 -1545170 -1529586 -1507266 -1480420 -1451691 
3895.866 -1423257 -1397661 -1377778 -1365260 -1361627 -1366845 -1379859 
3899.242 -1397926 -1418369 -1438283 -1455852 -1470778 -1483359 -1495181 
3902.617 -1507167 -1519912 -1532492 -1543123 -1549033 -1547647 -1537610 
3905.992 -1518757 -1492803 -1462424 -1430952 -1401493 -1376292 -1357135 
3909.367 -1344186 -1337084 -1334442 -1334343 -1335003 -1334706 -1331965 
3912.743 -1326712 -1319478 -1312045 -1306661 -1306364 -1312541 -1325721 
3916.118 -1344418 -1365260 -1384384 -1398289 -1404729 -1403738 -1396737 
3919.493 -1385639 -1372593 -1358918 -1345343 -1332064 -1320139 -1310295 
3922.868 -1303886 -1302168 -1305472 -1313069 -1323079 -1332724 -1339760 
3926.244 -1342700 -1341247 -1335895 -1327736 -1317727 -1306529 -1294999 
3929.619 -1284098 -1275079 -1269198 -1267711 -1270850 -1278184 -1287831 
3932.994 -1297543 -1305835 -1311484 -1315018 -1317496 -1320040 -1322979 
3936.369 -1325886 -1327010 -1324433 -1316472 -1302862 -1284263 -1262987 
3939.745 -1242140 -1224761 -1213394 -1209363 -1212932 -1222679 -1236159 
3943.120 -1250300 -1261831 -1268537 -1269595 -1265927 -1259650 -1253868 
3946.495 -1251324 -1254166 -1262392 -1274814 -1288756 -1301673 -1311583 
3949.870 -1317991 -1321295 -1322715 -1323640 -1324532 -1325523 -1326250 
3953.246 -1326184 -1325358 -1323739 -1321790 -1319313 -1316340 -1312144 
3956.621 -1305934 -1297741 -1288029 -1278118 -1269595 -1263681 -1261302 
3959.996 -1261963 -1265168 -1269363 -1273955 -1278547 -1282974 -1287533 
3963.371 -1291795 -1295198 -1296651 -1294801 -1288954 -1279373 -1266885 
3966.747 -1253241 -1240223 -1230113 -1223703 -1221324 -1222844 -1226974 
3970.122 -1232129 -1237349 -1240686 -1241380 -1239100 -1234243 -1227899 
3973.497 -1221390 -1216533 -1214121 -1214419 -1216996 -1220003 -1222183 
3976.872 -1221952 -1218813 -1213328 -1206720 -1200442 -1195849 -1193602 
3980.248 -1193239 -1194296 -1195221 -1194858 -1192644 -1188249 -1182103 
3983.623 -1174767 -1167035 -1159038 -1151536 -1144563 -1138317 -1133426 
3986.998 -1130254 -1129328 -1130882 -1134847 -1140532 -1146976 -1153188 
3990.373 -1158211 -1161384 -1162375 -1161285 -1158410 -1154378 -1149719 
3993.749 -1145555 -1142647 -1142184 -1144563 -1149818 -1157220 -1165382 
3997.124 -1172553 -1177311 -1178865 -1177807 -1175329 -1173214 -1172851 
4000.499 -1174569 
##END=
