
##TITLE=Z351_2_b
##JCAMP-DX=5.01  $$ Nicolet v. 1
##DATATYPE=INFRARED SPECTRUM
##ORIGIN=UniL
##OWNER=Nicolet
##LONGDATE=2011/09/13
##TIME=13:38:34
##SPECTROMETER/DATA SYSTEM=Nicolet iS5
##DATA PROCESSING=
Ratio against background
%Transmittance->Absorbance
Truncated
ElementMultiply or ElementDivide
##COMMENTS=
Number of sample scans: 32
Collection length: 51.19 sec
Sample gain: 2.0
Background collected on: Mar Sep 13 11:10:05 2011 (GMT+02:00);
Number of background scans: 32
Background gain: 2.0
Sample spacing:  1.000
Number of scan points: 12415
Resolution points: 8192
Number of FFT points: 65536
Apodization: N-B fort;
Phase correction: Mertz;
Laser frequency: 15798.0 cm-1
Number of rejected sample scans: 0
Number of rejected background scans: 0
Bench serial number: ASB1000141;
##RESOLUTION=4.000
##XUNITS=1/CM
##YUNITS=ABSORBANCE
##FIRSTX=649.893372
##LASTX=4000.122314
##FIRSTY=0.112814
##MAXX=4000.122314
##MINX=649.893372
##MAXY=0.327302
##MINY=-0.004719
##XFACTOR=1.000000
##YFACTOR=1.000000E-009
##NPOINTS=6950
##DELTAX=0.482117
##ZPD=6100
##XYDATA=(X++(Y..Y))
649.893 112813544 112244960 111738496 111317896 110985008 110728136 
652.786 110536592 110414504 110382680 110474792 110715864 111110728 
655.679 111636680 112254064 112923496 113626592 114374456 115202448 
658.571 116152792 117252768 118506776 119899808 121413136 123041480 
661.464 124801632 126724480 128841344 131167368 133697064 136416816 
664.357 139322832 142434016 145771360 149328192 152997520 156488560 
667.250 159346224 161056704 161296720 160121040 157899696 155094320 
670.142 152045760 148945584 145858272 142782800 139716704 136680592 
673.035 133715720 130877096 128204840 125714408 123401616 121252952 
675.928 119259488 117421944 115745848 114232024 112867032 111622368 
678.820 110458984 109337872 108232448 107132200 106041280 104969808 
681.713 103927192 102915304 101929640 100963440 100013640 99083864 98184312 
685.088 97328120 96525576 95782560 95099784 94474048 93900304 93372696 
688.463 92883808 92422040 91971120 91511096 91019928 90480632 89884136 
691.838 89231232 88531736 87800672 87055856 86312152 85585224 84890960 
695.212 84245728 83668368 83176192 82780632 82486008 82286216 82167976 
698.587 82113368 82107008 82139792 82210696 82324464 82487696 82703256 
701.962 82967616 83270464 83597544 83936568 84279600 84624384 84972872 
705.337 85326200 85683248 86039256 86387992 86726000 87056216 87388632 
708.712 87740408 88131584 88587152 89133504 89800760 90624344 91638816 
712.086 92869536 94320328 95960272 97715168 99465480 101074656 102404872 
715.461 103347512 103852656 103931704 103657512 103140368 102520696 
718.354 101946696 101552800 101467200 101793744 102597608 103894448 
721.247 105625272 107650808 109738168 111604080 112962912 113564912 
724.139 113277872 112108808 110213352 107845504 105308840 102892080 
727.032 100793616 99119040 97879768 97024056 96470960 96141776 95980936 
730.407 95951176 96027432 96186928 96399928 96633264 96858576 97056984 
733.782 97226304 97376752 97525000 97684136 97858808 98045096 98234784 
737.156 98420856 98601400 98779928 98962456 99154296 99356592 99568312 
740.531 99787816 100015520 100254448 100508328 100778320 101060312 101345920 
743.906 101625432 101891936 102145144 102390568 102636088 102885992 
746.799 103136632 103376056 103588112 103759368 103884056 103967608 
749.692 104022928 104065792 104107224 104151352 104196040 104237904 
752.584 104275856 104313728 104358896 104418096 104493160 104579064 
755.477 104665832 104743120 104805880 104857000 104906864 104969088 
758.370 105058048 105182640 105346336 105548200 105783808 106047544 
761.262 106332432 106631776 106938784 107248776 107562216 107887592 
764.155 108244008 108659984 109174624 109835360 110690472 111787960 
767.048 113160384 114809816 116688328 118686984 120643608 122348760 
769.940 123607112 124287064 124367480 123962288 123301784 122682304 
772.833 122353248 122454488 122952632 123650712 124224288 124314808 
775.726 123658696 122136400 119819248 116920080 113740544 110571552 
778.619 107617656 104987912 102684360 100639856 98753776 96936560 95131632 
781.993 93319088 91513304 89748736 88069048 86512920 85111032 83883304 
785.368 82838280 81976536 81293168 80781848 80438216 80263160 80263320 
788.743 80450784 80840320 81445176 82276928 83344328 84655152 86221016 
792.118 88059344 90192128 92644192 95433632 98563688 102012824 105732528 
795.493 109643688 113635672 117586192 121361384 124833960 127912400 
798.385 130553680 132787112 134712384 136499056 138350992 140448176 
801.278 142914288 145752496 148824256 151824800 154330768 155883024 
804.171 156041936 154533344 151312032 146594144 140803264 134479168 
807.063 128173368 122285576 117028520 112402416 108244600 104300968 
809.956 100320688 96148104 91741536 87179528 82607664 78199616 74101504 
813.331 70400160 67131336 64283080 61819176 59692872 57861360 56288904 
816.706 54943060 53796040 52822496 51999488 51310692 50745676 50298944 
820.081 49968596 49752444 49647716 49650092 49755864 49962944 50272380 
823.455 50687736 51214008 51856056 52617184 53497356 54491236 55584504 
826.830 56751404 57954424 59141608 60258120 61255860 62104416 62805772 
830.205 63399472 63965692 64607852 65447576 66607440 68182224 70228944 
833.580 72738376 75623928 78698728 81679504 84233608 85986904 86615080 
836.955 85921480 83868672 80608680 76435224 71747128 66941760 62351668 
840.329 58228228 54700664 51802144 49494960 47703868 46339824 45315928 
843.704 44561196 44014424 43623940 43350948 43164736 43045744 42984576 
847.079 42977040 43019548 43106740 43228748 43375328 43539612 43721508 
850.454 43928192 44170952 44461092 44804460 45200052 45641500 46121824 
853.829 46637132 47189472 47785716 48435524 49148900 49933320 50796888 
857.204 51749660 52805920 53986564 55318192 56830100 58556160 60533612 
860.578 62801064 65399960 68363536 71703312 75389144 79331712 83375360 
863.953 87284680 90789344 93610176 95495672 96287624 95936424 94519560 
867.328 92218728 89302488 86084616 82854848 79875928 77346888 75386384 
870.703 74054312 73352616 73242544 73652048 74486416 75637688 76974400 
874.078 78356504 79643016 80691784 81390392 81667024 81500664 80925584 
877.452 80022704 78907448 77697552 76502864 75406208 74448536 73633368 
880.827 72930152 72290136 71657312 70986432 70255112 69466552 68648984 
884.202 67844032 67100004 66456088 65936364 65550292 65295240 65163984 
887.577 65151700 65260968 65500356 65882064 66414968 67101128 67933720 
890.952 68900072 69984408 71173448 72459464 73839544 75314104 76883504 
894.327 78544808 80289472 82101728 83953928 85802888 87589096 89228056 
897.701 90621936 91669960 92277448 92382688 91966248 91057560 89728072 
901.076 88082600 86247288 84342400 82481648 80761416 79249424 77993568 
904.451 77020528 76338864 75946320 75833384 75988984 76402904 77069032 
907.826 77985288 79152448 80572384 82246416 84174160 86354520 88784256 
911.201 91457920 94365208 97487632 100793696 104242712 107785920 111375016 
914.575 114977224 118580912 122203600 125887840 129698064 133707032 
917.468 137974672 142537392 147383136 152438624 157543936 162457152 
920.361 166876592 170446288 172843312 173842416 173373600 171571936 
923.254 168776928 165519952 162402160 160051008 159036480 159745280 
926.146 162366416 166827888 172815536 179756896 186886000 193396224 
929.039 198463280 201423968 201883952 199714944 195060416 188247328 
931.932 179730640 169996256 159512432 148741136 138082672 127882600 
934.824 118441792 109974440 102627280 96483080 91560104 87837536 85268816 
938.199 83796576 83351832 83846208 85165968 87139520 89533832 92078136 
941.574 94454488 96357936 97548184 97863168 97260920 95811520 93685480 
944.949 91107624 88315576 85538984 82950328 80665016 78743848 77196936 
948.324 76002288 75118720 74501440 74105752 73890760 73822696 73869160 
951.698 74000448 74191944 74422656 74679304 74956584 75255432 75579992 
955.073 75934320 76320296 76736904 77181104 77650200 78142528 78657736 
958.448 79195624 79754640 80331360 80921392 81520888 82129264 82749112 
961.823 83385712 84044720 84729240 85439376 86171640 86922144 87688504 
965.198 88470920 89272208 90095280 90941240 91808216 92692184 93589128 
968.573 94497896 95420712 96363360 97332096 98331224 99361960 100422928 
971.947 101511696 102627824 103773584 104953400 106171576 107430184 
974.840 108728240 110062936 111432144 112836784 114281640 115773704 
977.733 117319920 118924904 120590328 122317152 124109496 125976504 
980.625 127934648 130003240 132200776 134540496 137026720 139654816 
983.518 142410784 145274272 148213920 151182544 154118144 156934000 
986.411 159524816 161785808 163615520 164940160 165726160 165982608 
989.304 165761776 165147824 164257008 163218096 162160512 161214112 
992.196 160484992 160051776 159963600 160236080 160859712 161808176 
995.089 163052000 164563872 166322928 168315504 170528688 172946768 
997.982 175551648 178321408 181234704 184273216 187417904 190644112 
1000.874 193917744 197186544 200385808 203448384 206309824 208926864 
1003.767 211282208 213385792 215270736 216988640 218607888 220202352 
1006.660 221853616 223645024 225646784 227913520 230474256 233330544 
1009.552 236460624 239828064 243394592 247122128 250975904 254922096 
1012.445 258917360 262910576 266848384 270679136 274366208 277889440 
1015.338 281236800 284391840 287318304 289947168 292188320 293939968 
1018.231 295112736 295657248 295575360 294928864 293826368 292425632 
1021.123 290917856 289497440 288368928 287713952 287664896 288305984 
1024.016 289655200 291674144 294275680 297348896 300778816 304444512 
1026.909 308232704 312026688 315690144 319080064 322046816 324445856 
1029.802 326166752 327132896 327302016 326660096 325208352 322960000 
1032.695 319941472 316201216 311812768 306865408 301460256 295690080 
1035.588 289626720 283328096 276840512 270210688 263500272 256783808 
1038.481 250143520 243669040 237439744 231525360 225985760 220861440 
1041.374 216171440 211900752 207991328 204331776 200757200 197084112 
1044.267 193119136 188705792 183763248 178294336 172392064 166211136 
1047.160 159954976 153831632 148020624 142673760 137889536 133716088 
1050.053 130162072 127201664 124787848 122859816 121356864 120221024 
1052.947 119399784 118849880 118530544 118397792 118404408 118490888 
1055.840 118587624 118624536 118529896 118242288 117719696 116938512 
1058.733 115899248 114625776 113167184 111593192 109987072 108447264 
1061.626 107070072 105942864 105142624 104722496 104714240 105127008 
1064.519 105948240 107143936 108657304 110414720 112319416 114256208 
1067.412 116110016 117764104 119119184 120108944 120696280 120877392 
1070.305 120672264 120118296 119260008 118140936 116804160 115287088 
1073.198 113622112 111841616 109977136 108064936 106151016 104286816 
1076.091 102533072 100955656 99614112 98561024 97834272 97451760 97411208 
1079.466 97689152 98245000 99017680 99929592 100894968 101814512 102592360 
1082.842 103150656 103436552 103440176 103197640 102792696 102340824 
1085.735 101973768 101831816 102034104 102674112 103812640 105467560 
1088.628 107614936 110184488 113071824 116133184 119200360 122111416 
1091.521 124711496 126879904 128544064 129672888 130276160 130390224 
1094.414 130070704 129380032 128379896 127135904 125711752 124172032 
1097.307 122587824 121027368 119553264 118215488 117035288 115998088 
1100.200 115045144 114082704 112985944 111619968 109875984 107682264 
1103.093 105029136 101969864 98617288 95124368 91650520 88359112 85385448 
1106.468 82825536 80743176 79164216 78085808 77484536 77324160 77560624 
1109.844 78142016 79014752 80120800 81394064 82766272 84160976 85493432 
1113.219 86683080 87650512 88329784 88679352 88681880 88347496 87707200 
1116.594 86809960 85712184 84469080 83135104 81756208 80367888 78998016 
1119.969 77664384 76376512 75139248 73954128 72823128 71750256 70741512 
1123.344 69803904 68942520 68157328 67442832 66788012 66181832 65617068 
1126.720 65095960 64631732 64249268 63979588 63851684 63888340 64098052 
1130.095 64472996 64988120 65604432 66273792 66939248 67546448 68047872 
1133.470 68408168 68613088 68671304 68615616 68493624 68363680 68284264 
1136.845 68299536 68437568 68703472 69080240 69530200 69999672 70429384 
1140.221 70753800 70912856 70858904 70556592 69988496 69153240 68063840 
1143.596 66743268 65221848 63536988 61727880 59836140 57905956 55977156 
1146.971 54086976 52267548 50541572 48924880 47426268 46049132 44794360 
1150.346 43661928 42651632 41762868 40993420 40339040 39793492 39349928 
1153.722 39002576 38747904 38584628 38512968 38532952 38643260 38841484 
1157.097 39125036 39493028 39947160 40491704 41131996 41872464 42714616 
1160.472 43656544 44693024 45815660 47014496 48275452 49579444 50902564 
1163.847 52213100 53474868 54651436 55706344 56608168 57332532 57860716 
1167.223 58181704 58291960 58196140 57906828 57444768 56838220 56117696 
1170.598 55315668 54464152 53590420 52719940 51876032 51078888 50348760 
1173.973 49704520 49162032 48734456 48430632 48255236 48209656 48293188 
1177.348 48504392 48841856 49305320 49896932 50622580 51493596 52527060 
1180.724 53746164 55174792 56834748 58742332 60904156 63318348 65975740 
1184.099 68862712 71958592 75231944 78638320 82107160 85541928 88828976 
1187.474 91833096 94420800 96476840 97906792 98655328 98707936 98091688 
1190.849 96869840 95134184 93000904 90588384 88014424 85389480 82801592 
1194.225 80321520 78000312 75866768 73934408 72203648 70665320 69303632 
1197.600 68097872 67025268 66058904 65170100 64330764 63510908 62683188 
1200.975 61824180 60914448 59942368 58905972 57813932 56685364 55547676 
1204.350 54434440 53376916 52401992 51528220 50763296 50106464 49551368 
1207.726 49089536 48712808 48414188 48187700 48026940 47924960 47875492 
1211.101 47874308 47921040 48019988 48179408 48408856 48716628 49108384 
1214.476 49586428 50150080 50796664 51522284 52320992 53183408 54097412 
1217.851 55047680 56017940 56994680 57967672 58931960 59886836 60834432 
1221.227 61779256 62727020 63687132 64672680 65700360 66790564 67962200 
1224.602 69229208 70597800 72064192 73615064 75227968 76875272 78524080 
1227.977 80136104 81672664 83094264 84364448 85457368 86359000 87071520 
1231.352 87612280 88015192 88329056 88611528 88935536 89382472 90035024 
1234.728 90982704 92308264 94081688 96361616 99187480 102581160 106548552 
1238.103 111081152 116155392 121726792 127732944 134085136 140667312 
1240.996 147353696 154004160 160474688 166633968 172350720 177500992 
1243.889 181976320 185677536 188526480 190472032 191486160 191564896 
1246.782 190723472 188996400 186435504 183109552 179105296 174512560 
1249.675 169415376 163883008 157960608 151675072 145047232 138105888 
1252.568 130903128 123524144 116077464 108697984 101531200 94706976 88343800 
1255.943 82528408 77306664 72690352 68656208 65156280 62123528 59483036 
1259.319 57160376 55079088 53172732 51385724 49673312 48007996 46376508 
1262.694 44777716 43218540 41709504 40261640 38883664 37582948 36365732 
1266.069 35237004 34200776 33257972 32405558 31635888 30939158 30306462 
1269.444 29731914 29214860 28758994 28369846 28052016 27807180 27634722 
1272.820 27533180 27503032 27547618 27672472 27882500 28178322 28553956 
1276.195 28994732 29477124 29972904 30447606 30863770 31187084 31385496 
1279.570 31436720 31333070 31082464 30708372 30242870 29723080 29180238 
1282.945 28635242 28099026 27574274 27061086 26562876 26088458 25651640 
1286.321 25268708 24952718 24712322 24551292 24470238 24469818 24552344 
1289.696 24720950 24977984 25322444 25748630 26246364 26802182 27401520 
1293.071 28026532 28656372 29267174 29829464 30315024 30701614 30978228 
1296.446 31149918 31237640 31275098 31299204 31346746 31449042 31628512 
1299.822 31901222 32276626 32755536 33327300 33965956 34631140 35266148 
1303.197 35808052 36200216 36395996 36370344 36120524 35664620 35035348 
1306.572 34274164 33429064 32547102 31672348 30845272 30095294 29441060 
1309.947 28888974 28435288 28070432 27784360 27571026 27428872 27359314 
1313.323 27362700 27435298 27568696 27752606 27977692 28240162 28541782 
1316.698 28887878 29283762 29730992 30225678 30760402 31326768 31918264 
1320.073 32530748 33161256 33803752 34447952 35077340 35670516 36206772 
1323.448 36667500 37040704 37323404 37522184 37655104 37748636 37840804 
1326.823 37975524 38194180 38532048 39006996 39614176 40326428 41101324 
1330.199 41892608 42658428 43373352 44029276 44632980 45198912 45743648 
1333.574 46281728 46823432 47376892 47948936 48544892 49167932 49816696 
1336.949 50485852 51166632 51850568 52532592 53211496 53888384 54562536 
1340.324 55228744 55876076 56490900 57060764 57579504 58047732 58471540 
1343.700 58859032 59215464 59542052 59835912 60092680 60309472 60485624 
1347.075 60620120 60706004 60726924 60653232 60445404 60065096 59481212 
1350.450 58682820 57683512 56523320 55262760 53972456 52731988 51614856 
1353.825 50683976 49990308 49561876 49401948 49485116 49762400 50166000 
1357.201 50618892 51053844 51414744 51664300 51786168 51781240 51668628 
1360.576 51482816 51279444 51131888 51119364 51320688 51787772 52529976 
1363.951 53509420 54648916 55850904 57006428 58018228 58803484 59294228 
1367.326 59447928 59247628 58705576 57859660 56769224 55504976 54132128 
1370.702 52709840 51285860 49896448 48579312 47379296 46349260 45551484 
1374.077 45039884 44842152 44948852 45314716 45875796 46565868 47340016 
1377.452 48181408 49100552 50127772 51304648 52679016 54297976 56209968 
1380.827 58459256 61068608 64016944 67209960 70480088 73573344 76185784 
1384.203 78027160 78832072 78426032 76761816 73954912 70288968 66160800 
1387.578 62025596 58256572 55079576 52571784 50684796 49304392 48291708 
1390.953 47522808 46894448 46327808 45774572 45210532 44637348 44076948 
1394.328 43562872 43124484 42771980 42491628 42252288 42021764 41779212 
1397.704 41527136 41291132 41114660 41040576 41094004 41274224 41556232 
1401.079 41903336 42279164 42661060 43042816 43435344 43861652 44350764 
1404.454 44929008 45609332 46389708 47251640 48169156 49114060 50065336 
1407.829 51013632 51959452 52911752 53882008 54880832 55915080 56986820 
1411.205 58093444 59226664 60370236 61494764 62559524 63514092 64305172 
1414.580 64893728 65263436 65429428 65435476 65353708 65280260 65319500 
1417.955 65583928 66166548 67106464 68370080 69850208 71405960 72895384 
1421.330 74216592 75322384 76215680 76951336 77621632 78341816 79209064 
1424.706 80274800 81528808 82910344 84335152 85723976 87030272 88241232 
1428.081 89375104 90467288 91560264 92693736 93898656 95205424 96641544 
1431.456 98226760 99967672 101850296 103844792 105913048 108032520 110215664 
1434.831 112521280 115052056 117926832 121237440 124984240 129069552 
1437.724 133336216 137627728 141820704 145817808 149536720 152868096 
1440.617 155668976 157789184 159069696 159379696 158640512 156826528 
1443.510 153976624 150187632 145623152 140490688 135014144 129440472 
1446.404 123999936 118900592 114330400 110418352 107216880 104685520 
1449.297 102711760 101146504 99851192 98744576 97809408 97084496 96626600 
1452.672 96473856 96611456 96971440 97439400 97889032 98220824 98388776 
1456.047 98441184 98518288 98825568 99530688 100698344 102304128 104274344 
1459.422 106533944 109019920 111679872 114456824 117273560 120045512 
1462.315 122664200 125001608 126935648 128360080 129226472 129567176 
1465.208 129500520 129189712 128780056 128378464 128034696 127755400 
1468.102 127522424 127301784 127046216 126684696 126121104 125238192 
1470.995 123913496 122071040 119729928 117034720 114211288 111488888 
1473.888 109023880 106874544 105041456 103514344 102301488 101435640 
1476.781 100950976 100850704 101092720 101591776 102249328 102971576 
1479.674 103700168 104423200 105169856 105995648 106958840 108107392 
1482.567 109468864 111061168 112908464 115050936 117545976 120452624 
1485.460 123804744 127577184 131651480 135822528 139779376 143136464 
1488.353 145500992 146495008 145848944 143480000 139524736 134322480 
1491.246 128304776 121900352 115420488 109031712 102806384 96749344 90860688 
1494.621 85197008 79876408 75081736 71022488 67859568 65659316 64379336 
1497.997 63909836 64111032 64851068 66025032 67539944 69308880 71249416 
1501.372 73270048 75277024 77181064 78875616 80240280 81133456 81370648 
1504.747 80746416 79075120 76290048 72549056 68259992 63938856 59960852 
1508.122 56446792 53313080 50411460 47618192 44879000 42203320 39649348 
1511.498 37289248 35170676 33307840 31674768 30223900 28903530 27677768 
1514.873 26533150 25481300 24551888 23780072 23191614 22786854 22535474 
1518.248 22379994 22255782 22105526 21899074 21653154 21442218 21385654 
1521.623 21589180 22097786 22867874 23800546 24784194 25737310 26628326 
1524.999 27470240 28312974 29217378 30235872 31388808 32662682 34021568 
1528.374 35423328 36831284 38214728 39553344 40834900 42057828 43240536 
1531.749 44428604 45701092 47150800 48858540 50843036 53034040 55290456 
1535.124 57447452 59373084 60964200 62155988 62917016 63244408 63180984 
1538.500 62818824 62316900 61850772 61555200 61477052 61569212 61735100 
1541.875 61873008 61909876 61796292 61500188 61009004 60331900 59505036 
1545.250 58583160 57623428 56660524 55693088 54689164 53604556 52409248 
1548.625 51110420 49762440 48448344 47253672 46222276 45343440 44563584 
1552.000 43819392 43068284 42304588 41557216 40866644 40251136 39681948 
1555.376 39080660 38336064 37339688 36012116 34351008 32470576 30650552 
1558.751 29268202 28598438 28648374 29173824 29872480 30503656 30936242 
1562.126 31121512 31051858 30753538 30277152 29697074 29092540 28527416 
1565.501 28029820 27581936 27132540 26621916 26013590 25315770 24595120 
1568.877 23956816 23516926 23345568 23432916 23694894 24012140 24279584 
1572.252 24417274 24382050 24159136 23755468 23201400 22557358 21930160 
1575.627 21453602 21251776 21387012 21826144 22462718 23163898 23825152 
1579.002 24381770 24811908 25129694 25369512 25571750 25766208 25967366 
1582.378 26173546 26375492 26564672 26738680 26899324 27047370 27175606 
1585.753 27269196 27308750 27280662 27184706 27038166 26871582 26721202 
1589.128 26620824 26592536 26647598 26789144 27015492 27320570 27690588 
1592.503 28101606 28513830 28876438 29140126 29264020 29229002 29041952 
1595.879 28732406 28342046 27911790 27477230 27063062 26687128 26366830 
1599.254 26119564 25962724 25909788 25965890 26127832 26387074 26735506 
1602.629 27166752 27675614 28252290 28875838 29510032 30110210 30624526 
1606.004 31006946 31226354 31267300 31131904 30833532 30392378 29829430 
1609.380 29164256 28420252 27624058 26805742 25994840 25208236 24445070 
1612.755 23684114 22891728 22033260 21089900 20071820 19033098 18072634 
1616.130 17306858 16836240 16695421 16842164 17175022 17578172 17956278 
1619.505 18235184 18370696 18345290 18169018 17885008 17567684 17317858 
1622.881 17226386 17344236 17661124 18114398 18617184 19092230 19500456 
1626.256 19842402 20152542 20478154 20862618 21325338 21856040 22419768 
1629.631 22970846 23467328 23872584 24157104 24295422 24260698 24029896 
1633.006 23590628 22958096 22188650 21390074 20720352 20331358 20309414 
1636.382 20630974 21183928 21823150 22424372 22913838 23255160 23440364 
1639.757 23478450 23387142 23187664 22898958 22534184 22095834 21573858 
1643.132 20948114 20194714 19296418 18259132 17126076 15985209 14967970 
1646.507 14206034 13784111 13699229 13864803 14142497 14385638 14477027 
1649.883 14322760 13852556 13021381 11833038 10396530 8962221 7924394 
1653.258 7621376 8108980 9148704 10401689 11612149 12633558 13417068 
1656.633 13967852 14312760 14488640 14529615 14461269 14296221 14037969 
1660.008 13688868 13259009 12777365 12296458 11880608 11594759 11478016 
1663.384 11525785 11689817 11893515 12060410 12122213 12033635 11772606 
1666.759 11339401 10758889 10080253 9382767 8759521 8298035 8055206 8035325 
1670.616 8189535 8431190 8669294 8825014 8845371 8713813 8450683 8117622 
1674.474 7802156 7603707 7589309 7763194 8066716 8408859 8706918 8900765 
1678.331 8964622 8899785 8723584 8455278 8102634 7654761 7084403 6362388 
1682.188 5484303 4497964 3533902 2802821 2505186 2725192 3367245 4228943 
1686.046 5101340 5844566 6402569 6771638 6984557 7088613 7135901 7168980 
1689.903 7213076 7274495 7340203 7383272 7366051 7248922 6995803 6580992 
1693.761 6001561 5291337 4536768 3856144 3362703 3099424 3015036 2988612 
1697.618 2889235 2631909 2198298 1664792 1190911 986525 1188120 1767781 
1701.476 2551612 3331550 3959320 4357643 4520396 4488657 4340139 4168020 
1705.333 4059510 4073089 4219040 4467901 4767989 5071503 5341918 5559171 
1709.190 5717641 5818674 5864951 5856522 5788788 5654427 5447126 5165244 
1713.048 4814858 4407547 3961259 3493251 3019073 2557178 2134596 1794630 
1716.905 1600004 1613872 1874555 2370938 3039560 3785513 4510653 5144120 
1720.763 5642444 5994002 6214472 6338752 6411615 6472854 6551424 6656454 
1724.620 6780557 6905369 7011292 7082619 7108956 7085447 7011326 6889244 
1728.478 6725063 6526667 6301232 6049941 5763504 5420922 4995680 4467164 
1732.335 3842505 3172313 2568810 2177985 2108025 2368473 2854581 3413362 
1736.192 3898535 4217501 4335922 4265314 4057805 3791229 3557086 3424816 
1740.050 3423547 3537610 3723750 3934042 4132059 4301520 4438711 4545205 
1743.907 4620380 4658459 4650387 4589037 4474061 4314203 4125737 3930230 
1747.765 3748180 3595138 3482496 3418605 3412794 3475548 3615618 3833245 
1751.622 4113895 4428635 4738812 5004193 5194484 5291370 5293148 5215174 
1755.479 5089505 4959516 4864346 4828930 4851009 4904388 4947083 4938838 
1759.337 4855533 4695602 4483970 4265214 4096101 4022321 4062621 4202612 
1763.194 4401288 4608157 4775426 4872689 4885455 4815997 4677449 4491268 
1767.052 4279937 4058875 3831875 3588322 3310215 2979404 2591909 2166263 
1770.909 1753010 1427571 1268100 1329216 1610945 2059018 2585309 3107700 
1774.767 3569914 3945410 4233728 4446744 4598112 4695770 4740855 4732916 
1778.624 4676210 4586358 4490799 4419764 4398074 4433656 4514068 4612678 
1782.481 4700224 4757705 4781222 4782093 4779915 4793818 4832682 4891922 
1786.339 4956132 5005467 5021456 4988306 4895274 4733352 4498031 4191037 
1790.196 3827362 3441982 3085108 2819862 2700252 2748699 2947044 3243278 
1794.054 3574424 3882019 4127844 4295396 4382879 4398242 4352957 4260195 
1797.911 4134300 3992057 3856545 3752291 3701961 3719372 3803997 3939760 
1801.769 4101586 4264912 4412200 4536199 4638029 4722700 4793416 4849368 
1805.626 4886226 4898692 4884149 4843404 4781858 4706521 4625839 4547917 
1809.483 4481191 4435865 4423313 4452837 4529067 4647239 4792545 4942893 
1813.341 5077236 5179629 5245020 5278659 5293148 5302741 5317264 5339939 
1817.198 5367815 5395626 5419546 5440482 5462426 5489404 5521081 5550177 
1821.056 5563232 5545243 5485175 5380831 5240694 5084879 4940514 4832213 
1824.913 4775091 4767453 4790837 4814925 4807588 4747186 4628418 4469207 
1828.771 4307511 4197427 4190368 4315107 4567271 4908678 5283958 5635159 
1832.628 5922317 6128065 6256354 6326211 6362825 6389287 6419450 6458594 
1836.485 6507058 6564913 6636132 6726443 6839593 6970920 7104746 7217489 
1840.343 7281302 7273720 7185688 7025873 6823302 6623886 6485903 6462529 
1844.200 6584996 6853292 7235850 7682313 8136629 8554619 8906447 9178889 
1848.058 9373387 9501894 9580574 9623392 9638636 9627525 9586366 9511410 
1851.915 9403115 9267632 9115576 8958398 8803036 8650365 8496262 8335356 
1855.772 8165495 7990369 7819024 7661640 7524777 7408550 7306034 7208528 
1859.630 7108990 7005837 6903046 6806540 6720015 6641717 6564039 6476318 
1863.487 6369449 6238135 6081760 5901493 5698840 5474069 5229259 4973459 
1867.345 4727322 4522974 4401020 4393355 4511791 4739080 5035568 5351043 
1871.202 5640329 5875934 6047992 6161302 6227715 6259850 6266875 6253396 
1875.060 6223278 6181534 6135357 6093218 6059718 6034082 6008784 5974249 
1878.917 5923023 5854205 5774887 5696423 5629655 5579744 5544103 5514940 
1882.774 5483733 5446085 5403007 5359261 5318572 5279397 5234825 5173929 
1886.632 5088298 4977614 4852182 4731643 4638063 4590309 4595834 4649684 
1890.489 4736400 4837239 4935487 5019009 5081661 5121087 5139259 5140332 
1894.347 5132218 5125814 5131044 5155654 5200821 5260414 5323872 5379590 
1898.204 5420687 5446756 5463902 5480411 5502960 5533162 5566924 5596794 
1902.062 5617806 5628883 5633649 5638147 5646405 5657817 5666646 5665505 
1905.919 5648620 5616094 5573770 5531853 5499604 5483162 5483196 5496618 
1909.776 5519034 5547727 5581926 5621666 5665404 5708174 5742184 5758300 
1913.634 5749603 5712437 5646438 5554506 5441791 5315319 5185900 5069156 
1917.491 4982642 4943463 4959651 5025311 5119813 5213296 5278793 5298515 
1921.349 5272454 5217152 5161355 5133525 5150391 5211619 5301064 5396398 
1925.206 5477928 5536854 5574542 5598607 5616027 5628580 5632608 5623546 
1929.063 5600218 5569105 5541552 5529571 5538431 5564574 5595250 5615859 
1932.921 5617671 5600855 5575113 5553365 5545579 5553801 5571958 5590552 
1936.778 5602534 5607132 5608374 5610724 5613610 5609012 5584577 5530410 
1940.636 5446320 5344904 5250319 5189253 5178422 5219667 5297878 5392707 
1944.493 5485746 5570615 5651540 5738793 5838991 5949693 6058071 6147993 
1948.351 6207212 6233597 6236186 6229900 6228656 6238471 6256724 6275313 
1952.208 6289096 6298744 6312662 6340802 6389052 6453213 6520546 6573861 
1956.065 6599562 6595054 6567470 6531511 6499894 6479580 6467943 6457417 
1959.923 6440670 6416659 6390464 6370390 6361312 6362758 6367196 6366423 
1963.780 6356268 6339995 6326581 6326581 6344568 6377384 6413834 6442586 
1967.638 6458089 6463605 6469322 6485129 6515904 6556032 6594684 6620387 
1971.495 6628192 6623044 6616518 6620286 6639059 6668129 6697335 6717828 
1975.353 6729538 6742292 6771840 6830101 6916782 7016747 7105689 7162748 
1979.210 7177603 7154899 7110404 7061469 7019139 6984254 6949843 6907726 
1983.067 6855043 6796645 6742461 6700700 6673512 6654266 6631893 6596938 
1986.925 6548195 6493403 6446924 6418945 6413061 6420728 6428563 6423586 
1990.782 6402166 6372206 6349611 6350687 6382932 6442250 6516240 6590950 
1994.640 6657093 6714732 6769282 6826735 6887392 6944591 6987150 7007083 
1998.497 7003346 6985197 6965836 6957924 6965499 6982166 6994288 6989170 
2002.354 6963446 6923986 6885777 6863727 6866724 6892408 6929912 6967149 
2006.212 6996274 7018937 7042947 7075041 7114716 7152912 7176020 7173931 
2010.069 7146007 7103432 7064331 7045607 7054598 7085582 7123237 7152878 
2013.927 7165543 7164196 7159042 7163893 7185755 7223351 7267049 7307045 
2017.784 7338316 7362984 7390114 7426885 7475795 7532262 7587387 7633381 
2021.642 7669667 7701976 7739785 7789135 7848139 7906172 7949872 7969074 
2025.499 7962594 7939377 7913731 7897804 7896320 7904114 7910997 7909412 
2029.356 7898041 7884274 7880022 7896083 7934889 7992022 8057873 8124205 
2033.214 8188894 8254335 8324379 8399063 8471631 8530931 8566278 8574591 
2037.071 8561919 8542217 8530221 8534242 8552693 8576078 8592942 8596187 
2040.929 8588379 8578680 8578984 8595037 8622920 8650838 8665712 8659255 
2044.786 8634513 8602473 8578409 8573780 8590543 8621704 8655638 8683390 
2048.644 8702590 8717837 8735078 8759183 8787956 8814769 8832758 8838912 
2052.501 8837662 8838303 8851120 8881015 8924643 8971794 9011270 9034984 
2056.358 9043544 9044389 9047535 9060020 9081097 9103091 9116015 9111989 
2060.216 9090605 9057583 9023076 8994964 8975649 8962051 8948150 8930020 
2064.073 8908409 8889063 8878275 8879323 8889334 8899176 8898296 8879290 
2067.931 8842023 8792656 8740758 8694072 8655368 8622346 8590103 8555396 
2071.788 8520016 8489471 8470719 8467070 8476023 8489301 8497512 8493356 
2075.646 8476597 8452609 8430480 8417406 8416224 8424366 8435750 8445954 
2079.503 8453521 8460414 8470584 8485956 8505385 8523834 8535830 8538871 
2083.360 8534681 8529140 8528396 8536506 8552287 8570400 8583817 8587906 
2087.218 8582330 8571381 8560228 8552152 8545968 8537418 8520793 8493288 
2091.075 8457204 8418724 8386328 8365959 8358966 8361770 8369032 8375923 
2094.933 8381193 8387239 8397982 8415481 8438453 8462407 8481902 8493728 
2098.790 8498796 8500654 8503696 8510217 8518934 8526808 8530964 8531944 
2102.647 8534377 8545461 8571482 8613964 8668618 8726965 8780518 8823932 
2106.505 8858052 8888725 8923425 8966753 9018915 9075684 9131243 9181596 
2110.362 9226609 9269188 9313059 9359540 9406230 9447710 9479035 9498812 
2114.220 9510191 9520081 9535694 9561267 9596189 9635858 9674480 9709718 
2118.077 9743297 9780810 9827952 9887742 9957372 10030031 10097107 10153170 
2121.935 10198350 10237871 10279193 10328255 10386417 10450323 10514307 
2125.310 10573139 10624951 10672185 10719118 10768943 10821491 10873740 
2128.685 10920865 10959533 10989641 11015163 11041706 11074710 11116281 
2132.060 11166186 11221910 11281314 11343516 11408516 11475736 11542117 
2135.436 11602757 11652581 11688966 11714427 11735430 11761065 11797016 
2138.811 11843491 11894093 11939285 11970620 11985402 11988024 11987241 
2142.186 11992145 12006383 12025732 12040959 12042083 12022871 11984005 
2145.561 11931793 11874614 11817240 11760213 11699416 11630731 11554095 
2148.937 11474954 11402018 11342938 11299781 11267032 11234491 11191310 
2152.312 11132258 11060162 10982879 10909007 10842484 10779982 10714125 
2155.687 10638839 10556979 10481109 10432810 10431996 10487389 10590183 
2159.062 10716571 10836913 10925826 10972820 10979548 10957154 10916754 
2162.438 10865552 10805390 10736438 10659383 10578809 10500899 10430672 
2165.813 10367719 10306539 10237599 10153339 10052174 9940150 9828053 
2169.188 9726794 9643277 9576713 9520623 9466673 9409244 9348368 9288652 
2173.045 9237000 9198247 9173271 9159667 9153881 9152696 9155336 9160886 
2176.903 9166774 9167282 9153881 9120144 9064316 8992800 8918183 8853893 
2180.760 8810441 8788869 8780213 8770915 8747722 8704280 8642355 8570265 
2184.618 8497039 8429467 8368525 8311714 8255618 8200711 8151181 8114348 
2188.475 8094971 8093890 8106212 8124712 8142807 8157764 8172248 8191089 
2192.333 8217730 8252106 8289119 8322522 8348090 8366364 8382409 8402847 
2196.190 8431866 8467340 8502344 8527179 8534141 8522381 8497985 8470009 
2200.047 8447913 8436190 8432947 8432508 8429163 8420177 8407711 8395853 
2203.905 8388489 8385550 8383017 8374808 8356095 8327149 8292462 8259468 
2207.762 8234513 8219384 8210943 8203548 8192304 8176266 8159452 8148851 
2211.620 8150269 8166272 8193925 8227185 8260616 8290977 8317996 8344071 
2215.477 8370113 8393354 8408893 8410887 8396158 8367039 8331641 8299589 
2219.334 8279157 8273213 8278312 8286755 8290267 8284121 8268553 8248594 
2223.192 8229447 8215332 8206824 8201151 8195377 8187712 8178461 8170594 
2227.049 8166644 8167589 8172653 8179170 8185416 8190616 8196052 8203041 
2230.907 8211720 8219789 8223538 8219249 8206080 8187375 8169986 8161545 
2234.764 8168062 8191089 8228029 8272706 8318942 8362919 8402947 8439602 
2238.622 8474368 8507007 8536607 8561479 8580539 8594328 8604094 8611598 
2242.479 8617073 8619709 8618121 8611868 8603588 8599025 8604297 8625084 
2246.336 8662974 8714456 8771997 8827077 8872627 8905466 8926029 8936920 
2250.194 8941453 8941723 8938848 8934215 8930461 8931543 8942061 8964724 
2254.051 8998719 9038875 9077917 9108200 9125220 9129179 9123798 9114088 
2257.909 9103733 9093819 9082315 9066922 9046926 9024158 9003117 8989180 
2261.766 8984918 8990567 9002271 9014855 9024294 9028928 9030248 9030620 
2265.624 9032480 9035931 9039281 9039957 9036540 9029469 9021926 9016851 
2269.481 9017054 9022196 9030147 9037995 9043273 9045607 9046690 9049227 
2273.338 9054471 9062658 9071928 9079609 9084312 9086376 9087763 9091281 
2277.196 9098556 9108809 9119298 9125930 9125389 9116388 9100079 9079744 
2281.053 9059985 9044558 9036710 9038096 9049295 9070339 9099876 9136386 
2284.911 9176825 9217910 9256969 9292139 9323485 9352702 9382293 9414391 
2288.768 9450148 9489601 9531800 9576340 9623866 9675564 9733470 9798534 
2292.625 9870353 9947033 10025691 10104026 10181356 10258701 10338231 
2296.001 10422424 10512677 10608653 10708352 10809024 10907954 11002929 
2299.376 11093099 11178221 11258838 11335966 11411509 11488461 11570258 
2302.751 11660784 11762529 11876454 12001138 12133286 12269838 12407864 
2306.126 12546479 12686810 12831215 12981914 13140179 13305540 13476705 
2309.502 13651426 13827586 14003405 14177174 14346834 14509675 14663460 
2312.877 14805849 14937138 15059789 15179146 15301728 15434679 15583880 
2316.252 15752716 15941657 16148390 16368194 16594511 16820086 17037714 
2319.627 17241142 17425764 17589040 17730114 17848654 17944294 18015954 
2323.003 18061858 18080960 18074672 18047592 18008322 17968950 17941808 
2326.378 17938080 17964740 18023208 18108940 18211896 18320648 18422064 
2329.753 18505004 18561956 18589032 18586716 18559466 18515516 18465034 
2333.128 18418502 18385766 18373530 18384418 18417536 18469184 18535052 
2336.504 18610578 18693520 18782464 18877136 18976882 19080494 19185550 
2339.879 19289386 19389850 19485278 19574522 19655360 19722968 19768878 
2343.254 19779074 19736560 19623396 19424776 19135720 18765164 18338654 
2346.629 17895780 17483506 17152514 16943544 16885704 16992402 17260174 
2350.005 17669336 18186190 18772188 19385034 19987470 20554436 21071466 
2353.380 21534756 21946644 22312390 22636692 22924142 23179802 23409310 
2356.755 23617568 23808562 23983114 24139168 24273136 24382784 24468170 
2360.130 24533236 24582288 24618860 24642356 24648876 24632396 24588176 
2363.506 24515566 24419622 24308878 24192448 24076930 23964240 23852036 
2366.881 23735626 23609800 23471560 23319484 23152818 22970916 22771524 
2370.256 22552472 22312356 22052328 21775836 21487928 21193530 20895334 
2373.631 20593452 20285876 19970122 19645376 19312454 18974564 18635722 
2377.007 18299738 17968606 17644076 17327202 17019760 16725035 16447095 
2380.382 16189763 15955716 15745604 15558809 15394168 15250796 15128847 
2383.757 15029158 14951610 14894856 14855048 14826967 14805335 14785725 
2387.132 14766459 14747845 14731564 14718983 14710381 14704657 14699755 
2390.508 14694066 14686696 14678231 14669697 14662020 14655440 14649546 
2393.883 14643685 14637756 14632308 14628675 14627852 14630492 14636215 
2397.258 14644542 14655166 14668978 14688273 14715282 14751890 14797895 
2400.633 14851413 14909567 14969821 15031490 15095981 15166588 15246472 
2404.009 15338008 15441065 15553898 15674043 15799239 15928494 16062047 
2407.384 16200047 16342390 16487911 16635273 16783336 16933070 17086994 
2410.759 17247590 17417316 17595562 17778816 17961286 18136300 18298424 
2414.134 18444604 18574682 18689680 18791148 18879802 18955664 19018006 
2417.510 19066886 19102998 19128482 19145554 19155942 19161310 19161726 
2420.885 19158124 19151682 19144308 19138246 19135234 19135686 19139250 
2424.260 19145172 19153726 19167232 19190156 19227906 19285264 19364628 
2427.635 19465560 19584990 19718670 19863210 20016510 20178122 20348964 
2431.010 20529634 20719970 20919602 21127676 21344166 21569924 21806460 
2434.386 22054768 22314728 22585488 22864836 23151316 23444282 23744268 
2437.761 24052414 24369678 24695768 25028946 25367438 25709572 26055104 
2441.136 26405382 26761832 27125838 27497172 27874054 28253952 28635136 
2444.511 29017438 29402378 29792450 30189872 30594698 31005378 31418442 
2447.887 31830334 32238654 32642108 33041146 33436042 33826208 34210168 
2451.262 34585424 34949980 35302192 35642496 35971872 36291344 36600804 
2454.637 36898444 37181236 37445900 37689468 37910256 38107428 38280512 
2458.012 38428292 38548780 38639456 38697260 38719904 38706064 38655284 
2461.388 38568188 38445592 38289088 38101316 37885708 37647844 37394868 
2464.763 37134496 36874276 36621316 36380540 36155812 35950456 35767468 
2468.138 35610344 35483044 35388996 35331268 35312040 35331808 35390540 
2471.513 35486924 35619008 35783516 35975184 36188440 36416248 36651960 
2474.889 36890836 37129692 37367132 37602784 37835856 38064744 38286120 
2478.264 38495520 38688100 38859640 39006820 39127756 39221060 39286196 
2481.639 39323052 39331828 39314236 39272052 39208440 39126852 39030344 
2485.014 38921896 38804020 38679044 38549432 38417356 38285180 38153552 
2488.390 38022468 37890192 37753872 37610732 37458500 37295888 37122620 
2491.765 36938776 36743684 36536320 36314720 36076776 35821296 35548160 
2495.140 35258312 34953000 34633328 34299872 33952308 33590556 33215012 
2498.515 32827820 32432158 32032110 31630862 31231266 30834492 30440568 
2501.891 30049594 29662164 29279722 28904062 28537182 28180656 27835194 
2505.266 27500702 27177476 26866154 26567666 26283466 26014118 25759284 
2508.641 25517986 25288516 25069418 24860184 24660872 24472516 24295456 
2512.016 24129466 23974008 23827986 23690832 23563132 23445820 23340114 
2515.392 23246806 23165158 23093692 23030798 22975562 22928578 22892148 
2518.767 22868956 22861064 22868852 22890436 22922290 22960296 23000750 
2522.142 23041944 23083662 23127098 23173580 23224714 23280924 23341966 
2525.517 23406828 23473834 23540220 23603012 23658854 23704130 23736394 
2528.893 23754068 23757114 23746720 23724286 23691534 23649720 23599794 
2532.268 23542564 23479466 23412004 23342072 23271660 23201470 23131852 
2535.643 23062696 22993832 22925678 22859352 22796248 22737866 22684590 
2539.018 22636136 22591912 22551110 22514154 22481734 22455250 22435188 
2542.394 22421266 22411324 22402498 22391892 22377274 22358086 22334644 
2545.769 22308380 22280126 22250796 22220348 22189558 22158836 22129654 
2549.144 22103506 22081018 22061670 22043856 22025276 22004258 21980382 
2552.519 21955114 21930580 21909286 21892488 21880014 21870710 21862870 
2555.895 21855588 21849176 21844578 21842834 21843740 21845552 21844472 
2559.270 21836632 21818340 21787716 21744308 21689306 21624702 21552514 
2562.645 21474802 21393730 21311488 21230896 21154636 21084648 21021766 
2566.020 20965568 20914840 20868496 20826050 20788680 20758374 20737172 
2569.396 20726434 20725912 20733766 20747772 20765394 20784788 20804636 
2572.771 20824694 20844542 20863836 20882644 20901314 20921480 20945402 
2576.146 20974922 21011820 21055466 21104128 21154322 21202680 21247006 
2579.521 21287024 21323980 21360664 21399996 21444308 21494820 21551958 
2582.896 21615996 21686452 21762876 21844472 21929984 22017852 22106816 
2586.272 22196044 22285812 22377134 22471092 22568038 22667274 22766952 
2589.647 22864800 22959282 23050082 23138456 23226638 23316478 23408648 
2593.022 23502304 23594898 23683800 23766948 23843494 23913858 23979506 
2596.397 24041732 24101306 24158890 24215150 24271138 24328992 24390742 
2599.773 24458636 24533936 24616720 24705658 24799630 24897518 24999254 
2603.148 25105470 25216946 25334140 25456670 25583666 25714106 25847258 
2606.523 25983232 26122590 26266218 26414574 26567244 26723246 26881524 
2609.898 27041164 27201956 27363866 27526826 27689918 27851620 28009356 
2613.274 28160504 28303214 28436560 28560820 28677186 28787174 28891914 
2616.649 28992252 29088608 29181054 29269690 29354658 29436132 29513932 
2620.024 29587952 29657622 29723044 29784288 29841674 29895978 29947486 
2623.399 29996798 30043878 30088938 30132512 30175878 30220420 30267702 
2626.775 30318756 30373794 30432252 30492532 30553422 30614002 30673950 
2630.150 30733906 30794584 30856724 30920728 30986590 31053922 31122260 
2633.525 31190822 31259074 31326022 31390838 31452320 31510282 31564512 
2636.900 31615716 31665218 31714618 31765022 31817288 31871624 31927824 
2640.276 31985742 32045628 32107524 32172102 32239832 32310464 32383888 
2643.651 32459438 32537244 32617320 32700192 32786872 32878034 32973792 
2647.026 33073970 33178244 33285622 33396036 33508942 33624492 33742296 
2650.401 33861740 33982544 34103884 34225940 34348608 34472844 34599848 
2653.777 34730224 34864632 35003312 35145920 35292672 35443136 35597288 
2657.152 35755128 35915868 36078684 36242316 36406192 36569808 36733444 
2660.527 36898192 37064844 37234152 37406136 37579988 37754452 37928372 
2663.902 38101208 38272660 38443456 38613996 38784604 38954876 39124312 
2667.278 39291856 39457248 39620236 39781796 39943344 40106552 40272764 
2670.653 40443076 40617860 40797012 40979944 41165800 41353704 41542888 
2674.028 41732376 41921836 42110868 42299508 42487720 42675648 42863800 
2677.403 43052112 43241232 43431316 43622912 43816388 44012592 44212148 
2680.779 44416124 44625932 44842964 45069256 45306184 45554868 45815660 
2684.154 46087924 46370756 46662512 46961888 47268524 47582144 47903244 
2687.529 48232352 48569456 48914276 49266276 49624500 49988672 50359104 
2690.904 50736292 51120856 51513184 51913036 52319832 52732548 53150336 
2694.280 53572992 54000968 54435192 54876432 55325684 55782748 56247304 
2697.655 56718556 57195376 57677268 58163140 58652596 59144836 59639540 
2701.030 60135988 60633304 61131004 61628168 62124292 62618272 63109668 
2704.405 63596748 64078428 64552716 65017252 65469412 65906280 66324940 
2707.781 66723248 67099968 67454720 67788344 68101976 68396840 68673864 
2711.156 68933232 69175040 69399480 69606664 69797248 69971528 70129560 
2714.531 70270736 70393576 70495600 70574408 70627696 70653504 70651056 
2717.906 70620368 70562400 70479304 70374128 70251264 70115920 69974016 
2721.281 69831648 69694304 69566680 69452672 69355096 69275960 69217512 
2724.657 69181256 69168552 69180168 69216456 69277048 69361120 69468344 
2728.032 69598224 69750864 69926256 70123984 70342536 70579752 70832496 
2731.407 71097528 71372136 71654304 71942600 72236288 72534248 72834920 
2734.782 73136232 73435600 73730648 74019616 74301192 74574920 74840552 
2738.158 75097960 75346896 75587608 75820048 76044920 76263424 76476824 
2741.533 76687376 76897104 77109040 77325504 77549968 77785056 78033104 
2744.908 78295704 78573000 78864256 79167512 79480576 79800792 80125312 
2748.283 80450784 80773432 81088008 81389424 81672184 81931352 82163896 
2751.659 82368400 82545232 82695760 82822240 82926744 83010816 83075728 
2755.034 83121944 83149624 83158456 83147184 83114080 83056584 82972232 
2758.409 82857888 82711472 82531088 82315408 82063896 81776608 81454256 
2761.784 81098472 80711776 80297840 79861040 79406144 78938048 78461800 
2765.160 77981912 77503152 77030184 76567520 76119848 75691208 75284784 
2768.535 74903432 74548792 74222680 73926744 73662608 73432104 73236272 
2771.910 73075184 72947392 72849656 72777952 72726976 72692192 72669440 
2775.285 72654984 72645736 72638656 72629680 72614600 72588720 72546624 
2778.661 72483624 72395928 72280392 72135616 71961800 71760688 71535600 
2782.036 71291424 71033880 70768848 70501832 70237512 69979000 69728144 
2785.411 69485720 69250888 69022288 68797104 68572232 68343712 68107256 
2788.786 67859456 67598128 67322264 67032920 66732524 66424192 66111648 
2792.162 65798008 65486288 65179228 64879572 64590240 64314312 64055152 
2795.537 63815952 63599168 63406952 63240612 63100508 62987344 62900624 
2798.912 62840080 62804892 62793864 62805580 62838360 62890248 62959648 
2802.287 63044800 63143848 63254832 63375704 63504504 63639024 63777612 
2805.663 63918860 64061224 64203792 64344676 64481908 64613080 64735176 
2809.038 64845108 64939560 65015332 65069020 65098076 65100120 65073832 
2812.413 65019028 64936592 64828484 64697140 64545608 64376876 64193920 
2815.788 64000516 63800788 63599856 63404000 63219652 63053920 62913492 
2819.164 62804356 62731728 62700024 62712624 62771812 62878064 63030632 
2822.539 63226236 63459752 63724964 64014264 64320044 64635420 64953796 
2825.914 65269364 65576456 65869376 66142856 66391572 66611104 66798412 
2829.289 66952312 67073128 67163040 67225624 67265040 67286048 67293520 
2832.665 67292232 67286552 67280520 67277920 67282104 67296344 67323696 
2836.040 67367144 67429944 67515288 67626696 67768472 67945688 68164424 
2839.415 68432680 68759176 69154408 69630000 70197672 70870216 71661528 
2842.790 72585896 73660376 74903864 76335744 77975648 79838496 81929272 
2846.166 84236672 86727616 89344408 91996352 94570272 96936688 98953136 
2849.541 100492536 101452088 101765472 101414840 100429032 98880568 96866736 
2852.916 94506056 91923824 89232896 86539048 83930616 81471680 79209704 
2856.291 77171488 75364944 73783584 72409632 71218960 70182904 69273704 
2859.667 68466392 67737952 67069880 66446660 65854916 65284380 64727136 
2863.042 64177780 63633956 63096256 62568060 62054760 61563864 61103964 
2866.417 60684056 60313244 59999580 59748836 59564852 59448080 59395688 
2869.792 59401652 59457388 59552348 59674168 59809828 59947120 60074112 
2873.167 60181808 60264440 60319260 60347736 60354096 60344920 60326876 
2876.543 60306772 60290440 60281988 60284308 60299196 60327520 60369172 
2879.918 60423700 60490232 60567744 60656088 60755200 60866036 60989516 
2883.293 61126424 61276692 61439032 61611480 61791288 61976180 62164284 
2886.668 62354688 62547356 62743136 62943140 63149096 63362896 63587816 
2890.044 63826816 64084492 64365232 64673796 65015712 65397264 65825500 
2893.419 66309652 66860436 67488664 68204432 69014672 69920416 70914216 
2896.794 71979360 73088128 74201576 75275560 76260584 77108368 77781048 
2900.169 78253288 78518528 78589120 78496016 78283448 77999560 77695336 
2903.545 77416216 77197768 77069264 77051304 77158464 77401808 77789768 
2906.920 78328768 79024560 79882744 80908728 82109448 83491960 85062984 
2910.295 86826144 88779664 90912192 93200432 95610000 98091856 100584840 
2913.670 103023408 105333168 107440712 109282728 110804552 111970968 
2916.563 112767872 113202448 113299808 113096800 112638208 111965520 
2919.457 111113080 110105752 108956208 107667488 106236744 104659888 
2922.350 102937136 101077032 99097928 97030096 94913312 92790016 90705304 
2925.725 88700000 86805024 85043560 83427264 81958320 80631064 79434104 
2929.100 78353728 77374096 76480776 75661000 74903624 74200440 73545632 
2932.475 72934968 72365984 71837272 71347728 70896544 70482304 70103312 
2935.851 69756280 69436728 69138520 68854528 68576728 68297880 68012688 
2939.226 67718784 67417296 67112576 66811972 66524088 66256972 66017896 
2942.601 65811580 65639192 65498696 65383820 65284728 65188044 65079488 
2945.976 64944832 64773060 64559176 64305172 64021172 63722508 63429340 
2949.352 63162088 62937892 62769204 62661864 62615320 62623052 62674188 
2952.727 62756076 62854244 62955508 63048632 63124268 63176608 63202368 
2956.102 63200368 63170904 63114992 63034192 62930456 62806688 62666684 
2959.477 62515324 62358168 62200528 62047076 61900976 61764396 61638248 
2962.853 61523280 61420100 61329428 61252352 61189784 61142064 61108884 
2966.228 61089852 61084056 61090616 61108768 61137832 61176776 61224656 
2969.603 61280776 61344232 61415524 61495376 61585364 61686900 61801412 
2972.978 61928680 62067600 62215328 62367540 62518580 62661060 62786588 
2976.354 62885880 62949152 62967652 62935056 62847548 62705232 62511808 
2979.729 62274256 62001476 61704240 61393920 61081348 60776808 60489124 
2983.104 60223708 59982956 59764916 59564132 59371644 59177260 58971584 
2986.479 58747040 58499968 58230124 57940488 57635536 57319144 56993736 
2989.854 56658676 56309768 55940408 55543572 55113128 54646472 54145676 
2993.230 53618200 53075860 52531580 51998104 51484608 50994632 50526608 
2996.605 50074672 49631184 49188600 48742020 48289484 47832396 47373348 
2999.980 46915744 46462308 46014984 45574852 45143032 44720380 44308712 
3003.355 43909056 43522616 43149588 42789532 42441756 42105392 41780200 
3006.731 41466328 41164016 40873304 40593996 40324824 40064616 39812084 
3010.106 39566188 39326712 39093968 38868084 38649780 38438896 38235424 
3013.481 38038812 37848616 37663996 37484724 37310008 37139184 36972184 
3016.856 36808776 36649040 36493544 36343036 36198160 36059348 35926736 
3020.232 35799996 35678680 35562188 35449500 35339968 35232656 35126952 
3023.607 35023316 34923156 34829160 34745448 34676320 34625504 34594968 
3026.982 34583988 34589264 34605268 34624716 34640684 34646892 34638496 
3030.357 34612012 34565440 34497780 34408892 34299548 34171092 34025656 
3033.733 33866328 33696068 33518534 33337176 33155464 32976686 32803596 
3037.108 32638248 32481932 32334700 32195654 32063038 31935062 31810190 
3040.483 31687778 31567894 31451572 31339590 31232584 31130696 31033100 
3043.858 30939158 30847868 30758802 30672172 30588438 30508668 30433496 
3047.234 30363810 30300280 30243084 30192324 30147890 30109036 30074770 
3050.609 30043522 30013662 29982986 29949580 29911526 29867546 29817044 
3053.984 29760692 29700656 29640132 29583022 29533474 29494712 29467868 
3057.359 29452160 29445422 29444110 29444926 29445564 29445068 29443650 
3060.735 29442160 29441770 29443224 29447408 29455210 29467726 29486768 
3064.110 29514076 29551032 29597742 29652940 29714034 29778292 29842490 
3067.485 29904354 29962324 30015046 30061348 30099982 30129458 30148636 
3070.860 30157230 30155918 30146044 30129812 30109144 30085422 30060176 
3074.236 30034290 30008902 29986004 29967436 29954656 29948196 29947450 
3077.611 29949792 29952526 29952420 29947486 29937082 29921712 29902828 
3080.986 29882314 29861976 29843130 29826838 29813850 29804126 29797632 
3084.361 29794084 29792450 29792414 29793906 29797880 29805866 29820060 
3087.737 29841496 29870388 29905172 29943048 29980572 30015082 30045190 
3091.112 30071182 30094300 30116602 30139864 30164974 30192570 30222800 
3094.487 30256120 30293460 30335846 30384064 30438186 30497080 30558862 
3097.862 30621184 30682342 30741482 30799030 30856192 30915000 30976804 
3101.238 31042746 31112934 31186834 31263060 31340088 31416378 31490828 
3104.613 31562656 31631824 31698722 31764488 31830050 31896442 31963770 
3107.988 32032076 32100636 32168820 32236226 32302718 32368824 32435156 
3111.363 32502320 32570672 32640822 32712982 32787692 32865346 32946374 
3114.739 33030346 33116698 33204318 33291776 33377964 33462164 33543520 
3118.114 33621628 33695672 33764532 33827072 33882984 33932636 33978532 
3121.489 34024080 34072992 34128476 34191812 34261868 34336020 34410576 
3124.864 34482748 34551232 34616712 34681344 34748208 34819788 34897052 
3128.240 34979320 35064444 35149512 35231756 35309020 35380368 35446588 
3131.615 35509864 35573120 35640196 35714224 35797152 35889200 35989008 
3134.990 36093588 36199316 36303300 36403780 36500028 36592840 36683004 
3138.365 36770984 36856604 36939172 37017936 37093060 37165464 37237296 
3141.740 37310984 37388728 37471724 37560224 37653264 37749680 37848220 
3145.116 37948188 38048940 38149968 38250840 38350612 38448852 38545156 
3148.491 38639964 38734028 38828588 38924508 39022116 39121160 39220948 
3151.866 39320508 39419152 39516940 39613920 39711028 39808920 39908144 
3155.241 40009208 40111968 40216604 40323120 40431476 40541536 40653192 
3158.617 40765780 40879092 40992180 41104640 41215164 41323528 41428964 
3161.992 41531296 41631460 41730624 41830688 41933696 42041404 42154352 
3165.367 42272300 42393752 42516220 42637412 42755196 42868076 42975248 
3168.742 43077064 43173632 43266308 43356292 43445160 43534668 43626136 
3172.118 43720264 43816828 43914148 44009952 44101448 44186176 44262848 
3175.493 44331500 44393884 44452756 44511672 44574488 44643888 44721596 
3178.868 44808136 44901748 44999604 45097812 45192408 45280036 45358996 
3182.243 45429552 45493564 45554352 45615224 45679412 45748656 45823800 
3185.619 45904228 45989344 46078052 46169540 46263336 46358476 46454452 
3188.994 46550376 46645688 46739628 46832104 46923052 47012468 47100500 
3192.369 47187036 47272184 47355648 47437612 47517820 47595788 47671144 
3195.744 47743476 47812568 47879528 47946012 48014580 48088272 48168820 
3199.120 48256644 48350336 48447008 48542960 48635384 48722816 48805448 
3202.495 48885204 48964268 49044460 49126892 49211236 49296636 49381640 
3205.870 49464808 49545164 49621936 49694560 49762848 49827508 49889684 
3209.245 49951272 50014360 50080584 50150304 50222424 50295224 50366768 
3212.621 50436132 50504312 50573396 50646368 50725456 50810372 50898840 
3215.996 50986768 51069944 51145308 51212332 51273404 51332880 51395680 
3219.371 51465360 51543888 51630976 51724204 51820700 51917404 52011924 
3222.746 52102468 52188212 52268292 52343080 52412908 52478900 52542840 
3226.122 52606712 52671948 52740296 52812392 52888508 52968192 53050552 
3229.497 53134236 53217788 53299968 53379728 53456544 53530860 53603504 
3232.872 53675032 53746428 53817496 53887820 53956588 54023444 54089268 
3236.247 54155324 54223864 54296400 54373568 54454388 54537140 54619344 
3239.623 54699536 54777224 54853012 54928280 55003380 55078072 55151276 
3242.998 55221368 55287708 55351616 55415488 55482800 55556940 55639188 
3246.373 55728684 55823172 55919116 56013492 56104688 56192320 56277024 
3249.748 56359596 56440452 56519320 56596276 56671320 56745436 56820508 
3253.124 56898764 56981420 57068964 57160264 57253176 57345724 57435840 
3256.499 57522380 57604888 57683360 57757876 57828996 57897324 57963928 
3259.874 58030344 58098064 58168144 58240732 58314964 58389624 58463196 
3263.249 58535384 58606172 58676864 58748820 58822644 58898268 58974584 
3266.625 59049812 59122816 59192832 59260160 59325792 59390788 59455488 
3270.000 59520236 59584692 59648664 59712376 59776516 59841996 59909884 
3273.375 59980788 60055164 60132940 60214080 60298508 60386308 60477472 
3276.750 60571932 60669080 60768500 60869656 60972168 61076312 61182156 
3280.125 61290048 61399836 61511408 61624728 61740104 61858528 61981376 
3283.501 62110112 62245572 62388080 62536448 62689500 62845476 63003504 
3286.876 63163848 63326896 63493608 63664996 63841088 64021520 64205708 
3290.251 64393356 64584360 64779712 64980156 65187156 65401464 65623388 
3293.626 65853028 66090344 66334704 66585688 66843084 67106544 67375848 
3297.002 67651368 67933488 68222112 68518024 68820744 69129856 69444664 
3300.377 69764640 70089720 70420424 70758048 71102952 71455560 71815056 
3303.752 72179592 72547560 72918000 73291384 73669680 74056080 74453256 
3307.127 74863424 75286752 75722136 76167584 76620920 77080312 77544584 
3310.503 78013160 78485736 78962328 79443416 79930056 80424664 80929856 
3313.878 81448016 81980048 82525072 83080016 83640688 84203360 84765568 
3317.253 85327328 85890184 86456512 87028088 87605432 88187520 88772592 
3320.628 89358976 89945992 90533808 91122832 91713384 92304656 92895304 
3324.004 93483592 94068520 94649832 95228160 95804576 96378952 96949608 
3327.379 97514008 98068768 98610752 99138104 99649880 100146144 100626992 
3330.754 101092008 101540448 101971208 102383016 102774976 103146120 
3333.647 103495080 103819704 104117576 104385992 104623208 104828992 
3336.540 105004496 105152000 105273408 105369016 105438408 105479256 
3339.433 105488888 105465440 105407952 105316352 105191256 105032256 
3342.326 104838480 104608320 104339896 104031936 103684608 103298288 
3345.219 102874104 102413048 101915400 101381232 100811208 100207288 
3348.113 99572072 98909776 98224520 97519200 96795800 96054424 95294632 
3351.488 94515944 93718736 92904296 92075392 91235312 90387632 89536200 
3354.863 88685008 87837336 86997312 86168168 85351888 84550064 83762664 
3358.238 82988752 82227352 81478040 80741184 80018136 79310672 78619456 
3361.614 77945000 77286120 76641432 76009632 75390680 74785448 74196656 
3364.989 73626808 73078592 72553552 72051832 71572520 71113376 70672728 
3368.364 70248224 69837640 69439064 69050408 68669248 68294312 67923688 
3371.739 67556168 67191008 66826852 66462956 66098332 65732048 65363488 
3375.115 64992660 64620004 64245888 63870720 63494460 63116372 62735060 
3378.490 62349292 61957532 61558256 61150116 60731992 60301976 59859188 
3381.865 59402832 58933520 58453344 57965288 57473660 56982968 56496376 
3385.240 56016056 55542856 55075816 54613296 54153372 53694192 53234232 
3388.615 52772544 52308320 51841604 51373004 50903944 50436872 49975068 
3391.991 49521620 49079408 48649948 48232836 47825960 47426932 47032260 
3395.366 46639272 46246860 45855248 45465752 45080500 44701872 44330728 
3398.741 43967896 43611592 43259824 42909808 42558832 42204888 41847544 
3402.116 41487544 41127116 40768804 40415516 40069124 39730456 39399380 
3405.492 39074824 38755224 38439260 38125332 37812648 37500584 37188420 
3408.867 36875900 36563212 36250780 35939768 35631780 35328468 35031396 
3412.242 34741460 34458964 34183604 33914940 33652524 33396140 33145412 
3415.617 32899156 32656182 32414272 32170962 31924292 31673558 31419728 
3418.993 31165936 30916032 30675372 30448174 30237258 30043452 29865170 
3422.368 29699486 29541632 29387204 29231766 29072028 28905548 28732088 
3425.743 28552752 28369210 28184438 28001122 27821592 27646976 27477442 
3429.118 27312100 27149256 26987142 26824386 26660422 26495604 26331166 
3432.494 26169076 26011128 25858618 25711996 25570450 25432288 25295294 
3435.869 25157888 25019048 24878886 24738242 24598102 24458494 24319458 
3439.244 24179382 24036584 23890542 23741574 23591400 23443094 23298754 
3442.619 23159040 23022690 22885790 22743312 22592120 22430792 22261990 
3445.995 22092104 21929464 21781968 21655558 21551714 21468154 21398778 
3449.370 21336754 21275020 21208386 21133868 21050250 20957642 20857024 
3452.745 20748710 20633442 20512056 20385182 20253972 20120646 19987052 
3456.120 19855650 19728446 19606828 19490960 19379976 19271824 19163838 
3459.496 19053766 18940228 18823430 18705142 18588270 18475926 18370592 
3462.871 18272782 18181386 18093912 18007424 17919744 17830218 17739570 
3466.246 17649700 17562128 17477436 17394138 17309892 17221078 17125422 
3469.621 17021414 16910472 16794634 16677827 16563220 16453084 16347997 
3472.997 16248098 16151899 16058300 15966784 15877111 15789412 15703863 
3476.372 15620115 15536934 15452978 15366396 15275266 15178631 15076392 
3479.747 14970302 14863414 14760323 14666236 14586149 14522899 14476821 
3483.122 14445100 14421430 14398345 14368479 14326390 14269786 14200659 
3486.498 14124116 14047003 13976030 13916051 13868737 13833161 13805796 
3489.873 13781752 13756477 13725937 13687706 13640519 13584620 13521276 
3493.248 13453396 13384536 13319445 13262802 13219077 13189839 13175869 
3496.623 13175186 13183520 13196260 13208557 13216105 13215661 13204868 
3499.999 13182871 13149640 13107463 13060476 13015577 12980754 12964674 
3503.374 12974130 13012675 13078505 13165076 13262870 13361130 13450218 
3506.749 13524557 13582534 13627389 13665582 13705692 13755964 13822797 
3510.124 13909174 14015108 14137088 14269923 14407490 14544621 14676826 
3513.500 14801323 14917488 15025212 15125278 15217818 15303135 15380848 
3516.875 15450712 15512518 15566571 15613246 15652506 15683902 15706439 
3520.250 15718807 15720284 15711008 15692698 15667072 15635984 15599782 
3523.625 15556955 15503281 15434164 15345286 15234908 15104694 14959739 
3527.000 14807562 14656742 14513923 14383172 14265369 14157456 14054362 
3530.376 13950778 13841541 13722688 13591731 13447689 13290098 13119962 
3533.751 12939344 12750953 12558962 12367805 12181536 12003693 11835660 
3537.126 11677394 11526976 11381168 11235817 11088169 10934830 10774071 
3540.501 10605359 10429416 10248319 10065535 9884928 9709954 9543484 9387067 
3544.359 9240892 9104545 8978254 8862854 8760198 8671694 8597166 8533228 
3548.216 8473556 8409738 8333465 8239577 8127581 8002890 7875332 7757021 
3552.074 7658369 7585128 7536577 7506100 7484559 7461502 7429312 7384654 
3555.931 7326892 7258727 7183262 7103197 7020081 6933918 6843733 6748619 
3559.789 6647302 6539416 6424931 6303787 6175148 6037543 5887823 5722610 
3563.646 5538565 5333667 5110693 4877212 4648880 4448284 4299212 4223155 
3567.503 4231520 4320160 4471115 4656851 4849066 5021087 5155185 5242069 
3571.361 5280000 5274064 5232780 5167323 5087762 5002719 4918262 4838110 
3575.218 4763467 4694262 4629858 4569548 4513130 4461474 4415413 4375783 
3579.076 4342917 4315743 4291615 4267188 4238245 4199702 4147848 4078106 
3582.933 3986305 3868948 3723082 3547766 3346576 3129226 2912184 2718757 
3586.791 2576176 2506953 2523683 2622342 2783512 2976134 3165838 3324138 
3590.648 3430794 3476717 3463124 3399937 3302903 3189035 3076365 2978269 
3594.505 2902678 2851712 2822196 2807756 2799886 2790948 2774875 2748399 
3598.363 2712189 2670213 2629976 2600808 2590909 2605975 2646444 2706420 
3602.220 2775009 2838938 2883398 2895539 2866121 2789915 2666880 2502520 
3606.078 2308542 2101566 1902110 1732085 1608019 1537221 1513081 1517370 
3609.935 1525217 1511884 1463010 1376679 1265607 1151475 1059626 1009706 
3613.792 1006751 1039664 1084139 1111477 1094071 1015751 873794 682733 
3617.650 472582 282493 156918 130866 220563 419580 700222 1021928 1340682 
3621.990 1620956 1838085 1978693 2040708 2026659 1940882 1784682 1556108 
3625.847 1251451 870574 427108 -43370 -480575 -801865 -931888 -835995 
3629.704 -539219 -116616 342873 762121 1097957 1337525 1491336 1583941 
3633.562 1644470 1697822 1756403 1820583 1880811 1924973 1944443 1937521 
3637.419 1909498 1870529 1830532 1795163 1765486 1737574 1706071 1666123 
3641.277 1615602 1553514 1477704 1381631 1253378 1075038 828312 497494 76612 
3645.616 -427980 -994901 -1587330 -2161479 -2669275 -3066538 -3319012 
3648.991 -3402392 -3303393 -3022580 -2578442 -2010979 -1377184 -746530 
3652.367 -184517 259251 552530 689337 688739 594632 466180 367413 350600 
3656.706 436694 614375 847666 1095200 1321472 1504901 1638516 1725798 
3660.564 1775932 1799754 1806908 1805144 1798623 1788941 1774202 1749284 
3664.421 1705439 1632131 1517636 1350886 1123702 833059 486315 103622 
3668.279 -274859 -586176 -756652 -716396 -429337 87018 761988 1496789 
3672.136 2204259 2822830 3331483 3746710 4110818 4471985 4857007 5246965 
3675.993 5573300 5749805 5705723 5421358 4925634 4286964 3591095 2927695 
3679.851 2373003 1966910 1711726 1575861 1512881 1476308 1433355 1367804 
3683.708 1272885 1143302 968991 733676 420508 20775 -455354 -974140 -1480619 
3688.048 -1904405 -2185183 -2289513 -2218611 -1999733 -1671803 -1272667 
3691.423 -832059 -376372 68394 478354 831001 1110780 1314260 1448681 1531136 
3695.763 1580250 1612242 1633095 1637352 1610181 1534427 1397952 1199616 
3699.620 953118 686151 438982 251858 156884 168618 278614 459215 669359 
3703.960 868250 1019338 1096164 1084870 981976 792394 526719 199380 -172262 
3708.299 -570921 -975165 -1360933 -1701046 -1964012 -2118715 -2141136 
3711.675 -2018895 -1759097 -1388017 -948452 -487558 -50062 326791 620015 
3715.532 818884 924528 948768 911147 835117 740613 641783 543705 444986 
3719.872 341713 233790 127883 37675 -21139 -36909 -7554 57458 140908 223646 
3724.693 293401 348278 397359 453377 527084 617394 708585 772876 776892 
3729.033 692888 503199 207302 -179085 -620885 -1071854 -1488015 -1834792 
3732.890 -2098634 -2285459 -2411085 -2487755 -2516119 -2484460 -2376716 
3736.266 -2186040 -1923208 -1616051 -1302234 -1018042 -788437 -629157 
3739.641 -547658 -547658 -635641 -821476 -1117662 -1531799 -2054479 -2647310 
3743.498 -3227361 -3680561 -3907362 -3872060 -3631638 -3300006 -3002245 
3746.874 -2826064 -2814147 -2968680 -3256499 -3615636 -3963641 -4223305 
3750.249 -4335710 -4272785 -4037312 -3653094 -3158026 -2597546 -2024534 
3753.624 -1491251 -1039990 -700120 -482858 -381801 -376471 -437248 -533064 
3757.481 -633590 -715370 -761878 -759033 -695423 -564038 -367632 -122943 
3761.339 137494 370530 537567 611355 585939 477956 324403 171336 56397 -2783 
3766.161 -16666 -14346 -32138 -94156 -202070 -332306 -442379 -486731 -430462 
3770.500 -265289 -10569 293865 603524 880302 1097824 1245204 1323200 1339785 
3774.840 1304356 1225167 1106328 948303 752827 526852 285908 58286 -120028 
3779.179 -216609 -209886 -102703 78634 289157 482965 624793 697700 706926 
3783.519 674635 634217 615569 638000 705333 806933 924561 1039298 1138286 
3787.859 1214867 1267967 1299770 1313230 1311501 1297311 1273250 1239721 
3791.716 1194566 1129848 1033054 890528 691494 435632 136765 -174581 -459491 
3796.056 -681297 -820187 -884175 -909041 -948419 -1052287 -1256644 -1566697 
3799.913 -1953259 -2346893 -2653172 -2787745 -2704773 -2424858 -2022622 
3803.288 -1600469 -1248450 -1023926 -949279 -1006835 -1145753 -1286707 
3806.664 -1348381 -1271775 -1042999 -695522 -292673 97623 427672 670786 
3810.521 820676 883887 869810 783829 623732 382900 57027 -346178 -796606 
3814.861 -1240653 -1612486 -1851916 -1937228 -1895795 -1798563 -1727185 
3818.236 -1747712 -1895696 -2165402 -2507225 -2830640 -3033109 -3024916 
3821.611 -2773193 -2316869 -1749263 -1179889 -692677 -339557 -133045 -53905 
3825.469 -59802 -98728 -125427 -110885 -53210 26276 93448 116282 75088 
3829.808 -32006 -190081 -372995 -551530 -704884 -825842 -921605 -1008224 
3833.666 -1105566 -1229849 -1389503 -1584755 -1807373 -2042244 -2266968 
3837.041 -2454281 -2577421 -2614013 -2554100 -2403210 -2181919 -1918161 
3840.416 -1640511 -1374079 -1133360 -922829 -736541 -563178 -388058 -200315 
3844.273 2716 214198 418353 595561 725479 791497 784294 699392 537037 296949 
3849.095 -22530 -427318 -925738 -1522256 -2209381 -2956865 -3693965 -4312909 
3852.953 -4687727 -4718865 -4390425 -3781281 -3027252 -2253421 -1545501 
3856.328 -944419 -457207 -77460 204286 395800 501508 525094 473611 358956 
3860.667 197987 8250 -193724 -396135 -590974 -769287 -918563 -1021347 
3864.525 -1060120 -1028322 -937872 -823362 -731579 -708854 -786750 -969578 
3868.382 -1227899 -1499110 -1708538 -1789258 -1715964 -1515158 -1250399 
3871.758 -990703 -781425 -636634 -537730 -448105 -326611 -148779 82147 
3875.615 335644 567360 732847 798535 751433 598614 368640 103324 -145699 
3879.955 -329823 -418115 -405238 -314195 -185113 -66925 -762 -8813 -91042 
3884.294 -222007 -357071 -440360 -428410 -307772 -102140 138124 355806 
3888.152 501176 546757 489533 350567 169812 -1192 -111150 -127712 -42078 
3892.491 127982 350600 587167 802983 973375 1080518 1114799 1073344 958099 
3896.831 777025 543174 276293 497 -259925 -482660 -654831 -774082 -849222 
3901.170 -894062 -921903 -939724 -944286 -922895 -857159 -731744 -539219 
3905.028 -285322 14148 334782 651373 943389 1195230 1397886 1549125 1651854 
3909.367 1712558 1740535 1746889 1741067 1730721 1719411 1705506 1683219 
3913.225 1644004 1580084 1487047 1366840 1227759 1084172 954214 852945 
3917.082 791331 772643 792792 842852 913039 993666 1076167 1153136 1216993 
3921.422 1260390 1278268 1268698 1235867 1189948 1145163 1117656 1118752 
3925.279 1151940 1210680 1281758 1347761 1393465 1410218 1396390 1357367 
3929.137 1302694 1243410 1189416 1147654 1122373 1116095 1130280 1165096 
3932.994 1218987 1287773 1364613 1440868 1508592 1561362 1597310 1618295 
3936.852 1629636 1636587 1642874 1648627 1649625 1639448 1611943 1564255 
3940.709 1499116 1425144 1354209 1300302 1273981 1280096 1315755 1371826 
3944.566 1435882 1493896 1534860 1552716 1545866 1518367 1477871 1434386 
3948.424 1397021 1373155 1366075 1375715 1398783 1430330 1466334 1503206 
3952.281 1538817 1572701 1604593 1634160 1660901 1684217 1703078 1717681 
3956.139 1728592 1736776 1743728 1750349 1757069 1763689 1769911 1775167 
3959.996 1779991 1785215 1791536 1799821 1810368 1822646 1836255 1850031 
3963.854 1863474 1875953 1887467 1897584 1906003 1912726 1917319 1919915 
3967.711 1921213 1921079 1920148 1918051 1914290 1908366 1899947 1889297 
3971.568 1877816 1867301 1859913 1857518 1861777 1872692 1890096 1913259 
3975.426 1940749 1970704 2001494 2030521 2055589 2074831 2086850 2092011 
3979.283 2091811 2088815 2085885 2085452 2088748 2095373 2103697 2111622 
3983.141 2116682 2117515 2113586 2104962 2092776 2078294 2062780 2047266 
3986.998 2032485 2019036 2007186 1997200 1989078 1982454 1977494 1973900 
3990.855 1971670 1970205 1968873 1967243 1964713 1961052 1956159 1951167 
3994.713 1946906 1944177 1944044 1946207 1950101 1954861 1959521 1963415 
3998.570 1966377 1968840 1970405 1971670 1972036 
##END=
