
##TITLE=Z351_3_c
##JCAMP-DX=5.01  $$ Nicolet v. 1
##DATATYPE=INFRARED SPECTRUM
##ORIGIN=UniL
##OWNER=Nicolet
##LONGDATE=2011/09/13
##TIME=14:55:43
##SPECTROMETER/DATA SYSTEM=Nicolet iS5
##DATA PROCESSING=
Ratio against background
%Transmittance->Absorbance
Truncated
ElementMultiply or ElementDivide
##COMMENTS=
Number of sample scans: 32
Collection length: 51.22 sec
Sample gain: 2.0
Background collected on: Mar Sep 13 14:49:03 2011 (GMT+02:00);
Number of background scans: 32
Background gain: 2.0
Sample spacing:  1.000
Number of scan points: 12415
Resolution points: 8192
Number of FFT points: 65536
Apodization: N-B fort;
Phase correction: Mertz;
Laser frequency: 15798.0 cm-1
Number of rejected sample scans: 0
Number of rejected background scans: 0
Bench serial number: ASB1000141;
##RESOLUTION=4.000
##XUNITS=1/CM
##YUNITS=ABSORBANCE
##FIRSTX=649.893372
##LASTX=4000.122314
##FIRSTY=0.119786
##MAXX=4000.122314
##MINX=649.893372
##MAXY=0.333440
##MINY=0.004039
##XFACTOR=1.000000
##YFACTOR=1.000000E-009
##NPOINTS=6950
##DELTAX=0.482117
##ZPD=6100
##XYDATA=(X++(Y..Y))
649.893 119786112 119351976 118978368 118702400 118540336 118485272 
652.786 118519400 118626976 118806976 119072288 119438816 119913608 
655.679 120486424 121133160 121831608 122576448 123387176 124304224 
658.571 125371680 126614032 128030968 129598480 131289648 133094280 
661.464 135030064 137130320 139426272 141917024 144561552 147282288 
664.357 149997152 152642512 155170624 157547232 159717664 161572976 
667.250 162957920 163716848 163780384 163209952 162152896 160749888 
670.142 159077360 157149328 154955216 152495904 149817040 147010064 
673.035 144183456 141442576 138850816 136422992 134142264 131983224 
675.928 129934104 128002096 126206088 124560112 123062504 121691792 
678.820 120415408 119199664 118023264 116878400 115766176 114688944 
681.713 113644072 112623224 111617696 110624296 109650728 108711728 
684.606 107825416 107003176 106245712 105543552 104881544 104246584 
687.498 103630888 103033576 102455880 101897544 101352992 100811336 
690.391 100259408 99688096 99093056 98475936 97840424 97190048 96527112 
693.766 95854152 95179064 94518288 93894992 93338024 92872368 92512560 
697.141 92259544 92102256 92023208 92004904 92036768 92117216 92251384 
700.516 92446232 92705016 93024792 93396280 93806816 94243720 94698240 
703.890 95164672 95638328 96113040 96580208 97027904 97447368 97834272 
707.265 98193160 98535256 98877152 99235864 99626368 100064080 100568512 
710.640 101166368 101896968 102803992 103925680 105280216 106849408 
713.533 108569136 110326712 111986144 113403384 114454968 115070840 
716.425 115238480 115010688 114486400 113807800 113137384 112630864 
719.318 112439160 112682616 113432256 114699944 116416752 118435048 
722.211 120517640 122384600 123756928 124391976 124158752 123059904 
725.104 121241648 118948904 116480480 114127640 112095504 110499584 
727.996 109357480 108617560 108191208 107986632 107934576 107986160 
730.889 108111640 108290560 108501664 108723136 108936704 109131688 
733.782 109308424 109474960 109641856 109815400 109994296 110172280 
736.674 110344016 110509368 110675848 110855448 111058688 111290064 
739.567 111545432 111814360 112086024 112354312 112619480 112885856 
742.460 113157248 113432088 113703952 113964096 114206936 114435128 
745.352 114658696 114891352 115141760 115408304 115677816 115930104 
748.245 116147120 116319504 116450544 116554144 116646624 116738568 
751.138 116831696 116919992 116995368 117054160 117101400 117147792 
754.031 117206984 117287448 117389472 117505320 117624248 117737640 
756.923 117842728 117942872 118044528 118154336 118276920 118414552 
759.816 118570464 118749000 118956272 119197000 119471104 119771880 
762.709 120087888 120408856 120731808 121067784 121443064 121899864 
765.601 122490864 123268944 124283088 125563248 127106904 128863904 
768.494 130728216 132546824 134125512 135285472 135908464 135979616 
771.387 135610000 135018304 134483632 134238080 134407312 134949632 
774.279 135668256 136244944 136333360 135682128 134181160 131904064 
777.172 129058704 125934600 122807056 119867016 117214232 114848920 
780.065 112709280 110704792 108756336 106813728 104858520 102901360 
782.958 100969840 99102304 97335952 95705312 94239648 92958096 91872120 
786.332 90984840 90293808 89794480 89483920 89363008 89436976 89714024 
789.707 90202040 90908888 91841664 93008952 94424672 96108416 98083632 
793.082 100374792 102997120 105949680 109205856 112713152 116390280 
795.975 120127344 123803592 127289560 130461632 133231568 135557568 
798.867 137468400 139059872 140496816 141977488 143679360 145728816 
801.760 148139872 150793808 153416656 155621328 156983888 157093376 
804.653 155687376 152711920 148352800 142990768 137118816 131246072 
807.546 125744912 120816568 116465144 112541504 108811072 105042304 
810.438 101092304 96925296 92617864 88308472 84161368 80313344 76845256 
813.813 73789360 71133520 68842408 66871024 65177536 63725732 62482840 
817.188 61420560 60514796 59745756 59100304 58571364 58154616 57847204 
820.563 57643784 57537360 57521320 57591984 57751252 58005884 58366352 
823.938 58842640 59440976 60162472 61001912 61948740 62983932 64080620 
827.312 65203524 66306180 67339832 68261736 69044856 69691264 70237904 
830.687 70759488 71353904 72136280 73223520 74705592 76634640 78998048 
834.062 81708416 84582232 87346536 89685464 91249544 91741416 90987328 
837.437 88964536 85825136 81849136 77410600 72877904 68557488 64679368 
840.812 61361864 58635032 56464376 54780192 53499492 52539656 51832272 
844.186 51318260 50949356 50690604 50516632 50412612 50372092 50391292 
847.561 50465196 50585088 50738416 50912660 51099984 51299916 51519412 
850.936 51769444 52060932 52399864 52786760 53218084 53689956 54200552 
854.311 54752268 55349920 55999732 56707300 57478128 58319660 59244704 
857.686 60270572 61421400 62724716 64208016 65900536 67833072 70037504 
861.060 72549128 75396912 78590552 82100880 85844072 89673408 93368712 
864.435 96678008 99342888 101132280 101903288 101614136 100341352 98257176 
867.810 95614624 92708792 89812168 87173088 84979648 83344600 82324344 
871.185 81919624 82091400 82766840 83849904 85229624 86769496 88322968 
874.560 89741640 90876208 91608584 91864344 91623032 90922536 89850592 
877.935 88531416 87092744 85654952 84311736 83113632 82072384 81163296 
881.309 80340816 79550368 78746232 77905632 77031008 76150128 75303896 
884.684 74539240 73892808 73385376 73021912 72795584 72695408 72713936 
888.059 72851696 73116744 73520592 74072512 74775176 75623928 76608592 
891.434 77717008 78939512 80270928 81710016 83257256 84912232 86671304 
894.809 88525320 90458960 92443728 94435168 96370056 98156808 99688432 
898.183 100853792 101547896 101701312 101289896 100342600 98933448 97172760 
901.558 95194448 93127256 91094952 89203312 87528536 86125536 85025504 
904.933 84238960 83762944 83585848 83693472 84072296 84712488 85608824 
908.308 86759296 88162968 89819704 91728400 93888160 96297512 98952008 
911.683 101842376 104948584 108235120 111654896 115150568 118664080 
914.575 122153472 125598904 129011888 132431568 135921984 139557904 
917.468 143404480 147505872 151860368 156407200 161002608 165423776 
920.361 169390800 172572768 174670608 175477456 174931856 173163872 
923.254 170493504 167418832 164501888 162328224 161427776 162157712 
926.146 164687328 168940000 174611904 181158576 187858080 193955936 
929.039 198686208 201436640 201845072 199794864 195418448 189015952 
931.932 181006240 171838720 161950512 151776960 141699552 132050040 
934.824 123118992 115113896 108176288 102385488 97758496 94274144 91886320 
938.199 90538992 90165088 90679048 91971160 93877672 96177120 98613872 
941.574 100888480 102714496 103867008 104194648 103658440 102325096 
944.467 100355672 97962296 95369904 92795560 90402368 88298968 86541552 
947.841 85138880 84069400 83293824 82770208 82455960 82311560 82303600 
951.216 82399120 82567912 82785480 83032520 83298080 83579664 83880336 
954.591 84205656 84560016 84945072 85359392 85800304 86265512 86754440 
957.966 87267456 87804848 88365200 88945264 89540800 90148856 90769288 
961.341 91404880 92059584 92736848 93437032 94157488 94893776 95642288 
964.716 96402408 97177448 97972848 98793408 99641200 100515008 101411032 
968.090 102325768 103258488 104211920 105190664 106199208 107239152 
970.983 108308752 109404752 110524328 111668304 112840528 114047496 
973.876 115294776 116584864 117916744 119287912 120696760 122145568 
976.768 123640680 125190232 126801640 128479216 130224288 132037864 
979.661 133924632 135895344 137968064 140163408 142500208 144991536 
982.554 147640768 150442336 153381600 156436736 159573488 162738768 
985.447 165861472 168842416 171562512 173903888 175755088 177037168 
988.339 177716960 177809504 177376960 176515232 175354480 174037072 
991.232 172704752 171498960 170534160 169894640 169632624 169764064 
994.125 170278096 171146304 172336528 173818432 175568384 177569360 
997.017 179805408 182258224 184908016 187733088 190712688 193829808 
999.910 197064832 200390448 203766576 207132128 210412304 213529872 
1002.803 216412448 219012432 221310928 223320000 225077376 226641152 
1005.695 228087712 229500416 230970480 232591344 234440896 236579152 
1008.588 239037536 241817216 244894192 248228912 251781408 255512448 
1011.481 259387616 263374272 267430576 271506336 275548544 279504640 
1014.374 283335776 287017952 290532608 293854976 296937312 299697568 
1017.266 302032096 303827744 304986016 305454016 305235168 304398432 
1020.159 303064064 301404672 299629088 297947872 296580608 295719648 
1023.052 295502784 296014656 297268608 299218784 301768704 304798336 
1025.945 308184928 311800960 315527712 319243808 322808992 326077184 
1028.838 328898080 331129216 332665888 333439936 333420608 332605440 
1031.731 331006880 328647616 325560256 321795520 317424576 312530656 
1034.624 307204256 301525472 295554208 289336512 282910304 276318208 
1037.517 269620384 262891856 256216384 249683968 243373488 237353040 
1040.410 231681808 226400480 221531744 217067264 212958832 209108032 
1043.303 205366576 201566848 197532128 193119808 188256880 182947392 
1046.196 177278016 171390576 165470912 159708656 154267248 149285760 
1049.089 144855488 141022256 137794880 135149936 133042472 131413088 
1051.982 130201608 129350128 128805416 128523528 128461792 128572968 
1054.875 128805104 129093184 129361424 129535168 129539672 129312288 
1057.768 128811840 128016816 126931560 125584616 124032384 122353952 
1060.661 120643256 119010872 117563608 116396696 115591888 115203056 
1063.554 115259864 115767176 116707352 118040744 119703912 121616864 
1066.448 123675864 125758888 127744688 129512400 130960536 132022112 
1069.341 132660224 132870752 132672640 132101416 131199376 130008784 
1072.234 128573376 126932936 125124064 123184680 121152824 119071240 
1075.127 116993384 114978952 113095816 111417152 110007056 108920568 
1078.020 108195248 107845760 107865040 108223048 108872416 109744232 
1080.913 110751872 111801032 112783216 113594704 114152896 114403952 
1083.806 114341392 114007904 113496968 112933336 112457704 112217976 
1086.699 112338688 112917824 114018376 115658960 117813864 120408152 
1089.592 123331000 126430776 129531456 132464600 135070624 137225552 
1092.485 138854496 139924320 140442544 140443616 139982544 139123232 
1095.378 137930960 136476512 134829216 133057464 131234240 129427432 
1098.271 127698496 126096216 124642664 123327128 122097328 120868728 
1101.164 119527560 117950920 116040632 113734296 111027968 107976256 
1104.057 104689064 101311656 97993608 94885608 92111968 89759200 87885040 
1107.433 86512320 85638328 85241160 85286440 85730920 86522464 87605552 
1110.808 88918912 90391800 91951256 93514984 94993344 96301520 97357760 
1114.183 98095800 98475432 98482040 98128984 97450312 96497240 95328264 
1117.558 94000464 92570416 91086088 89584944 88096072 86637288 85217976 
1120.934 83842392 82512576 81231800 80007016 78847808 77764840 76766840 
1124.309 75857248 75033808 74289832 73618800 73018184 72493840 72060320 
1127.684 71740400 71559352 71538296 71690960 72017528 72504800 73124936 
1131.059 73838448 74597976 75347256 76031496 76601904 77021040 77273296 
1134.435 77367000 77335600 77228720 77107416 77033112 77052496 77195512 
1137.810 77467624 77851400 78306896 78777288 79199608 79504456 79628536 
1141.185 79522912 79151688 78498200 77562968 76360312 74915200 73259256 
1144.560 71431776 69474016 67430376 65348008 63270012 61236748 59282912 
1147.936 57433080 55704388 54105856 52640300 51306964 50103672 49027840 
1151.311 48076724 47246988 46534328 45933540 45439372 45047492 44755640 
1154.686 44562632 44468836 44473752 44576468 44774964 45067708 45454716 
1158.061 45938184 46522456 47211892 48009996 48917464 49931612 51046764 
1161.437 52254092 53542556 54896320 56293584 57707428 59102124 60437676 
1164.812 61674412 62772156 63697068 64422876 64930328 65209492 65259584 
1168.187 65089384 64716324 64165072 63466728 62652716 61754580 60802608 
1171.562 59822416 58838504 57874080 56950556 56089680 55311604 54632420 
1174.938 54065096 53618052 53295808 53101360 53037712 53108624 53319408 
1178.313 53676084 54183964 54848236 55673424 56665056 57830736 59179468 
1181.688 60721892 62468612 64427868 66605352 69002792 71616872 74435984 
1185.063 77434752 80572464 83781784 86971080 90033432 92842456 95273872 
1188.438 97220176 98591832 99334808 99432608 98907944 97817968 96247920 
1191.814 94306784 92105904 89755616 87359504 84999992 82743904 80640360 
1195.189 78718584 76993504 75466640 74129288 72964360 71948696 71056712 
1198.564 70258272 69522504 68819504 68117872 67388352 66605972 65750012 
1201.939 64809060 63782252 62681580 61530080 60358856 59204680 58100640 
1205.315 57074936 56147328 55327224 54616976 54013352 53510960 53103380 
1208.690 52783844 52545044 52378480 52274872 52226140 52226440 52274612 
1212.065 52373580 52530720 52754472 53052760 53431584 53894008 54440604 
1215.440 55069532 55776868 56555700 57395412 58282752 59201756 60136632 
1218.816 61074784 62007248 62929348 63840360 64741708 65636576 66529764 
1222.191 67430064 68349920 69305616 70316400 71400808 72572424 73838208 
1225.566 75196248 76635544 78136576 79673752 81215736 82724624 84161936 
1228.941 85488712 86669448 87680024 88508128 89156728 89642736 89998216 
1232.317 90268808 90508176 90785176 91176864 91762328 92626920 93849256 
1235.692 95495632 97621696 100264672 103445632 107170656 111432272 116208080 
1239.067 121455472 127114104 133099184 139300272 145599152 151864752 
1241.960 157962384 163769280 169161728 174022096 178247184 181742464 
1244.853 184434752 186276384 187242768 187332064 186559520 184958288 
1247.746 182577200 179480608 175750256 171471520 166724224 161575232 
1250.639 156067232 150225264 144067728 137619392 130927000 124068048 
1253.532 117142536 110275496 103602072 97243512 91311192 85887840 81018448 
1256.908 76716896 72963184 69712504 66899508 64449280 62286108 60332164 
1260.283 58520444 56796980 55120352 53467560 51830036 50211264 48622080 
1263.658 47076904 45590380 44174620 42839924 41594520 40444352 39392992 
1267.033 38440564 37583240 36813068 36120056 35495052 34931380 34426612 
1270.409 33982044 33600936 33286266 33039286 32860522 32750104 32709696 
1273.784 32743170 32855090 33049156 33324656 33674800 34085572 34534512 
1277.159 34994660 35433000 35813628 36103744 36273076 36301968 36184588 
1280.534 35930696 35563408 35113296 34614308 34094244 33570976 33054088 
1283.910 32546136 32048448 31565864 31107808 30687996 30321952 30021898 
1287.285 29796142 29648612 29581002 29595048 29694094 29882314 30162808 
1290.660 30535718 30996340 31535256 32138672 32790552 33469644 34150984 
1294.035 34805752 35400892 35905180 36295520 36560868 36707268 36756668 
1297.411 36744660 36710512 36693564 36728688 36841528 37050444 37365580 
1300.786 37786984 38302768 38885260 39494660 40076356 40571296 40927188 
1304.161 41101144 41070148 40831444 40400860 39808232 39091136 38294480 
1307.536 37461752 36634296 35850152 35137440 34514604 33989284 33559948 
1310.912 33219374 32959100 32772898 32657790 32612782 32636642 32725844 
1314.287 32874744 33076972 33327836 33626536 33974988 34375968 34829948 
1317.662 35333100 35876676 36450732 37046512 37659080 38287640 38932480 
1321.037 39591452 40256696 40913168 41539132 42111564 42608136 43011976 
1324.413 43315800 43523388 43652184 43730560 43800116 43908320 44099980 
1327.788 44412932 44865852 45455376 46155280 46924048 47716220 48489648 
1331.163 49217692 49890280 50512092 51096964 51662396 52226068 52801692 
1334.538 53400784 54032416 54702056 55411276 56155816 56926416 57708752 
1337.914 58486624 59245728 59973672 60661272 61301496 61888708 62418380 
1341.289 62888756 63301212 63661196 63977128 64258224 64511432 64740056 
1344.664 64942600 65115788 65255656 65360292 65429240 65460324 65445072 
1348.039 65366336 65195664 64897968 64440744 63800716 62973244 61976100 
1351.415 60851056 59657216 58462176 57340776 56361032 55579456 55039596 
1354.790 54762340 54744752 54956596 55346948 55848192 56385704 56894988 
1358.165 57323004 57634964 57816280 57868856 57811128 57673976 57505168 
1361.540 57366184 57323080 57443328 57775588 58336640 59107400 60035152 
1364.916 61046260 62050744 62960336 63691124 64165452 64327300 64145444 
1368.291 63621564 62790804 61716116 60478272 59154176 57814196 56513696 
1371.666 55289140 54170108 53183704 52358144 51727080 51320160 51153060 
1375.041 51220424 51495388 51939508 52512400 53186180 53950320 54811508 
1378.417 55790016 56915648 58227284 59767124 61582232 63716216 66190972 
1381.792 68985504 72009160 75104544 78036840 80527512 82311048 83141368 
1385.167 82849472 81377480 78811736 75396120 71487944 67513392 63836524 
1388.542 60692856 58181664 56279404 54894892 53908904 53210408 52704564 
1391.917 52313592 51980736 51661504 51324564 50954988 50553036 50133200 
1395.293 49714992 49316156 48945168 48600732 48277156 47970212 47683124 
1398.668 47429704 47231100 47108772 47079596 47149548 47314668 47565248 
1402.043 47890144 48279896 48728040 49232764 49794880 50416296 51096892 
1405.418 51833092 52617636 53441140 54295308 55175392 56081424 57016668 
1408.794 57985356 58990372 60031120 61104532 62206608 63332572 64475760 
1412.169 65623932 66752656 67826376 68801336 69633584 70295904 70785968 
1415.544 71132072 71384752 71611632 71885744 72270680 72818104 73555688 
1418.919 74479368 75552400 76713536 77893776 79028576 80070872 80996368 
1422.295 81803568 82519192 83194496 83900952 84705848 85652776 86748976 
1425.670 87965656 89253288 90558544 91843296 93085136 94276976 95422776 
1429.045 96532288 97621488 98711688 99837136 101041960 102369472 103857208 
1432.420 105522936 107365344 109368984 111519984 113821024 116294560 
1435.313 118981376 121921760 125131088 128573952 132173064 135839440 
1438.207 139496128 143085152 146547664 149813104 152769408 155265168 
1441.100 157142512 158239664 158428960 157638816 155852896 153117760 
1443.993 149533808 145261632 140498320 135449200 130331664 125338960 
1446.886 120638352 116377720 112662000 109541856 107000808 104966352 
1449.779 103333768 102001336 100907632 100041552 99438656 99151344 99220000 
1453.154 99641664 100367944 101303832 102329080 103326376 104185136 
1456.047 104841016 105300400 105658528 106060320 106638768 107487344 
1458.940 108642880 110110832 111883336 113942040 116254848 118762888 
1461.833 121387144 124010080 126473920 128609600 130246416 131269024 
1464.726 131663144 131531880 131060136 130437416 129824088 129316120 
1467.619 128952440 128738328 128654104 128659856 128683432 128616376 
1470.512 128310608 127585280 126285048 124341632 121831832 118964080 
1473.406 116005880 113186312 110633104 108394224 106477504 104887408 
1476.299 103645864 102781152 102302704 102186768 102371152 102774768 
1479.192 103311832 103917976 104563256 105251160 106012648 106890896 
1482.085 107931856 109175096 110657856 112425080 114530664 117035328 
1484.978 119990352 123414328 127263936 131406264 135630064 139627728 
1487.871 143022736 145430528 146474544 145876672 143539664 139588880 
1490.764 134365136 128318848 121913512 115500368 109279616 103346584 
1493.657 97711768 92362568 87319400 82646744 78459576 74896928 72068888 
1497.032 70018744 68711824 68066128 67979168 68357632 69131328 70242768 
1500.407 71640784 73276280 75092136 77025392 79013032 80972936 82805368 
1503.783 84383928 85521144 85976648 85476528 83787456 80858880 76926096 
1507.158 72465216 67964208 63738124 59886152 56370652 53115624 50068460 
1510.533 47213040 44572248 42184696 40076680 38256268 36707124 35398952 
1513.908 34298332 33376138 32609068 31974650 31450362 31016838 30660366 
1517.284 30379194 30180922 30074450 30061168 30129316 30254202 30407696 
1520.659 30570378 30744824 30956736 31242092 31625018 32104422 32659504 
1524.034 33261762 33890688 34539968 35221876 35960176 36780724 37697168 
1527.409 38706752 39794036 40940436 42132592 43366028 44646712 45986544 
1530.785 47398992 48897404 50491808 52185748 53973432 55835532 57739596 
1534.160 59644936 61515532 63324176 65054356 66688864 68207536 69589440 
1537.535 70805312 71828192 72635600 73214776 73559408 73666376 73543352 
1540.910 73209760 72701560 72062312 71327544 70511224 69602072 68575840 
1544.286 67414192 66127612 64761020 63383676 62059116 60815684 59642616 
1547.661 58496600 57327540 56103972 54836244 53574864 52395788 51360328 
1551.036 50491432 49770468 49154056 48599252 48082496 47609688 47207424 
1554.411 46903820 46706452 46591832 46506856 46383660 46142384 45700764 
1557.787 44992916 43997412 42778852 41484812 40282108 39273032 38472636 
1561.162 37839652 37314124 36839324 36366744 35862424 35310172 34717556 
1564.537 34113384 33538078 33029240 32602996 32251004 31944298 31648468 
1567.912 31334676 30991714 30630640 30280242 29974040 29733902 29564616 
1571.288 29456378 29394260 29364124 29354410 29354516 29350086 29323746 
1574.663 29258524 29146432 28998770 28847544 28735734 28693644 28727840 
1578.038 28821590 28949040 29085420 29216066 29338598 29459748 29590188 
1581.413 29737804 29904106 30083966 30269762 30454038 30632276 30801554 
1584.789 30957198 31090118 31187904 31237354 31230982 31171740 31075524 
1588.164 30967232 30875616 30828446 30844808 30936206 31107308 31358146 
1591.539 31682860 32066818 32485216 32898728 33257436 33513236 33624672 
1594.914 33570652 33354708 33004322 32562744 32076486 31590238 31138028 
1598.290 30743722 30426282 30199604 30073882 30054492 30140574 30324724 
1601.665 30596544 30946416 31367298 31853582 32397636 32984444 33587332 
1605.040 34171596 34694156 35111932 35390256 35504004 35442884 35209584 
1608.415 34817884 34287036 33638848 32899372 32098606 31270542 30454358 
1611.791 29683662 28982404 28359484 27808594 27312490 26849764 26401720 
1615.166 25956954 25514648 25086936 24694364 24359654 24099764 23922154 
1618.541 23823508 23793650 23816192 23872094 23942356 24010496 24067998 
1621.916 24117942 24175354 24260978 24392738 24577518 24808892 25073034 
1625.292 25355848 25649812 25953614 26269244 26597362 26933096 27266690 
1628.667 27587338 27888930 28172842 28447032 28720938 28999478 29279578 
1632.042 29549044 29790286 29985400 30118662 30181988 30176588 30114328 
1635.417 30013200 29894026 29773572 29660602 29555748 29453720 29345228 
1638.792 29218300 29059982 28860398 28616096 28333098 28025896 27713014 
1642.168 27409920 27122628 26845922 26564638 26259034 25910386 25508954 
1645.543 25059766 24585022 24118572 23696222 23344798 23075032 22883276 
1648.918 22756544 22678480 22629292 22584442 22513734 22379192 22143006 
1652.293 21789982 21354260 20922210 20583340 20380042 20294312 20280598 
1655.669 20291604 20295250 20275842 20229704 20161636 20079664 19990314 
1659.044 19895468 19792946 19678138 19547660 19400972 19241378 19074676 
1662.419 18907900 18747348 18597782 18463064 18345428 18245654 18161832 
1665.794 18088352 18016058 17932934 17826592 17689146 17519624 17327030 
1669.170 17127076 16938410 16774038 16639128 16530659 16441178 16361794 
1672.545 16283251 16196745 16093509 15966406 15813604 15642442 15469322 
1675.920 15314152 15191465 15104660 15045417 14999008 14950033 14888719 
1679.295 14813459 14731221 14653247 14589678 14541915 14501075 14448594 
1682.671 14363136 14229110 14049263 13849068 13667771 13536009 13460847 
1686.046 13429200 13420075 13416179 13406680 13387646 13360070 13326620 
1689.421 13289619 13250674 13211699 13176040 13148410 13132974 13131026 
1692.796 13137891 13143355 13133486 13094384 13019810 12917191 12808759 
1696.172 12721918 12673369 12662589 12672823 12681250 12664568 12606850 
1699.547 12506885 12383044 12266224 12182933 12142112 12134377 12142895 
1702.922 12151516 12149232 12130527 12094377 12044230 11986049 11927705 
1706.297 11876351 11836818 11810703 11796880 11791262 11788471 11783636 
1709.673 11773558 11758069 11740026 11723414 11711738 11706121 11704998 
1713.048 11704420 11700948 11692472 11678993 11661872 11642302 11618819 
1716.423 11588702 11549330 11502308 11455121 11419911 11406883 11420694 
1719.798 11458386 11511630 11570462 11626001 11673887 11714120 11750613 
1723.174 11788777 11832970 11884524 11941941 12002160 12062080 12120543 
1726.549 12176800 12229825 12277472 12315444 12339646 12347384 12339782 
1729.924 12320727 12295333 12266191 12230643 12179150 12097750 11974264 
1733.299 11805425 11605820 11405013 11236225 11118729 11051359 11019241 
1736.675 11002962 10986650 10959941 10919710 10868711 10814629 10765954 
1740.050 10729204 10707469 10700337 10705703 10721019 10743367 10770097 
1743.425 10797916 10824243 10847649 10868711 10889232 10911283 10935578 
1746.800 10960213 10980636 10991612 10988758 10970441 10938262 10895688 
1750.176 10847071 10795742 10743673 10692424 10644000 10600742 10565297 
1753.551 10538579 10518822 10501747 10481448 10452496 10412345 10363375 
1756.926 10312137 10266707 10232036 10208120 10190073 10170841 10143029 
1760.301 10103381 10052649 9995854 9939371 9888454 9845169 9808668 9776710 
1764.159 9748075 9722525 9699993 9680646 9662691 9643413 9620377 9593040 
1768.016 9563773 9537354 9517676 9506567 9501047 9495731 9483945 9462034 
1771.874 9431795 9401219 9380159 9375690 9388860 9415136 9447879 9480829 
1775.731 9511546 9540843 9570818 9603337 9637552 9669838 9695419 9710666 
1779.588 9714936 9711242 9705449 9702940 9705821 9712835 9720120 9723712 
1783.446 9721408 9714529 9705956 9699756 9698096 9700908 9706465 9712970 
1787.303 9720018 9729268 9742212 9760037 9780674 9799483 9809888 9806024 
1791.161 9785148 9749633 9706498 9663842 9628744 9603743 9587857 9578169 
1795.018 9571902 9567533 9564145 9561029 9556457 9548125 9534103 9514289 
1798.875 9491192 9469281 9453840 9448963 9455059 9469755 9488042 9506229 
1802.733 9522079 9536067 9549784 9564687 9580574 9595885 9608283 9616955 
1806.590 9622172 9627016 9634164 9645683 9661233 9678106 9693014 9703008 
1810.448 9707888 9709141 9709073 9708938 9707989 9703449 9693522 9677970 
1814.305 9660556 9648291 9649714 9672279 9719747 9790502 9878590 9976426 
1818.163 10076013 10171588 10259616 10338129 10406135 10462984 10508638 
1821.538 10544485 10572392 10594970 10614051 10630418 10643423 10652184 
1824.913 10657039 10660163 10665766 10678161 10699997 10730596 10766191 
1828.288 10800872 10830119 10851589 10867727 10883627 10905337 10936155 
1831.664 10975504 11019547 11064206 11106967 11147997 11189984 11236905 
1835.039 11291890 11356032 11428348 11506901 11590505 11679367 11774682 
1838.414 11877646 11987751 12102315 12218306 12332760 12444823 12556711 
1841.789 12672550 12796747 12932414 13080007 13236498 13397931 13560485 
1845.165 13722072 13881668 14037729 14186418 14321459 14434755 14519268 
1848.540 14570832 14589439 14578851 14544895 14492785 14425335 14343034 
1851.915 14245270 14132228 14006211 13871405 13732571 13593679 13456335 
1855.290 13320060 13183895 13047603 12912685 12782244 12659280 12545081 
1858.666 12439299 12339816 12244412 12152026 12063545 11980905 11905706 
1862.041 11838044 11776282 11717695 11660886 11606398 11557089 11516836 
1865.416 11488971 11473832 11468966 11469510 11470838 11470634 11469374 
1868.791 11469851 11475192 11486658 11503329 11522348 11541062 11558246 
1872.167 11573967 11589042 11603063 11613850 11618343 11612898 11596052 
1875.542 11569475 11537047 11503941 11473832 11447602 11422564 11394876 
1878.917 11361100 11320559 11275806 11231295 11191480 11158944 11133039 
1882.292 11111556 11091671 11071616 11051291 11031578 11012784 10994297 
1885.667 10974179 10951208 10925383 10899832 10879210 10868542 10870003 
1889.043 10882097 10899493 10916039 10926675 10930820 10931432 10933640 
1892.418 10941626 10957460 10979719 11005274 11031545 11057069 11082595 
1895.793 11108972 11136100 11161732 11182538 11195322 11199946 11199844 
1899.168 11201170 11210112 11230479 11261762 11299373 11337190 11370555 
1902.544 11398652 11423959 11450663 11481622 11516598 11552359 11583700 
1905.919 11606976 11621781 11631004 11639239 11650062 11664527 11680831 
1909.294 11695399 11706156 11712929 11717797 11723244 11730426 11737098 
1912.669 11739277 11732741 11716436 11692914 11668816 11651015 11645094 
1916.045 11651424 11666570 11683758 11696999 11702820 11701968 11696489 
1919.420 11688592 11678550 11665106 11646182 11622563 11597074 11575771 
1922.795 11564610 11566651 11580194 11600613 11621985 11641282 11658980 
1926.170 11679299 11706938 11744008 11788164 11833005 11871277 11898622 
1929.546 11915003 11925832 11938059 11958187 11987922 12025119 12064533 
1932.921 12101804 12134922 12164873 12194451 12225498 12257192 12286027 
1936.296 12307978 12320830 12325636 12327272 12331499 12343157 12363543 
1939.671 12391294 12423001 12456348 12490687 12527483 12568478 12613297 
1943.047 12659553 12703835 12743413 12779480 12816438 12860088 12915518 
1946.422 12983382 13060373 13140077 13216310 13286852 13353202 13419358 
1949.797 13488121 13558775 13625748 13680764 13716772 13731238 13727681 
1953.172 13713831 13697075 13683260 13672797 13664146 13656008 13650605 
1956.548 13654948 13679327 13732879 13817392 13927992 14051863 14175326 
1959.923 14286530 14380329 14456815 14518172 14566344 14600609 14620074 
1963.298 14626139 14624974 14628572 14648791 14695300 14769373 14862659 
1966.673 14960424 15047337 15113820 15159177 15190813 15218711 15251311 
1970.049 15292118 15339038 15387748 15434713 15479417 15523404 15569525 
1973.424 15620253 15678579 15750071 15845871 15982013 16175112 16433813 
1976.799 16750585 17098160 17432146 17702088 17869574 17914668 17841956 
1980.174 17674788 17448392 17197566 16949058 16719595 16516272 16339604 
1983.550 16187804 16057819 15946882 15849685 15759932 15671674 15582816 
1986.925 15495143 15416551 15356304 15321841 15313364 15324312 15342574 
1990.300 15355480 15353523 15335571 15306568 15275164 15249183 15233192 
1993.675 15226671 15226431 15229314 15232643 15235594 15237481 15235834 
1997.051 15227633 15209033 15178460 15137767 15092207 15047612 15008681 
2000.426 14975206 14943792 14908401 14865642 14817196 14772424 14745994 
2003.801 14752850 14804614 14905144 15050184 15228285 15424310 15622451 
2007.176 15808312 15969088 16096329 16185774 16239153 16263198 16270181 
2010.552 16271660 16277438 16291440 16312012 16333375 16350372 16362000 
2013.927 16373252 16393278 16431713 16492901 16574476 16666843 16756888 
2017.302 16833518 16891974 16933312 16963596 16989782 17017314 17048360 
2020.677 17082994 17120770 17162132 17207288 17254898 17300790 17338650 
2024.052 17360514 17363066 17348342 17325616 17307754 17308238 17334238 
2027.428 17385620 17454290 17528974 17600358 17663642 17719138 17771638 
2030.803 17826212 17885630 17950822 18021514 18097610 18179762 18267634 
2034.178 18359082 18447160 18522292 18573574 18593978 18581734 18542590 
2037.553 18485884 18421786 18357112 18294416 18232178 18167600 18099752 
2040.929 18031220 17966258 17909972 17865260 17830942 17802256 17774122 
2044.304 17743644 17711476 17682416 17665196 17669442 17702778 17768944 
2047.679 17865122 17980520 18095986 18185324 18221606 18181454 18054534 
2051.054 17847478 17585556 17306892 17051980 16857354 16742252 16704924 
2054.430 16724760 16770629 16812750 16830934 16820050 16787574 16746867 
2057.805 16709298 16679754 16656859 16634893 16609589 16580742 16552446 
2061.180 16529556 16515549 16508767 16503399 16492557 16472012 16442141 
2064.555 16407695 16374318 16346553 16324671 16304890 16282083 16252981 
2067.931 16217416 16179102 16142579 16111080 16084637 16060535 16035438 
2071.306 16007280 15977167 15948601 15924782 15907286 15893847 15879516 
2074.681 15860235 15833877 15802333 15770892 15745021 15728289 15720455 
2078.056 15718291 15717089 15714271 15709257 15704034 15700599 15699362 
2081.432 15697300 15690053 15673082 15644984 15608437 15569112 15533156 
2084.807 15504620 15483160 15464962 15443983 15415418 15377037 15329873 
2088.182 15276639 15219672 15159486 15095294 15025933 14951713 14876409 
2091.557 14806740 14750862 14716584 14708838 14728924 14775132 14843356 
2094.933 14927948 15022572 15119583 15210612 15288652 15347825 15387337 
2098.308 15410063 15423143 15434438 15449888 15471417 15496894 15521996 
2101.683 15543012 15559324 15573989 15592981 15621318 15661335 15710939 
2105.058 15764501 15816042 15861096 15899038 15932137 15964206 15997965 
2108.434 16034130 16071126 16107194 16141204 16173875 16206959 16241768 
2111.809 16277405 16310807 16336473 16349820 16348032 16331552 16303411 
2115.184 16268427 16230967 16193924 16158914 16127380 16100764 16081922 
2118.559 16072981 16075458 16088007 16107092 16128309 16147772 16164141 
2121.935 16179206 16196160 16218344 16246790 16280260 16314935 16347447 
2125.310 16375626 16399609 16421149 16442450 16463408 16482679 16496344 
2128.685 16501438 16496619 16483540 16466470 16451983 16447233 16459279 
2132.060 16495243 16562428 16666533 16811200 16994468 17208150 17436422 
2135.436 17659812 17860806 18026418 18153608 18247658 18318952 18378508 
2138.811 18433264 18485330 18532976 18573920 18607674 18636242 18664120 
2142.186 18694662 18728978 18764542 18797548 18825818 18849902 18873814 
2145.561 18901984 18937424 18978508 19019356 19051758 19068862 19068134 
2148.937 19050928 19021294 18982350 18934932 18875648 18800904 18708706 
2152.312 18601034 18482944 18362434 18245620 18137958 18045242 17979070 
2155.687 17961424 18027042 18215350 18561852 19079698 19747656 20503894 
2159.062 21262840 21935318 22449284 22768732 22895116 22859316 22707282 
2162.438 22488748 22247342 22012554 21801548 21619686 21464324 21326384 
2165.813 21194228 21056510 20904894 20735296 20550336 20356430 20160942 
2169.188 19970192 19786010 19606066 19426092 19242384 19056154 18873606 
2172.563 18706978 18568662 18469358 18413420 18398106 18413316 18443704 
2175.938 18473300 18485952 18469702 18418296 18333090 18223332 18103826 
2179.314 17993608 17911044 17867468 17865812 17899890 17955794 18016990 
2182.689 18070146 18107972 18127938 18132708 18123828 18101996 18065380 
2186.064 18012328 17943604 17862876 17777918 17696876 17626720 17570512 
2189.439 17527488 17494374 17467468 17444598 17425386 17410350 17399416 
2192.815 17391104 17382826 17371928 17357618 17340858 17324238 17309100 
2196.190 17295274 17279412 17257760 17227144 17189294 17148308 17112256 
2199.565 17087614 17077862 17080136 17087270 17089578 17078584 17050498 
2202.940 17006184 16950574 16889768 16829660 16774107 16725138 16684024 
2206.316 16651936 16630039 16618334 16615098 16617060 16619848 16620331 
2209.691 16617887 16613686 16610863 16611759 16615959 16620675 16621191 
2213.066 16613171 16595751 16570965 16544186 16520884 16505327 16498374 
2216.441 16498614 16502434 16507633 16512932 16518060 16522536 16524842 
2219.817 16521158 16508767 16485915 16453944 16417604 16382851 16355017 
2223.192 16335681 16322676 16310979 16295603 16274069 16247408 16219135 
2226.567 16193582 16172945 16156403 16140791 16122118 16099080 16073188 
2229.942 16048880 16031003 16023129 16025329 16034544 16046576 16056892 
2233.318 16064111 16068099 16070301 16072053 16073842 16074700 16074253 
2236.693 16073154 16073223 16077040 16086357 16100386 16116273 16129270 
2240.068 16135255 16131952 16120227 16102759 16083675 16065521 16049877 
2243.443 16036950 16027186 16021170 16021512 16030142 16047677 16071882 
2246.819 16098391 16121292 16135393 16138660 16132159 16119162 16103446 
2250.194 16087044 16070988 16053969 16036263 16019829 16009275 16009996 
2253.569 16026121 16057957 16100731 16146293 16184982 16208129 16211638 
2256.944 16194612 16159464 16109636 16048674 15979400 15904846 15828378 
2260.320 15754675 15688300 15633579 15592741 15565712 15550533 15545244 
2263.695 15548576 15560870 15582816 15614825 15654568 15697919 15738973 
2267.070 15771819 15793158 15802573 15802676 15796628 15787385 15776046 
2270.445 15762027 15744025 15721830 15696544 15671125 15649552 15634542 
2273.821 15627466 15627259 15632447 15640587 15650617 15662262 15675830 
2277.196 15691290 15707951 15724750 15739970 15752923 15763368 15772233 
2280.571 15780272 15788073 15795220 15801163 15804702 15805768 15804153 
2283.946 15800031 15793433 15783057 15767835 15745604 15715750 15678579 
2287.322 15635641 15589547 15542222 15495452 15449408 15404158 15358809 
2290.697 15313810 15270153 15229314 15192940 15162059 15136875 15116908 
2294.072 15101641 15090355 15082842 15078553 15076427 15074814 15071555 
2297.447 15064523 15052757 15036326 15016501 14995064 14973388 14952056 
2300.823 14930554 14908230 14884639 14860259 14836533 14815105 14797175 
2304.198 14782708 14770607 14758952 14745891 14730809 14714082 14696979 
2307.573 14681145 14667778 14657291 14649752 14644679 14642383 14643068 
2310.948 14647557 14655885 14668258 14683440 14699961 14716550 14732009 
2314.323 14745789 14757409 14766664 14773521 14777703 14779280 14779520 
2317.699 14779451 14781679 14788776 14803997 14829710 14868283 14920095 
2321.074 14982511 15049155 15108811 15145522 15142022 15083631 14961316 
2324.449 14775989 14539139 14271361 13996835 13739377 13517858 13341757 
2327.824 13211528 13120440 13058701 13015918 12984953 12962250 12946513 
2331.200 12937432 12934224 12935351 12939207 12945114 12953375 12965050 
2334.575 12980992 13001135 13023702 13046101 13066213 13083115 13097526 
2337.950 13111561 13127338 13145610 13166067 13187652 13208967 13230588 
2341.325 13254022 13281522 13314901 13353989 13396667 13439897 13481012 
2344.701 13519533 13557545 13598944 13648177 13707574 13776998 13852728 
2348.076 13930044 14002995 14066408 14116722 14152116 14172279 14178680 
2351.451 14173990 14161769 14145852 14129729 14116072 14106180 14100156 
2354.826 14097109 14096801 14099095 14105221 14116825 14135514 14161804 
2358.202 14194599 14231130 14268279 14302761 14332622 14357314 14377418 
2361.577 14394611 14409922 14425062 14441332 14460549 14484289 14514643 
2364.952 14552570 14598279 14650539 14707809 14768070 14830601 14894650 
2368.327 14960561 15027888 15095397 15161236 15223103 15279145 15329187 
2371.703 15374703 15418096 15462627 15510492 15563068 15621077 15684865 
2375.078 15754949 15832298 15917907 16012575 16115481 16225051 16338984 
2378.453 16455045 16571825 16689327 16808340 16929764 17054254 17181502 
2381.828 17309926 17437734 17562992 17684038 17799390 17907900 18007872 
2385.204 18097610 18175686 18241714 18296524 18342112 18381412 18417222 
2388.579 18451102 18483290 18512714 18537886 18557668 18571396 18579834 
2391.954 18583636 18583914 18581528 18576962 18570946 18564618 18559604 
2395.329 18557978 18560882 18568836 18581390 18597160 18614970 18634650 
2398.705 18657062 18684146 18718116 18760358 18811390 18870734 18937112 
2402.080 19009594 19088110 19173188 19266490 19369130 19482298 19606342 
2405.455 19740688 19884472 20036392 20194438 20356222 20519454 20681742 
2408.830 20841518 20998464 21153382 21308042 21464464 21623482 21784720 
2412.206 21946644 22106362 22261642 22410278 22551074 22683156 22805572 
2415.581 22916878 23015006 23098268 23165784 23218248 23257536 23286622 
2418.956 23308612 23325674 23339204 23349694 23357140 23362106 23365322 
2422.331 23368260 23372210 23378540 23388296 23402772 23423370 23452150 
2425.707 23490692 23540430 23601928 23674806 23758022 23851440 23955380 
2429.082 24072200 24204570 24354924 24524332 24711166 24912396 25123586 
2432.457 25340532 25561172 25785266 26014364 26250306 26494794 26748228 
2435.832 27009956 27278756 27553410 27833498 28118964 28410418 28708336 
2439.208 29013258 29325802 29646518 29976560 30316802 30667158 31026694 
2442.583 31393834 31765558 32139384 32513712 32888290 33263586 33640784 
2445.958 34020348 34402152 34784856 35167080 35547264 35925192 36300312 
2449.333 36672800 37041964 37406352 37764104 38113324 38452508 38781272 
2452.708 39099912 39408592 39707216 39994568 40268404 40525968 40764616 
2456.084 40981728 41175672 41344880 41487800 41603452 41690540 41748428 
2459.459 41777096 41776660 41747404 41689520 41602616 41485940 41339600 
2462.834 41164124 40962140 40737396 40495888 40243648 39987336 39733900 
2466.209 39489508 39259864 39051008 38867320 38712912 38590496 38500984 
2469.585 38444616 38420904 38429592 38470680 38544180 38649708 38785364 
2472.960 38947956 39132288 39332592 39543252 39760264 39980144 40201480 
2476.335 40422244 40640020 40851572 41052412 41238044 41404728 41549744 
2479.710 41671612 41769656 41843788 41893628 41919756 41922824 41904248 
2483.086 41866300 41811720 41743356 41663876 41575560 41480216 41379504 
2486.461 41275388 41168788 41060280 40949284 40833992 40712212 40581152 
2489.836 40439152 40285452 40120472 39944580 39758484 39561620 39352904 
2493.211 39130948 38894392 38643404 38378520 38101096 37812324 37512360 
2496.587 37200836 36876984 36540468 36192256 35834464 35470532 35104028 
2499.962 34737836 34373924 34012504 33653348 33296284 32941476 32589782 
2503.337 32243080 31903218 31571708 31250100 30939264 30640134 30353398 
2506.712 30079492 29818676 29570430 29333954 29108272 28892870 28687416 
2510.088 28492282 28308094 28134800 27972002 27818556 27673390 27535758 
2513.463 27406038 27285072 27174442 27075088 26987038 26909266 26840528 
2516.838 26779944 26727860 26685790 26655632 26639250 26636606 26646400 
2520.213 26665670 26691462 26721096 26754148 26790870 26832422 26879794 
2523.589 26932954 26990810 27051776 27114374 27177192 27239348 27299928 
2526.964 27357338 27409602 27454214 27488666 27511716 27522800 27521882 
2530.339 27509776 27486300 27451074 27403674 27344280 27274242 27196664 
2533.714 27115610 27035134 26958374 26886952 26820404 26757884 26698264 
2537.090 26641292 26587428 26537868 26493456 26454646 26420488 26390208 
2540.465 26362286 26336412 26312506 26290716 26271144 26253474 26236650 
2543.840 26219966 26202790 26185158 26167598 26150776 26134658 26118930 
2547.215 26102146 26082970 26061154 26036422 26009968 25983302 25957414 
2550.591 25933036 25910070 25888090 25866812 25846240 25827074 25809810 
2553.966 25794934 25782314 25771766 25762658 25754748 25747998 25742828 
2557.341 25738786 25734812 25728940 25718606 25701380 25675718 25641518 
2560.716 25599796 25552528 25501928 25449292 25395296 25340076 25283142 
2564.092 25224214 25164102 25103082 25042530 24983774 24928538 24878324 
2567.467 24834994 24800122 24774864 24759992 24754764 24757886 24767358 
2570.842 24780968 24797000 24814540 24832784 24851800 24871974 24893588 
2574.217 24917168 24943488 24973458 25007922 25047268 25090866 25136786 
2577.593 25183202 25227446 25267620 25303864 25337162 25369932 25404816 
2580.968 25444374 25490120 25542584 25601658 25666544 25736290 25810302 
2584.343 25887596 25967086 26047820 26128958 26209548 26289836 26369962 
2587.718 26450350 26531810 26614588 26699354 26786252 26875600 26967470 
2591.094 27061404 27156380 27250428 27341388 27426968 27506140 27579146 
2594.469 27647576 27714074 27781252 27850738 27922884 27996740 28070960 
2597.844 28143852 28215092 28285036 28354814 28426054 28499818 28577098 
2601.219 28658426 28744194 28834866 28930906 29032564 29139346 29250586 
2604.594 29365046 29481556 29599660 29719708 29842526 29969424 30101190 
2607.970 30238536 30381008 30528146 30679142 30833640 30991074 31150274 
2611.345 31309816 31467352 31620170 31765948 31903218 32031470 32151620 
2614.720 32265030 32373146 32476898 32576780 32672614 32764398 32851980 
2618.095 32935542 33015046 33090596 33161614 33227674 33288590 33344262 
2621.471 33395570 33443626 33489686 33534962 33579636 33624312 33668636 
2624.846 33713256 33758732 33806364 33856976 33910820 33967140 34025044 
2628.221 34082848 34139296 34193928 34247060 34299732 34353160 34408392 
2631.596 34466136 34526440 34588904 34653140 34718128 34783352 34847648 
2634.972 34910156 34970020 35026584 35079748 35130000 35178220 35225288 
2638.347 35272580 35321136 35371920 35425808 35483616 35545788 35612324 
2641.722 35682496 35754804 35827664 35899636 35970004 36039080 36108136 
2645.097 36179040 36253484 36332480 36416356 36504424 36595868 36690104 
2648.473 36787032 36886612 36989536 37096020 37205708 37317916 37431740 
2651.848 37546172 37660708 37775380 37890264 38005796 38122368 38240092 
2655.223 38359156 38480128 38603276 38728848 38857216 38988260 39121484 
2658.598 39256236 39392012 39528264 39664704 39801188 39937716 40073884 
2661.974 40209660 40344496 40478720 40612692 40747476 40884044 41023204 
2665.349 41165800 41311536 41460024 41610600 41762324 41915084 42068376 
2668.724 42222344 42377128 42533140 42690524 42849468 43010256 43172900 
2672.099 43337508 43503792 43671492 43840176 44009732 44180416 44352492 
2675.475 44526504 44702496 44879884 45058004 45235944 45412888 45589056 
2678.850 45765076 45942788 46124220 46311256 46505232 46706896 46916776 
2682.225 47134696 47360892 47595712 47839312 48091936 48353220 48622748 
2685.600 48900076 49184924 49477096 49777116 50085152 50401412 50725344 
2688.976 51056676 51394376 51738316 52088240 52444164 52806444 53174980 
2692.351 53549412 53928976 54313144 54701456 55094436 55492932 55897820 
2695.726 56310180 56730444 57158224 57592896 58033376 58478780 58928244 
2699.101 59381480 59837928 60297140 60758780 61222516 61687472 62153464 
2702.477 62619112 63083684 63545428 64002664 64453544 64896696 65330944 
2705.852 65755172 66168712 66570008 66957608 67329032 67682184 68015320 
2709.227 68327624 68619256 68890904 69144072 69379896 69599312 69803008 
2712.602 69991536 70164920 70323640 70467384 70595888 70707664 70801256 
2715.978 70874312 70924792 70951008 70952024 70928064 70880088 70809912 
2719.353 70720144 70614096 70496024 70369928 70241216 70114840 69995616 
2722.728 69888032 69795184 69720088 69664584 69629848 69616856 69626104 
2726.103 69658088 69713208 69791328 69892632 70016648 70163048 70330696 
2729.479 70518168 70723568 70944688 71179032 71424704 71679944 71943376 
2732.854 72213832 72490080 72770232 73052440 73334496 73613888 73888840 
2736.229 74158104 74420968 74677024 74925832 75167288 75400888 75626688 
2739.604 75844664 76055888 76261728 76463872 76664400 76865384 77068872 
2742.979 77276808 77491192 77713600 77945480 78187832 78440920 78704448 
2746.355 78977544 79258888 79546752 79838936 80132320 80423344 80707264 
2749.730 80979352 81234640 81468720 81678944 81863856 82023552 82159408 
2753.105 82273320 82367552 82443944 82503840 82548120 82576488 82588152 
2756.480 82580856 82552368 82499672 82420672 82313128 82175616 82007584 
2759.856 81808448 81577896 81315656 81021648 80696576 80342128 79961168 
2763.231 79557528 79135672 78700472 78256704 77808872 77361504 76919176 
2766.606 76486232 76067336 75666720 75287864 74934096 74607416 74309016 
2769.981 74039976 73800512 73590736 73410128 73257920 73132704 73032960 
2773.357 72956560 72900952 72863648 72841536 72830800 72827320 72826416 
2776.732 72822856 72811960 72789272 72750840 72693408 72614288 72510832 
2780.107 72381600 72225648 72043656 71837968 71612728 71373424 71126024 
2783.482 70876416 70629528 70388552 70155408 69930224 69712240 69499368 
2786.858 69288936 69077448 68861392 68637072 68402352 68155704 67897576 
2790.233 67629184 67353368 67072740 66789596 66506556 66224784 65946200 
2793.608 65672724 65406776 65151392 64909892 64685488 64480908 64298564 
2796.983 64139992 64006508 63898900 63817412 63761956 63731528 63724808 
2800.359 63739776 63774348 63826584 63894712 63977556 64073436 64180812 
2803.734 64297720 64421796 64550260 64680868 64811520 64941212 65069056 
2807.109 65194556 65317116 65435940 65549052 65653876 65747424 65826072 
2810.484 65885916 65924176 65937712 65925100 65885684 65819940 65729120 
2813.860 65615184 65480396 65327860 65160556 64982616 64798788 64614424 
2817.235 64436176 64270324 64123512 64002432 63912332 63858480 63845084 
2820.610 63875140 63950180 64070404 64233556 64435788 64671680 64934596 
2823.985 65217264 65513148 65815972 66120288 66421108 66713864 66993640 
2827.361 67256072 67497024 67712856 67901640 68062408 68195864 68303808 
2830.736 68388896 68454336 68503400 68539520 68566376 68587208 68606448 
2834.111 68628224 68656904 68697304 68753664 68829752 68928728 69053288 
2837.486 69206320 69390664 69610632 69871880 70182128 70549928 70985736 
2840.862 71500992 72107064 72816584 73643688 74603136 75712352 76991136 
2844.237 78458944 80135424 82034800 84161936 86505688 89033760 91690176 
2847.612 94386624 97012328 99439568 101525960 103143688 104186896 104584928 
2850.987 104315888 103404224 101919424 99956832 97634600 95078504 92402240 
2854.363 89713048 87100032 84628256 82345688 80279624 78438656 76817416 
2857.738 75399512 74162312 73078792 72122552 71269560 70497664 69789304 
2861.113 69129664 68506656 67911168 67336656 66778316 66234240 65704332 
2864.488 65190584 64696984 64229564 63795804 63403772 63061848 62777556 
2867.864 62555924 62399860 62309092 62280528 62307528 62381996 62493556 
2871.239 62629676 62777244 62923224 63054956 63163088 63241692 63289412 
2874.614 63308956 63306428 63290136 63267252 63244864 63227540 63218460 
2877.989 63219876 63233444 63260928 63303820 63363432 63439964 63533424 
2881.365 63642860 63767328 63905916 64057880 64222536 64398624 64584628 
2884.740 64777940 64976112 65176800 65378508 65581000 65785280 65992824 
2888.115 66206104 66427052 66657500 66899544 67155224 67427592 67721104 
2891.490 68040976 68394752 68791592 69241176 69755576 70346976 71026552 
2894.865 71804304 72686288 73672544 74754480 75913720 77120360 78331296 
2898.241 79497408 80563648 81475480 82190360 82680088 82937296 82976360 
2901.616 82831584 82551960 82190320 81802848 81439104 81138376 80932848 
2904.991 80845032 80890256 81079864 81421160 81919624 82580168 83407592 
2908.366 84407592 85587400 86954408 88515648 90274184 92227664 94363688 
2911.742 96658560 99078616 101575824 104091136 106560416 108911032 111070712 
2915.117 112975752 114570944 115819944 116707008 117237400 117434448 
2918.010 117332728 116974384 116398600 115637600 114714272 113640200 
2920.903 112417872 111044056 109514904 107830680 105999920 104041160 
2923.796 101984576 99870120 97740400 95640928 93613544 91690256 89896032 
2927.171 88244320 86738904 85375440 84143200 83028184 82013752 81084096 
2930.547 80225216 79425432 78676328 77972672 77310976 76689584 76106816 
2933.922 75561192 75050704 74572792 74124344 73701984 73301224 72917056 
2937.297 72543728 72174936 71804856 71429672 71047656 70660680 70273384 
2940.672 69893328 69529080 69189064 68880536 68608432 68374232 68175944 
2944.048 68007608 67859568 67718816 67571496 67403672 67204624 66969244 
2947.423 66699184 66403536 66096440 65796620 65523164 65291888 65114824 
2950.798 64997824 64940640 64937516 64979040 65053240 65146504 65245680 
2954.173 65339028 65415792 65468572 65492072 65483676 65442800 65370880 
2957.549 65270752 65146044 65001512 64842068 64672524 64497404 64320772 
2960.924 64145400 63973792 63808276 63650684 63503280 63368224 63247360 
2964.299 63141972 63052812 62979528 62921456 62877528 62846512 62827408 
2967.674 62818908 62819936 62829240 62846208 62870672 62903492 62946468 
2971.050 63002088 63072884 63160480 63265220 63385940 63520072 63663460 
2974.425 63810812 63956060 64091332 64207396 64294644 64342484 64341480 
2977.800 64285384 64171136 64000360 63778460 63515164 63221068 62908440 
2981.175 62589600 62275060 61974232 61694652 61440256 61211988 61006716 
2984.551 60818200 60636924 60452792 60256676 60041544 59804388 59545472 
2987.926 59268288 58977428 58676752 58367868 58049016 57715448 57359944 
2991.301 56975452 56556720 56102876 55617720 55110120 54592632 54077860 
2994.676 53576928 53096944 52639704 52202372 51778964 51362600 50947160 
2998.052 50529176 50107576 49683676 49259740 48838520 48422076 48011880 
3001.427 47608764 47213668 46826680 46448736 46080116 45721228 45372644 
3004.802 45035072 44709292 44396640 44098292 43815068 43546644 43292148 
3008.177 43049440 42816044 42589860 42369276 42153364 41941832 41734748 
3011.552 41531876 41332780 41137168 40944480 40754756 40568564 40386564 
3014.928 40209772 40038856 39874292 39716548 39565576 39421436 39284384 
3018.303 39153900 39029440 38909756 38793480 38679476 38567284 38457068 
3021.678 38349672 38246172 38147688 38054688 37967464 37886036 37811308 
3025.053 37744656 37688820 37646652 37620672 37612252 37620564 37642384 
3028.429 37672164 37703352 37728284 37739744 37731828 37700024 37642208 
3031.804 37558348 37450524 37322720 37179288 37025404 36865872 36704168 
3035.179 36543280 36384936 36230324 36080016 35934368 35793228 35656704 
3038.554 35524612 35397192 35274592 35157556 35046484 34941792 34843156 
3041.930 34749968 34661032 34575196 34491608 34410508 34332216 34258140 
3045.305 34188876 34124784 34065504 34010064 33957716 33908060 33861420 
3048.680 33818796 33780936 33748240 33720020 33694708 33670180 33644580 
3052.055 33617012 33587372 33556616 33526230 33497598 33471506 33448278 
3055.431 33427846 33409738 33393636 33379004 33365618 33353418 33342436 
3058.806 33333312 33326942 33324510 33327338 33336352 33351630 33372774 
3062.181 33399254 33430350 33465852 33506580 33553254 33606452 33666024 
3065.556 33730516 33797160 33863140 33925364 33981720 34031028 34073244 
3068.932 34108224 34136468 34158012 34173064 34181600 34184572 34183176 
3072.307 34178908 34173636 34168656 34164892 34163100 34163492 34166364 
3075.682 34172240 34180952 34192348 34205688 34219596 34232576 34243580 
3079.057 34251828 34257100 34260108 34261328 34261652 34261508 34261724 
3082.433 34262296 34263840 34266744 34271260 34277500 34285424 34294924 
3085.808 34306580 34321100 34339856 34364312 34395440 34433100 34476000 
3089.183 34522172 34568848 34614092 34656724 34696884 34735360 34773728 
3092.558 34813432 34855472 34900464 34949044 35001588 35058340 35119980 
3095.934 35186340 35256696 35329720 35404092 35477972 35550392 35620808 
3099.309 35689652 35757576 35825324 35893664 35963092 36033716 36105688 
3102.684 36178788 36252836 36327868 36403492 36479560 36556324 36633828 
3106.059 36712172 36791540 36871500 36951476 37030780 37108472 37184300 
3109.435 37258740 37332540 37406964 37483392 37562756 37645240 37730924 
3112.810 37819480 37910584 38003808 38098492 38193384 38287244 38377940 
3116.185 38464276 38545264 38621492 38694436 38766164 38838732 38913236 
3119.560 38989744 39067428 39144908 39221132 39295952 39369484 39442772 
3122.936 39516472 39591088 39666372 39741924 39817164 39892276 39967648 
3126.311 40044088 40122468 40203336 40286472 40371624 40458280 40545796 
3129.686 40633688 40721888 40809968 40897696 40984680 41071096 41157024 
3133.061 41243216 41330668 41420108 41511752 41605456 41700864 41797092 
3136.437 41893812 41990520 42087652 42184912 42282416 42379576 42475992 
3139.812 42571184 42665044 42757796 42850120 42942472 43035096 43127560 
3143.187 43219456 43310088 43399676 43488668 43578660 43671348 43768156 
3146.562 43869940 43976876 44088096 44202832 44319792 44438184 44557308 
3149.938 44676824 44795936 44914276 45030808 45144980 45256056 45364256 
3153.313 45469800 45573452 45676320 45779252 45883456 45989344 46097432 
3156.688 46207280 46318296 46429120 46539200 46647756 46755012 46861924 
3160.063 46969936 47080520 47194752 47312640 47433696 47556268 47678796 
3163.438 47800212 47919372 48036676 48152420 48267268 48382184 48497392 
3166.814 48612704 48727784 48841744 48953884 49063568 49170640 49275292 
3170.189 49378336 49480588 49582900 49685496 49788116 49889536 49988412 
3173.564 50083480 50173996 50259880 50341952 50421208 50498764 50575184 
3176.939 50650796 50725868 50800612 50875892 50952752 51032192 51114852 
3180.315 51200592 51287984 51375692 51461892 51545864 51627504 51707932 
3183.690 51788332 51869944 51953512 52039152 52126268 52214520 52303088 
3187.065 52391896 52480428 52568492 52655524 52740964 52824328 52905500 
3190.440 52984776 53063356 53142400 53223444 53307608 53396324 53489936 
3193.816 53588472 53691080 53796080 53900616 54001796 54096624 54183172 
3197.191 54261068 54331732 54397936 54462952 54530004 54600784 54675864 
3200.566 54754632 54836208 54919556 55004168 55089468 55174752 55259224 
3203.941 55341676 55421136 55497220 55570876 55643560 55717196 55793108 
3207.317 55871140 55950280 56028420 56103860 56175800 56244740 56312820 
3210.692 56382008 56453772 56528300 56604468 56680608 56755252 56827684 
3214.067 56898540 56969292 57041112 57114724 57189712 57265084 57339072 
3217.442 57411184 57481152 57549996 57618808 57689036 57761472 57836264 
3220.818 57912888 57990776 58069468 58148252 58226864 58304920 58381928 
3224.193 58458040 58533448 58608488 58684032 58760500 58837820 58915872 
3227.568 58993524 59070008 59144836 59218084 59290504 59363172 59436836 
3230.943 59511840 59587768 59663752 59738800 59811916 59882956 59952144 
3234.319 60020200 60088076 60156916 60227896 60301440 60378120 60457708 
3237.694 60539556 60622636 60705812 60787976 60868780 60948152 61026776 
3241.069 61105296 61184180 61263112 61341372 61418040 61492324 61563752 
3244.444 61633132 61701640 61771080 61842252 61916528 61993876 62074292 
3247.820 62157668 62243624 62331928 62422164 62513532 62605216 62695816 
3251.195 62784484 62870564 62953860 63035144 63114764 63193552 63271544 
3254.570 63349284 63426852 63504124 63581640 63658856 63735596 63810616 
3257.945 63882888 63951180 64014876 64074436 64131232 64187348 64244776 
3261.321 64305016 64368652 64435132 64503284 64571672 64639384 64705944 
3264.696 64771248 64836024 64900732 64966068 65032028 65099000 65166988 
3268.071 65235904 65305368 65375000 65443992 65511568 65577112 65639884 
3271.446 65699896 65757760 65813892 65869800 65926528 65985732 66048296 
3274.822 66114732 66185036 66258392 66333472 66409132 66484584 66559620 
3278.197 66635168 66712940 66794740 66881888 66974776 67073056 67175768 
3281.572 67281488 67389160 67498568 67609824 67723464 67839928 67959640 
3284.947 68083064 68210560 68342784 68480672 68624808 68775400 68931640 
3288.323 69091896 69254624 69417992 69581152 69744792 69910568 70080536 
3291.698 70256560 70440376 70632568 70833232 71042160 71259368 71484432 
3295.073 71716984 71956368 72201544 72451088 72703984 72959856 73219136 
3298.448 73482768 73752328 74028896 74313224 74605256 74904808 75211304 
3301.823 75524992 75846048 76174808 76511600 76856408 77208728 77568192 
3305.199 77934296 78306776 78685464 79069752 79459128 79852480 80249168 
3308.574 80648816 81052624 81462248 81880016 82308320 82748032 83199072 
3311.949 83660328 84129480 84604416 85083656 85566616 86053104 86543616 
3315.324 87038568 87538504 88043600 88554520 89071424 89594640 90124024 
3318.700 90659208 91199056 91742560 92288552 92836496 93385592 93935384 
3322.075 94485128 95033384 95579032 96121232 96660000 97196304 97732016 
3325.450 98268728 98807144 99346304 99883848 100416120 100939192 101449536 
3328.825 101944848 102423576 102884520 103327632 103752304 104159016 
3331.719 104548040 104920368 105276072 105614792 105934496 106231872 
3334.612 106503120 106744880 106955272 107134696 107285640 107410792 
3337.505 107512808 107592608 107649360 107680736 107684088 107657216 
3340.398 107598504 107507336 107383256 107226216 107035776 106811520 
3343.291 106553176 106260776 105934576 105574528 105179816 104748944 
3346.184 104280664 103774304 103230464 102651704 102042120 101405760 
3349.077 100746856 100068168 99371464 98657784 97928208 97184368 96428432 
3352.452 95662984 94890184 94111760 93328784 92542000 91752792 90963224 
3355.827 90176144 89394968 88622824 87862160 87114576 86380792 85661128 
3359.203 84956072 84266240 83592080 82934528 82293432 81668504 81058576 
3362.578 80462944 79880360 79310272 78752384 78206872 77673696 77153792 
3365.953 76647960 76157752 75684936 75231160 74797416 74383488 73987712 
3369.328 73607568 73239024 72878576 72523208 72170832 71820376 71471344 
3372.704 71123840 70777976 70433128 70088552 69743008 69394744 69042096 
3376.079 68683912 68318776 67946464 67567352 67182032 66791564 66396624 
3379.454 65997220 65592564 65181188 64761632 64332260 63892448 63442232 
3382.829 62982016 62512884 62035992 61552872 61064984 60574372 60083016 
3386.205 59593396 59107516 58626616 58151624 57682412 57218320 56758616 
3389.580 56302336 55848568 55396780 54946816 54498332 54051852 53608752 
3392.955 53170372 52738684 52314976 51899440 51491024 51087908 50687624 
3396.330 50288340 49889720 49492656 49099480 48712252 48332332 47959372 
3399.706 47591756 47226672 46862072 46496788 46131000 45766216 45404460 
3403.081 45047016 44694052 44345040 43998988 43655556 43314848 42978244 
3406.456 42647244 42323068 42005704 41693820 41385484 41078708 40771968 
3409.831 40465412 40160372 39858860 39563248 39275024 38994964 38722404 
3413.207 38456200 38194648 37935856 37678196 37421048 37163908 36907464 
3416.582 36652576 36399960 36151060 35906188 35665376 35428252 35194244 
3419.957 34963340 34736148 34513956 34298224 34090696 33891440 33699824 
3423.332 33514098 33331882 33151102 32970612 32790158 32610354 32432516 
3426.708 32257390 32084942 31914522 31745058 31575448 31404980 31233830 
3430.083 31063210 30893936 30727398 30564656 30405562 30250400 30098456 
3433.458 29949508 29803062 29658544 29515600 29373626 29232334 29091194 
3436.833 28950174 28809126 28667982 28527026 28386224 28245820 28105566 
3440.208 27965746 27826220 27687552 27549702 27413380 27278898 27146506 
3443.584 27015670 26885682 26755030 26621986 26485110 26343558 26198110 
3446.959 26050812 25904934 25764100 25631676 25508814 25395226 25288236 
3450.334 25184148 25078968 24969948 24855272 24735192 24610970 24485102 
3453.709 24359340 24235226 24113704 23995158 23879304 23766316 23655632 
3457.085 23547006 23439666 23332700 23224888 23115566 23004490 22891938 
3460.460 22778438 22664690 22551494 22438956 22326936 22214944 22102912 
3463.835 21990804 21878934 21768206 21659494 21553976 21452280 21354748 
3467.210 21261100 21170534 21081482 20992242 20901036 20806722 20708640 
3470.586 20607280 20503928 20400078 20297334 20196694 20098540 20002734 
3473.961 19909136 19817500 19728100 19641564 19558058 19477482 19399030 
3477.336 19320838 19241344 19159128 19073326 18984220 18892984 18801114 
3480.711 18710332 18621750 18536468 18454664 18376814 18302676 18232316 
3484.087 18165320 18100892 18038370 17976548 17914634 17852070 17789034 
3487.462 17725626 17663056 17601876 17543014 17487232 17435216 17387690 
3490.837 17345098 17307720 17275204 17246934 17221698 17197946 17174712 
3494.212 17151410 17128042 17105466 17084202 17065454 17050152 17038782 
3497.588 17031406 17027926 17027994 17031028 17035576 17040848 17045570 
3500.963 17048878 17051084 17053392 17057804 17067040 17083650 17109672 
3504.338 17145516 17190774 17244004 17303272 17366514 17432214 17499168 
3507.713 17567060 17636174 17707542 17782820 17863810 17952030 18048558 
3511.089 18153124 18264418 18380720 18499748 18619570 18739114 18857204 
3514.464 18973802 19088146 19199126 19304972 19404090 19495190 19577850 
3517.839 19652760 19721374 19784658 19843580 19897238 19943860 19980946 
3521.214 20006030 20017066 20013422 19995344 19963636 19919784 19864320 
3524.590 19797280 19718046 19624888 19516190 19390578 19247786 19088976 
3527.965 18917488 18737490 18553828 18370488 18190886 18015298 17843372 
3531.340 17673028 17501342 17326100 17144966 16957050 16762087 16561016 
3534.715 16355257 16147979 15942380 15742306 15550670 15369692 15199048 
3538.091 15037389 14881895 14729027 14576109 14421773 14265677 14109089 
3541.466 13953619 13800803 13652076 13507980 13367964 13231614 13097798 
3544.841 12965767 12833842 12702198 12570729 12440391 12312785 12190226 
3548.216 12074072 11965204 11862935 11765422 11669905 11573899 11475158 
3551.592 11373515 11269889 11166628 11066586 10972310 10885088 10804811 
3554.967 10730868 10661522 10595106 10530329 10465937 10401214 10335719 
3558.342 10269116 10201369 10132989 10064213 9995955 9928794 9863574 9800432 
3562.199 9739501 9679800 9619970 9557744 9490413 9414627 9327819 9229215 
3566.057 9119771 9003455 8886730 8776967 8679908 8598857 8533465 8480584 
3569.914 8435413 8393219 8350082 8303844 8253963 8201319 8147905 8095916 
3573.772 8047544 8004071 7965496 7931548 7900234 7869124 7836499 7800267 
3577.629 7759855 7715871 7669633 7623062 7577980 7535430 7495751 7458637 
3581.487 7423750 7390856 7360322 7332284 7306775 7282683 7257548 7228034 
3585.344 7190034 7140786 7079183 7007824 6932067 6859251 6796981 6749831 
3589.201 6719073 6702214 6694912 6691480 6686366 6676036 6657766 6630446 
3593.059 6594886 6553039 6507024 6460141 6415314 6374661 6339794 6311687 
3596.916 6289768 6273161 6260152 6248892 6237328 6224354 6209430 6192961 
3600.774 6176358 6161234 6149270 6141742 6138583 6139558 6143322 6147959 
3604.631 6151152 6150615 6143826 6129241 6105517 6072889 6032974 5989030 
3608.489 5944923 5904549 5870258 5842215 5818271 5795538 5770656 5741713 
3612.346 5708174 5672521 5637878 5607703 5584443 5568166 5557527 5548868 
3616.203 5538095 5521517 5496282 5461083 5417165 5367614 5317432 5272521 
3620.061 5238112 5216985 5209708 5214134 5227112 5245054 5265378 5286339 
3623.918 5307638 5329306 5350439 5368956 5379993 5377477 5354732 5307202 
3627.776 5235530 5148110 5060843 4991222 4952880 4948389 4971079 5007780 
3631.633 5046294 5076230 5091551 5091618 5079414 5060944 5042574 5028629 
3635.490 5021054 5018707 5018405 5017132 5013109 5005903 4997054 4988809 
3639.348 4983513 4982072 4984921 4991155 4999903 5010730 5024037 5040495 
3643.205 5060508 5083303 5106738 5127222 5140097 5140935 5126719 5096512 
3647.063 5051390 4995110 4932504 4868165 4807052 4753249 4710976 4684147 
3650.920 4675975 4686994 4714828 4754187 4797838 4837808 4866456 4878619 
3654.778 4871818 4848262 4814489 4779915 4754924 4746617 4757638 4786046 
3658.635 4826618 4872353 4916955 4955159 4984217 5004260 5017836 5028696 
3662.492 5040864 5056854 5077169 5100602 5125747 5151966 5179931 5212458 
3666.350 5252097 5301433 5361442 5432933 5519068 5628345 5776163 5983924 
3670.207 6274473 6661635 7148667 7728823 8391226 9125220 9920285 10760383 
3674.065 11606568 12387714 13003969 13342406 13327201 12950097 12267315 
3677.440 11369127 10349360 9296100 8280270 7361804 6587721 5980666 5539538 
3681.297 5240728 5049211 4927545 4845984 4787687 4744607 4714627 4696239 
3685.155 4685152 4674099 4655511 4622892 4574169 4511657 4443162 4377222 
3689.012 4321398 4280003 4253703 4241457 4241156 4250959 4267957 4288704 
3692.870 4309552 4326954 4338332 4343587 4344122 4342984 4342716 4345494 
3696.727 4352522 4362764 4374746 4386560 4395899 4400016 4396401 4383247 
3700.584 4359718 4327958 4292519 4260496 4238747 4231955 4240821 4262771 
3704.442 4292552 4324310 4353526 4377791 4396668 4410827 4420668 4426091 
3708.299 4425689 4417555 4400384 4374578 4342315 4307142 4273044 4243665 
3712.157 4221917 4209270 4206862 4215092 4233427 4260362 4292887 4327054 
3716.014 4357910 4381774 4396166 4401288 4398576 4391347 4382176 4372536 
3719.872 4362395 4351184 4338633 4325649 4313902 4305469 4301487 4301855 
3723.729 4304365 4305904 4304030 4297906 4288871 4280271 4276156 4280640 
3727.586 4295832 4321398 4354764 4392786 4430442 4462578 4485242 4495152 
3731.444 4491268 4475400 4451398 4423547 4394962 4366713 4337295 4305335 
3735.301 4270768 4236605 4208401 4192575 4192408 4207932 4235401 4269630 
3739.159 4306138 4341779 4375783 4408116 4437539 4460469 4469106 4454042 
3743.016 4406543 4325749 4223624 4124566 4057203 4039577 4070815 4135170 
3746.874 4211412 4279502 4323339 4335521 4316412 4274248 4222185 4173573 
3750.731 4138013 4118779 4115367 4125235 4146644 4177420 4215025 4255844 
3754.588 4295396 4329062 4354262 4369959 4377791 4380235 4380034 4378360 
3758.446 4374879 4368654 4359584 4350146 4344557 4347201 4360554 4383113 
3762.303 4409656 4433087 4446544 4446042 4432484 4411329 4390544 4377925 
3766.161 4377858 4389405 4407513 4424752 4434861 4433522 4420500 4398677 
3770.018 4374043 4353024 4340641 4340005 4351150 4371499 4396836 4422542 
3773.875 4444100 4458126 4464118 4463214 4458327 4452469 4447347 4442527 
3777.733 4436099 4425455 4409321 4389037 4368855 4353961 4348339 4352891 
3781.590 4364738 4378360 4388100 4389271 4380502 4363734 4342984 4322871 
3785.448 4307076 4296601 4290946 4288537 4288001 4288804 4291582 4296936 
3789.305 4305369 4317014 4331103 4346966 4364370 4382711 4401556 4419965 
3793.163 4435363 4445037 4446409 4437673 4419697 4395731 4371231 4352020 
3797.020 4342248 4342348 4349176 4356906 4358045 4345293 4314438 4265281 
3800.877 4204185 4142830 4095633 4074427 4083424 4118846 4171165 4228408 
3804.735 4278632 4311894 4323373 4314505 4292619 4269999 4259425 4268091 
3808.592 4296869 4340809 4392585 4444836 4492172 4531746 4562851 4585922 
3812.450 4600489 4605880 4599150 4577752 4540150 4488490 4429873 4375382 
3816.307 4337429 4323540 4334618 4364671 4402627 4435530 4452100 4443933 
3820.165 4408885 4353259 4291247 4241056 4216531 4223691 4258053 4309853 
3824.022 4366144 4415680 4451263 4469809 4473291 4467064 4458026 4451398 
3827.879 4449556 4451765 4454879 4455950 4452736 4445071 4434426 4423781 
3831.737 4415815 4412668 4415480 4423882 4436434 4451263 4465257 4475434 
3835.594 4478547 4472487 4455950 4431246 4401689 4373105 4350581 4337027 
3839.452 4332442 4334618 4340106 4345226 4347670 4346197 4340675 4332007 
3843.309 4321465 4311158 4303227 4299881 4303026 4313869 4332141 4356539 
3847.167 4385289 4416249 4448016 4479685 4510754 4540150 4564961 4580263 
3851.024 4577819 4549692 4489159 4396434 4282781 4170228 4083290 4038674 
3854.881 4039142 4075330 4132995 4198130 4261633 4317349 4362831 4397439 
3858.739 4421973 4437037 4443966 4443966 4439246 4432015 4424082 4416484 
3862.596 4408250 4397874 4384117 4367416 4351217 4341277 4343051 4359216 
3866.454 4388033 4422676 4452435 4467633 4460001 4427898 4377524 4322637 
3870.311 4279167 4257551 4260161 4280205 4306942 4328861 4338600 4334718 
3874.168 4322068 4309284 4305335 4316312 4342415 4379431 4419362 4453707 
3878.026 4475668 4480890 4469106 4444367 4414576 4387698 4371934 4371098 
3881.883 4385188 4409555 4437171 4460637 4472989 4470378 4452937 4425823 
3885.741 4398443 4380636 4379532 4396367 4426760 4462244 4493478 4511992 
3889.598 4512427 4493913 4460469 4420500 4383916 4358948 4350180 4357610 
3893.456 4377892 4406342 4438711 4471249 4501814 4528799 4551266 4568209 
3897.313 4578991 4583311 4581670 4575609 4567104 4557661 4548353 4538911 
3901.170 4527293 4511624 4490230 4463081 4431781 4400585 4373808 4356003 
3905.028 4349711 4355333 4370595 4392451 4417856 4444000 4469240 4492909 
3908.885 4515206 4536400 4556255 4575006 4592017 4607354 4621452 4634982 
3912.743 4648980 4663583 4678487 4692018 4701263 4704076 4698650 4685186 
3916.600 4665860 4644694 4625739 4612209 4605545 4605144 4609598 4616931 
3920.458 4625571 4634948 4643990 4651794 4656583 4656349 4649516 4635953 
3924.315 4617969 4599685 4586391 4582339 4589505 4606650 4630025 4654573 
3928.172 4675506 4690143 4697277 4698449 4695468 4690277 4683745 4676444 
3932.030 4668372 4659966 4652698 4648311 4648378 4653000 4661239 4670549 
3935.887 4678654 4683678 4685353 4684717 4683846 4684817 4688669 4694999 
3939.745 4701731 4706923 4707962 4703674 4694363 4681568 4667769 4655813 
3943.602 4647842 4645397 4648344 4655746 4665425 4674937 4681635 4683645 
3947.459 4680563 4673228 4664152 4656081 4651727 4652464 4658626 4668607 
3951.317 4680664 4692487 4702870 4710809 4716268 4719484 4720589 4719987 
3955.174 4717876 4714895 4712115 4710775 4712215 4717006 4725313 4736400 
3959.032 4748627 4761021 4771976 4780786 4786950 4790568 4792177 4792311 
3962.889 4791741 4791607 4792847 4795962 4801356 4808492 4816533 4824138 
3966.747 4830638 4835530 4839014 4841628 4844208 4847257 4850976 4855499 
3970.604 4860559 4866121 4872990 4881401 4892023 4904522 4918597 4932706 
3974.461 4945910 4956600 4964577 4969537 4971649 4971448 4969672 4966420 
3978.319 4962566 4958545 4955193 4953283 4952613 4953316 4954389 4955026 
3982.176 4954053 4951104 4946278 4940212 4934113 4928986 4925936 4925534 
3986.034 4928382 4934549 4943564 4955026 4967493 4979592 4989949 4997155 
3989.891 5000574 5000607 4998227 4994608 4990652 4986698 4982575 4977414 
3993.749 4970979 4963035 4954087 4945072 4936593 4929254 4922920 4916921 
3997.606 4910688 4904221 4897217 4890415 4884517 4879994 4877313 
##END=
