
##TITLE=Z351_1_b
##JCAMP-DX=5.01  $$ Nicolet v. 1
##DATATYPE=INFRARED SPECTRUM
##ORIGIN=UniL
##OWNER=Nicolet
##LONGDATE=2011/09/13
##TIME=10:57:09
##SPECTROMETER/DATA SYSTEM=Nicolet iS5
##DATA PROCESSING=
Ratio against background
%Transmittance->Absorbance
Truncated
ElementMultiply or ElementDivide
##COMMENTS=
Number of sample scans: 32
Collection length: 51.17 sec
Sample gain: 2.0
Background collected on: Mar Sep 13 10:14:34 2011 (GMT+02:00);
Number of background scans: 32
Background gain: 2.0
Sample spacing:  1.000
Number of scan points: 12415
Resolution points: 8192
Number of FFT points: 65536
Apodization: N-B fort;
Phase correction: Mertz;
Laser frequency: 15798.0 cm-1
Number of rejected sample scans: 0
Number of rejected background scans: 0
Bench serial number: ASB1000141;
##RESOLUTION=4.000
##XUNITS=1/CM
##YUNITS=ABSORBANCE
##FIRSTX=649.893372
##LASTX=4000.122314
##FIRSTY=0.109804
##MAXX=4000.122314
##MINX=649.893372
##MAXY=0.330876
##MINY=-0.003734
##XFACTOR=1.000000
##YFACTOR=1.000000E-009
##NPOINTS=6950
##DELTAX=0.482117
##ZPD=6100
##XYDATA=(X++(Y..Y))
649.893 109803536 109248592 108770456 108405328 108162088 108026736 
652.786 107976768 107997120 108088352 108262928 108536040 108912264 
655.679 109381176 109925912 110532656 111205992 111970880 112863984 
658.571 113918736 115148456 116543136 118076136 119725432 121484392 
661.464 123371144 125415120 127642840 130060152 132653984 135401264 
664.357 138291264 141334256 144541552 147894016 151282704 154440832 
667.250 156976464 158473072 158686640 157681552 155773264 153345792 
670.142 150683168 147945168 145183488 142394688 139576848 136751136 
673.035 133960216 131259352 128690152 126269712 123997248 121864288 
675.928 119866536 118010392 116306040 114757072 113353744 112070888 
678.820 110875760 109736808 108636064 107568416 106537080 105544488 
681.713 104583528 103637152 102685072 101711696 100717144 99716608 98738264 
685.088 97810704 96953296 96171960 95459512 94802800 94187984 93606264 
688.463 93053528 92525720 92014280 91504224 90974784 90406168 89786008 
691.838 89113448 88398864 87661464 86924208 86207320 85528368 84901840 
695.212 84338824 83850072 83444016 83125232 82893864 82745064 82669992 
698.587 82658448 82702416 82797744 82943472 83140480 83388200 83682712 
701.962 84017288 84383208 84772536 85181088 85606488 86047008 86498928 
705.337 86953960 87400064 87826712 88226656 88601048 88959048 89315312 
708.712 89686040 90085288 90528136 91032800 91626056 92347976 93244288 
712.086 94356688 95706096 97274392 98995704 100752416 102402896 103800056 
715.461 104821736 105404240 105546592 105313400 104812544 104189296 
718.354 103600728 103190368 103092808 103412256 104208760 105490032 
721.247 107191480 109173904 111212416 113036832 114375024 114986984 
724.139 114740680 113635072 111812176 109513968 107037728 104675192 
727.032 102633992 101031840 99888808 99153968 98737088 98543072 98497880 
730.407 98548424 98661864 98817952 98997832 99184392 99365128 99534984 
733.782 99697688 99863248 100041384 100235584 100441184 100648208 100847440 
737.156 101036144 101220120 101409904 101615680 101841960 102084648 
740.049 102333984 102580152 102819192 103054032 103293200 103543952 
742.942 103809104 104084312 104361720 104633656 104899056 105162936 
745.835 105433512 105716856 106010408 106302672 106577728 106821184 
748.727 107026240 107196824 107342736 107474872 107597528 107707488 
751.620 107795728 107855784 107887768 107901792 107913936 107940440 
754.513 107990064 108062728 108150144 108242472 108335032 108430168 
757.405 108536376 108663720 108818352 109000152 109204744 109426400 
760.298 109662504 109915288 110188416 110483464 110796648 111119408 
763.191 111443448 111767384 112104128 112481912 112945976 113552176 
766.083 114354624 115402552 116723696 118311680 120110344 122007232 
768.976 123841224 125407952 126516344 127035040 126936496 126324576 
771.869 125419008 124511784 123858720 123619232 123792800 124221024 
774.762 124620016 124664032 124103680 122811848 120828512 118320856 
777.654 115534136 112706752 110005008 107516288 105241960 103131544 
780.547 101112624 99125112 97134632 95133696 93135968 91167336 89260936 
783.922 87448368 85761224 84229352 82874928 81713856 80752952 79990520 
787.297 79419344 79030808 78819600 78785080 78933072 79272576 79816160 
790.671 80577968 81573064 82820200 84341192 86158472 88293160 90757856 
794.046 93550208 96646592 100002008 103547152 107187744 110820296 114331088 
797.421 117610128 120577736 123195632 125490624 127554120 129542888 
800.314 131646408 134032488 136813920 139985872 143404768 146760048 
803.206 149620928 151518592 151999168 150772096 147777408 143220080 
806.099 137519840 131220760 124884800 118925208 113568528 108827672 
808.992 104548208 100483392 96388216 92112248 87620104 82996576 78392024 
812.367 73983904 69918624 66280940 63101656 60362468 58019632 56019036 
815.742 54310632 52853108 51609668 50550916 49651876 48892696 48260492 
819.116 47747360 47348588 47059252 46871780 46776636 46764940 46831440 
822.491 46977432 47210304 47541368 47981464 48537408 49210420 49995884 
825.866 50884236 51860576 52903964 53986448 55070400 56114072 57079920 
829.241 57942076 58700040 59385584 60066464 60834168 61799500 63077672 
832.616 64760020 66902832 69498592 72461968 75607008 78649440 81254336 
835.990 83043672 83689336 82992520 80916000 77614976 73388312 68641224 
839.365 63777112 59132344 54959452 51387032 48445152 46092900 44252576 
842.740 42835164 41755648 40947828 40355988 39934080 39646992 39465448 
846.115 39367888 39341404 39376448 39464832 39597404 39762116 39947560 
849.490 40146636 40358532 40589520 40849716 41149552 41494728 41885968 
852.865 42319232 42790188 43297128 43842192 44431396 45072412 45772512 
856.239 46538424 47378260 48304116 49332492 50486184 51792664 53279064 
859.614 54976076 56916292 59133712 61666580 64546912 67787680 71362496 
862.989 75188368 79116544 82919968 86335280 89089520 90936176 91720416 
866.364 91395552 90041912 87843056 85070000 82037440 79034416 76320296 
869.739 74088032 72448616 71453176 71095312 71330392 72081512 73250752 
873.113 74726288 76370784 78034848 79565688 80806712 81632592 81961648 
876.488 81768248 81088648 80012072 78667504 77188784 75703672 74312120 
879.863 73068168 71983896 71031424 70159928 69307560 68422712 67479408 
883.238 66481264 65461636 64470612 63566448 62796468 62188788 61752060 
886.613 61478428 61351788 61356864 61486176 61740752 62127696 62655360 
889.987 63328200 64144828 65099196 66182680 67387184 68708560 70145288 
893.362 71697608 73366656 75151696 77049088 79049720 81131976 83255928 
896.737 85359480 87347472 89103392 90503648 91426304 91786152 91545992 
900.112 90725968 89397488 87674032 85696560 83603288 81527200 79583088 
903.487 77852984 76395560 75243608 74408024 73886008 73666144 73734816 
906.862 74079736 74692216 75567848 76704568 78101840 79758752 81674944 
910.236 83850752 86286776 88982184 91930664 95114760 98499920 102037968 
913.611 105668248 109327648 112969184 116568048 120132800 123701688 
916.504 127339632 131124344 135124256 139386688 143911216 148635600 
919.397 153410144 158001664 162115984 165403552 167546448 168322240 
922.289 167660064 165691168 162747440 159350272 156090832 153588480 
925.182 152407088 152930992 155348688 159589888 165343136 172040352 
928.075 178922720 185195440 190052256 192854416 193233792 191087680 
930.967 186577328 180034416 171904320 162649808 152706560 142497312 
933.860 132385672 122686256 113676656 105559360 98477432 92517440 87705576 
937.235 84030480 81455896 79932808 79401128 79781920 80971416 82811744 
940.610 85085272 87537088 89863792 91770024 93018224 93441680 92987152 
943.985 91710808 89768200 87372144 84752800 82135432 79691624 77537216 
947.359 75733256 74290264 73186392 72380584 71827960 71484120 71308520 
950.734 71267728 71330200 71467984 71658800 71885320 72138040 72414528 
954.109 72717104 73049824 73414880 73811464 74236400 74685640 75156456 
957.484 75648376 76163120 76702240 77265888 77851720 78456128 79075960 
960.859 79710216 80360224 81028872 81718296 82428200 83155728 83896856 
964.233 84648704 85411664 86189264 86987072 87809472 88657976 89530336 
967.608 90422928 91332744 92260200 93209840 94188192 95201016 96250480 
970.983 97334248 98447712 99586648 100750576 101943056 103171160 104442168 
974.358 105759880 107124856 108534384 109986352 111480704 113021280 
977.251 114613784 116264600 117978136 119757336 121606256 123532728 
980.143 125550168 127677920 129936560 132343560 134910016 137638048 
983.036 140521920 143548432 146698544 149940976 153224272 156476304 
985.929 159593808 162449488 164915552 166869536 168222304 168934272 
988.821 169016608 168532304 167581392 166301600 164844640 163362096 
991.714 162005552 160898112 160130384 159759248 159802336 160249152 
994.607 161070096 162231408 163701168 165453552 167469456 169730720 
997.500 172216512 174904800 177771440 180794816 183957760 187241120 
1000.392 190618432 194049872 197473024 200810112 203979664 206903904 
1003.285 209529152 211832432 213822208 215534928 217029248 218385456 
1006.178 219691680 221046848 222553472 224298064 226349120 228744800 
1009.070 231490800 234565360 237929600 241542496 245363072 249354272 
1011.963 253480608 257696384 261947216 266175888 270325760 274354784 
1014.856 278236928 281952416 285474624 288752768 291699488 294203360 
1017.748 296142688 297410880 297950048 297762432 296920672 295552736 
1020.641 293842560 292012576 290287264 288900320 288057216 287906016 
1023.534 288538720 289972736 292161792 295005440 298376544 302143744 
1026.427 306168896 310322784 314473376 318468096 322149152 325352800 
1029.320 327923904 329746304 330742880 330876320 330140512 328546752 
1032.213 326119008 322892992 318926304 314299648 309106912 303451552 
1035.106 297425856 291100544 284532096 277767584 270857888 263871552 
1037.999 256890960 250006288 243313360 236895008 230822288 225155440 
1040.892 219935056 215180544 210876656 206964384 203329008 199800240 
1043.785 196187392 192289920 187944944 183068944 177663872 171825184 
1046.678 165710800 159527968 153488304 147774096 142540832 137890000 
1049.571 133872736 130499888 127746392 125564320 123890096 122659712 
1052.464 121811528 121289400 121047120 121039848 121218480 121529192 
1055.357 121904256 122264416 122531232 122625440 122479792 122048440 
1058.250 121305744 120252624 118915920 117352088 115642704 113886784 
1061.144 112201976 110703000 109493120 108660912 108265096 108337416 
1064.037 108883232 109883280 111295376 113052400 115070672 117241616 
1066.930 119437424 121530896 123394344 124919784 126035304 126700792 
1069.823 126911592 126688464 126070488 125104576 123837168 122315608 
1072.716 120581936 118673352 116627296 114481016 112276888 110068824 
1075.609 107918520 105896944 104081576 102541464 101336840 100510504 
1078.502 100082392 100050144 100387480 101048856 101964632 103044368 
1081.395 104186816 105273376 106188920 106840168 107163744 107147416 
1084.288 106832376 106314224 105723024 105206328 104919728 104994832 
1087.181 105535400 106609456 108238952 110400064 113018872 115984024 
1090.074 119143080 122318112 125339184 128045336 130311128 132060632 
1092.967 133258448 133908408 134039296 133698864 132942336 131827312 
1095.860 130418272 128781352 126986120 125110936 123233256 121426104 
1098.753 119751448 118242424 116895616 115661080 114450656 113141560 
1101.646 111597992 109708912 107399936 104659968 101541784 98159224 94665688 
1105.022 91220312 87984600 85091440 82634040 80674152 79236424 78318448 
1108.397 77897704 77938576 78396784 79218608 80347312 81719448 83262152 
1111.772 84899912 86547416 88111248 89502896 90636104 91440168 91870968 
1115.147 91910600 91570336 90883440 89902104 88687280 87299424 85799704 
1118.523 84240896 82664176 81101824 79573608 78089144 76651952 75263112 
1121.898 73924864 72643392 71428768 70292632 69245488 68292328 67432112 
1125.273 66658424 65963784 65343880 64802596 64353280 64018636 63826276 
1128.648 63800604 63959324 64306520 64831024 65503784 66281824 67112496 
1132.024 67932672 68681624 69305960 69766120 70046384 70157008 70135128 
1135.399 70034160 69919600 69856432 69894456 70065464 70375768 70807416 
1138.774 71318208 71847744 72328568 72686168 72852984 72776304 72417928 
1142.149 71760216 70803512 69563496 68066600 66346908 64446664 62410460 
1145.525 60285680 58122536 55965736 53856388 51829284 49908676 48111404 
1148.900 46447336 44920888 43533604 42285924 41177240 40205952 39368320 
1152.275 38658868 38070064 37594044 37224408 36956780 36788836 36719960 
1155.650 36749816 36877200 37100752 37419388 37833756 38346920 38963428 
1159.026 39688268 40525024 41474132 42532740 43695052 44951904 46292308 
1162.401 47700284 49153792 50625852 52080132 53476292 54773616 55930948 
1165.776 56912816 57691268 58244748 58561392 58638296 58482836 58111548 
1169.151 57549084 56827572 55980092 55040760 54042956 53015624 51986044 
1172.527 50980324 50021128 49130788 48329740 47633572 47055556 46604044 
1175.902 46283756 46096952 46044452 46126540 46343808 46697160 47189252 
1179.277 47825148 48614000 49569268 50709408 52053644 53620260 55423392 
1182.652 57469916 59760584 62290088 65048732 68019160 71171888 74462816 
1186.028 77821040 81149472 84334272 87240728 89735776 91705080 93054344 
1189.403 93728728 93714800 93041784 91776328 90014024 87875024 85479960 
1192.778 82946960 80385592 77881568 75503664 73301504 71303528 69523560 
1196.153 67961536 66607280 65442256 64441972 63579104 62821664 62135416 
1199.529 61486824 60839428 60159200 59416544 58586684 57656044 56623640 
1202.904 55503096 54320620 53111656 51917592 50775548 49716480 48761816 
1206.279 47921296 47196196 46582020 46071900 45658688 45335348 45095388 
1209.654 44930844 44833188 44794360 44807764 44870920 44985416 45157444 
1213.030 45395268 45707056 46100416 46579772 47146664 47799400 48533220 
1216.405 49339284 50204348 51112992 52047520 52990916 53930588 54857560 
1219.780 55767600 56659924 57536072 58399212 59254844 60111936 60984448 
1223.155 61889436 62847548 63877940 64994968 66206336 67510760 68898440 
1226.531 70350952 71843832 73346184 74820552 76228432 77530872 78693168 
1229.906 79692736 80519568 81179712 81692576 82092040 82423600 82740296 
1233.281 83108344 83602408 84298824 85280632 86625312 88397608 90652224 
1236.656 93425328 96736552 100590808 104980104 109881488 115252264 121032448 
1240.031 127137232 133455960 139870672 146250544 152462720 158386736 
1242.925 163902768 168897264 173270816 176931632 179806768 181846416 
1245.818 183020112 183316864 182741088 181312976 179069456 176064976 
1248.711 172374576 168080736 163263600 157992832 152316320 146266048 
1251.604 139869216 133160368 126197352 119068408 111882304 104770704 
1254.497 97872960 91312216 85200600 79621056 74618632 70206896 66365012 
1257.872 63046260 60182072 57693048 55498576 53515832 51674040 49917000 
1261.247 48202844 46509436 44830248 43170740 41543544 39964052 38447584 
1264.623 37006060 35649836 34386728 33222382 32159936 31199046 30335418 
1267.998 29560678 28864364 28237156 27672224 27166928 26722188 26340494 
1271.373 26024144 25773838 25589780 25472552 25425016 25452736 25562790 
1274.748 25760302 26046272 26414504 26850292 27329956 27824560 28298120 
1278.124 28711732 29028560 29215216 29249168 29123118 28846340 28443530 
1281.499 27948396 27398874 26827418 26256642 25699798 25162344 24646810 
1284.874 24157734 23702696 23292602 22939058 22650690 22432676 22287206 
1288.249 22216060 22222616 22313402 22495308 22774178 23150932 23620786 
1291.625 24172728 24791106 25458252 26151902 26846520 27513518 28119106 
1295.000 28631810 29027462 29294750 29439750 29485704 29470244 29434502 
1298.375 29420212 29463436 29590116 29818606 30158368 30609698 31159920 
1301.750 31781100 32431766 33054802 33587192 33972300 34163748 34135860 
1305.125 33885312 33429206 32799806 32037854 31191428 30307564 29431132 
1308.501 28604242 27859074 27217794 26690088 26274138 25959030 25729856 
1311.876 25573648 25480844 25446552 25469812 25550736 25689462 25885978 
1315.251 26140748 26454858 26829144 27262776 27750134 28281392 28842446 
1318.626 29419538 30003330 30591070 31186300 31795290 32421768 33062168 
1322.002 33702976 34321064 34889584 35381052 35773944 36058020 36237240 
1325.377 36331216 36372652 36407456 36487200 36658488 36959592 37408916 
1328.752 38001272 38708456 39487620 40291632 41078236 41821640 42513592 
1332.127 43162248 43784980 44402584 45034776 45695608 46395716 47142120 
1335.503 47938796 48785428 49675540 50595584 51523256 52429808 53285244 
1338.878 54060256 54732536 55291208 55737388 56084024 56351864 56566760 
1342.253 56752760 56929400 57109472 57297408 57490604 57681656 57863064 
1345.628 58029060 58177612 58308520 58418656 58496256 58518664 58450004 
1349.004 58246868 57870104 57290184 56499620 55516124 54383664 53166328 
1352.379 51937308 50777296 49758800 48941424 48370000 48066100 48027164 
1355.754 48224280 48609072 49117172 49677804 50229712 50722924 51124472 
1359.129 51420260 51610080 51706140 51728456 51708192 51685724 51707336 
1362.505 51825664 52086292 52517596 53124088 53882080 54743776 55636964 
1365.880 56478184 57176440 57636556 57781908 57562932 56971408 56043652 
1369.255 54856204 53511072 52107028 50733836 49457340 48313520 47319288 
1372.630 46478236 45790736 45261316 44899580 44715936 44715496 44893700 
1376.006 45236456 45725240 46343552 47081700 47938908 48924772 50059796 
1379.381 51377780 52922044 54744448 56894040 59395800 62229552 65303752 
1382.756 68461072 71469112 74053800 75953152 76919928 76775464 75442944 
1386.131 72982008 69611216 65673152 61594756 57757572 54423364 51721068 
1389.507 49651284 48139720 47078304 46361684 45896420 45601864 45413180 
1392.882 45269444 45114616 44905384 44615316 44243736 43812576 43358084 
1396.257 42914308 42500908 42122444 41769764 41430132 41096224 40775172 
1399.632 40489232 40272620 40159500 40175456 40334316 40635180 41064976 
1403.008 41599768 42212156 42873308 43558808 44253528 44951832 45657032 
1406.383 46377616 47126388 47916932 48760812 49666288 50634568 51660044 
1409.758 52729932 53828368 54942080 56062576 57186348 58310112 59423040 
1413.133 60503560 61520496 62439648 63239424 63919276 64505400 65043076 
1416.509 65589128 66196880 66901484 67714992 68622600 69589824 70575384 
1419.884 71545336 72477440 73359520 74183736 74944808 75641560 76284904 
1423.259 76902728 77540656 78250320 79073808 80032672 81120912 82312528 
1426.634 83571152 84863728 86160856 87438800 88681584 89880056 91038112 
1430.010 92175176 93331120 94561208 95920848 97459928 99208840 101178416 
1433.385 103365248 105764832 108381256 111222904 114296432 117587624 
1436.278 121047024 124592032 128137184 131629048 135048144 138393328 
1439.171 141648176 144759856 147617904 150059488 151910528 152992720 
1442.064 153166320 152354240 150539552 147772368 144158464 139864544 
1444.957 135093136 130052504 124958216 119996152 115320752 111063824 
1447.850 107317368 104126216 101479000 99316232 97549888 96093448 94894840 
1451.225 93946616 93285368 92964944 93031856 93494896 94320328 95427112 
1454.601 96700456 98011536 99208216 100153784 100769496 101083184 101230528 
1457.976 101393328 101744200 102391568 103390816 104765808 106514384 
1460.869 108613560 111009144 113620952 116323448 118939328 121269688 
1463.762 123101568 124274752 124741872 124594016 124028816 123263184 
1466.655 122490024 121833768 121354328 121074256 120987224 121064320 
1469.548 121240512 121407352 121405728 121026096 120070808 118423296 
1472.441 116122968 113369360 110449624 107627760 105060496 102810376 
1475.334 100883424 99273176 97989576 97058312 96497896 96303792 96435632 
1478.709 96827104 97395952 98067720 98791664 99543936 100332880 101189536 
1482.085 102162000 103303880 104673464 106338440 108371096 110846248 
1484.978 113825504 117334112 121333080 125690344 130190296 134512208 
1487.871 138254416 140996704 142314864 141881376 139563344 135475168 
1490.764 129981608 123581656 116799568 110038936 103534784 97401416 91651424 
1494.139 86262320 81235640 76611832 72480720 68958904 66144364 64078236 
1497.514 62732876 62037100 61899372 62234408 62976612 64070976 65467880 
1500.890 67120352 68975096 70975672 73067816 75182144 77234296 79115152 
1504.265 80649648 81595856 81649232 80500584 77993568 74267816 69762424 
1507.640 65002396 60381052 56078180 52111956 48439856 45023896 41849116 
1511.015 38935488 36318468 34024436 32067534 30440604 29121418 28079548 
1514.391 27278370 26675290 26214826 25837130 25492018 25153498 24834712 
1517.766 24578430 24437674 24446192 24603852 24869798 25174952 25440932 
1521.141 25616352 25706794 25773908 25900504 26144476 26527160 27034144 
1524.516 27634828 28294690 28989560 29710308 30459156 31244226 32072634 
1527.892 32949306 33879008 34870912 35941060 37110636 38400924 39827480 
1531.267 41396016 43096528 44898916 46756784 48611700 50411200 52125184 
1534.642 53755576 55324628 56857064 58366996 59852340 61301264 62684216 
1538.017 63963308 65091036 66009028 66654064 66973260 66949876 66614740 
1541.393 66040000 65312304 64496360 63616424 62651528 61556844 60290400 
1544.768 58849240 57284780 55692520 54175364 52797352 51573140 50465160 
1548.143 49409668 48342780 47233136 46095184 44983876 43965036 43084272 
1551.518 42355688 41762540 41275244 40866932 40526696 40259460 40078864 
1554.894 39993732 40000308 40077880 40191668 40284688 40268656 40027012 
1558.269 39429528 38407440 37030524 35494404 34013648 32720592 31656272 
1561.644 30797142 30090464 29476982 28902078 28325954 27731732 27129752 
1565.019 26551816 26037760 25614594 25287672 25038494 24833976 24634500 
1568.395 24405182 24127328 23801562 23447604 23094808 22773304 22505916 
1571.770 22305798 22179828 22127666 22141718 22204344 22287626 22357390 
1575.145 22378250 22330040 22218502 22074570 21936190 21830918 21767302 
1578.520 21738910 21734102 21744100 21766918 21806390 21868618 21956960 
1581.896 22069688 22200194 22340540 22484002 22626536 22765554 22896026 
1585.271 23009170 23093166 23136080 23131920 23083732 23005678 22918834 
1588.646 22846918 22811544 22828130 22907062 23055360 23277814 23575376 
1592.021 23939834 24350860 24770620 25148232 25432324 25576776 25555762 
1595.396 25369548 25043268 24619910 24147120 23671974 23231076 22851214 
1598.772 22553484 22353760 22263142 22287312 22424128 22664724 22995720 
1602.147 23404766 23881790 24419516 25009958 25639372 26284310 26912790 
1605.522 27484076 27954686 28286450 28448130 28421952 28204768 27806968 
1608.897 27249262 26557980 25766700 24912818 24037178 23184588 22393146 
1612.273 21689378 21085274 20576358 20146260 19771132 19426126 19086310 
1615.648 18731332 18352550 17954966 17560402 17199636 16903650 16694389 
1619.023 16580191 16557954 16614409 16730234 16882190 17049016 17214976 
1622.398 17372170 17521866 17670960 17829078 18003142 18199110 18421752 
1625.774 18675360 18962276 19279618 19617228 19956766 20277334 20564130 
1629.149 20813918 21038216 21256890 21492104 21759358 22063622 22398834 
1632.524 22751658 23105710 23440470 23734086 23960178 24088976 24097066 
1635.899 23978876 23754872 23462956 23144328 22829458 22531044 22247098 
1639.275 21965464 21672274 21358124 21024582 20684208 20358096 20066648 
1642.650 19823394 19631234 19481916 19359084 19238920 19094620 18900496 
1646.025 18634200 18286224 17866052 17404312 16943994 16530899 16204001 
1649.400 15985830 15887249 15904468 16019210 16190039 16345726 16396649 
1652.776 16261030 15924437 15454421 14952674 14490182 14089854 13746661 
1656.151 13446971 13180993 12947059 12748600 12589624 12471079 12388431 
1659.526 12331840 12288959 12247650 12195678 12120475 12010505 11856806 
1662.901 11658708 11427701 11187945 10969931 10800227 10697076 10664544 
1666.277 10693375 10761979 10842111 10904691 10923787 10883627 10781204 
1669.652 10624034 10426837 10207985 9987920 9785318 9616955 9493326 9414018 
1673.509 9364890 9316275 9232769 9084515 8866575 8603959 8342416 8125725 
1677.367 7977949 7902663 7885016 7902731 7935192 7973326 8021690 8095612 
1681.224 8210268 8369674 8555835 8726119 8814972 8755667 8521638 8149829 
1685.082 7728182 7340439 7036952 6826802 6692961 6607401 6540963 6470230 
1688.939 6378426 6258505 6113649 5957319 5810044 5694409 5632474 5639020 
1692.796 5718984 5865589 6059953 6271178 6458661 6587283 6641750 6637848 
1696.654 6612817 6607771 6648816 6738052 6854471 6953580 6981122 6890119 
1700.511 6675262 6380242 6074636 5815148 5627641 5514235 5458970 5437295 
1704.369 5418037 5373250 5284059 5148177 4979626 4801926 4638498 4503823 
1708.226 4401890 4328058 4274081 4233494 4206092 4198631 4222754 4289407 
1712.083 4404166 4564157 4757839 4969739 5182949 5384689 5567125 5723885 
1715.941 5844297 5911703 5902870 5799903 5602097 5332392 5030104 4738510 
1719.798 4491770 4306874 4187390 4126573 4111755 4127275 4157482 4189598 
1723.656 4214289 4227839 4233025 4238345 4256146 4299011 4377222 4493846 
1727.513 4643488 4811374 4978721 5128094 5249514 5345474 5429142 5518732 
1731.371 5627741 5756050 5882181 5964776 5948283 5788822 5485343 5086991 
1735.228 4671922 4306507 4029912 3849726 3753628 3718637 3717868 3726891 
1739.085 3726858 3710950 3684985 3662831 3657952 3677500 3719238 3773347 
1742.943 3826092 3865705 3887903 3897833 3908498 3934610 3988980 4076635 
1746.800 4193880 4329062 4467064 4593122 4693459 4755527 4766549 4711646 
1750.658 4579426 4367817 4091686 3781536 3476985 3217708 3030317 2925294 
1754.515 2895840 2919956 2964658 2994884 2986210 2930865 2840206 2736929 
1758.373 2646311 2585742 2560077 2562344 2575909 2579776 2552245 2478927 
1762.230 2357945 2200963 2029922 1871627 1752844 1692134 1698953 1770044 
1766.087 1889530 2031353 2164265 2263809 2318403 2333360 2325431 2314905 
1769.945 2315072 2326797 2338723 2332660 2293087 2215150 2108625 1992207 
1773.802 1883806 1793266 1720874 1662065 1612176 1570906 1542641 1534228 
1777.660 1550588 1590426 1645435 1700683 1740335 1753908 1740202 1708300 
1781.517 1673274 1650656 1649592 1670380 1703710 1734347 1746889 1729856 
1785.375 1680758 1607919 1528376 1462212 1428801 1443195 1512050 1632896 
1789.232 1793000 1972368 2144718 2281529 2359411 2364475 2298150 2176020 
1793.089 2024729 1871294 1733948 1622652 1537985 1475211 1428502 1393797 
1796.947 1370197 1360790 1371227 1405897 1466068 1546631 1634559 1710329 
1800.804 1754540 1751779 1696757 1596179 1466101 1328019 1201776 1102575 
1804.662 1038003 1008145 1007415 1028371 1064674 1111577 1166093 1225832 
1808.519 1287008 1344537 1392002 1422784 1431826 1416700 1378141 1320142 
1812.376 1249690 1176658 1110879 1062482 1039664 1045742 1079090 1131874 
1816.234 1192805 1248859 1290332 1313329 1320574 1319577 1318381 1324762 
1820.091 1343873 1378208 1430330 1502973 1598142 1715153 1848200 1984018 
1823.949 2103065 2186643 2223043 2213984 2175320 2131200 2105662 2113086 
1827.806 2154308 2216315 2277931 2315138 2312107 2266873 2191938 2107226 
1831.664 2032252 1981023 1958622 1964181 1993139 2040175 2100135 2168028 
1835.521 2239062 2308343 2371737 2427111 2476027 2523916 2579076 2651944 
1839.378 2752500 2887734 3061949 3275193 3524048 3799351 4086903 4367148 
1843.236 4617300 4817773 4958980 5045423 5092456 5119712 5143685 5171548 
1847.093 5201056 5222954 5226911 5204711 5154112 5078878 4986496 4884484 
1850.951 4777202 4664855 4544938 4414978 4274683 4126707 3975839 3826727 
1854.808 3681911 3541686 3404512 3268583 3134198 3003258 2878295 2761304 
1858.666 2651711 2546779 2442672 2336525 2227172 2116549 2008484 1906836 
1862.523 1815692 1739271 1680957 1645634 1639082 1665191 1725265 1814860 
1866.380 1923709 2034982 2129768 2190639 2204926 2168993 2088781 1977627 
1870.238 1851162 1724667 1609283 1512815 1438608 1387282 1355971 1339253 
1874.095 1329581 1320342 1305852 1283885 1254807 1220715 1183136 1142571 
1877.953 1097758 1046672 988485 924594 857991 793423 734207 681505 634084 
1882.292 589125 544136 498821 455367 417855 390991 378389 381706 400941 
1886.632 434836 480676 533620 586205 628012 647391 635976 592144 523535 
1890.971 446180 378290 336805 329974 355541 401239 451354 490096 508275 
1895.311 505356 487675 464422 442631 425218 410426 395203 377295 357265 
1899.651 338330 324304 317308 317540 322646 330273 339590 351694 368706 
1903.990 392219 421835 454604 487244 517032 543871 569284 595230 621309 
1908.330 643873 656649 653364 630667 590584 539657 486448 438850 400443 
1912.669 371691 351760 340320 340055 355806 390859 444488 508806 569284 
1917.009 608402 614076 583152 524895 456760 397624 360316 348113 353982 
1921.349 364627 366517 348643 305735 239890 157614 67167 -23193 -105386 
1925.688 -173753 -223431 -252308 -262044 -258269 -249527 -245056 -250619 
1929.546 -267309 -291845 -317871 -339557 -354919 -364983 -373723 -384449 
1933.403 -397890 -410965 -419837 -421062 -414871 -406000 -400670 -403981 
1937.260 -417453 -436619 -453798 -460981 -452938 -428609 -393288 -354323 
1941.118 -320089 -298368 -294958 -312904 -352833 -412058 -484480 -560597 
1944.975 -629355 -679908 -705182 -704189 -682687 -651952 -624028 -607055 
1948.833 -603514 -609900 -619892 -627138 -629454 -627833 -625716 -625848 
1952.690 -628528 -632465 -636237 -641431 -652151 -676037 -720068 -787114 
1956.548 -874850 -975264 -1077440 -1172256 -1253802 -1321229 -1376292 
1959.923 -1422035 -1458461 -1485341 -1500860 -1506011 -1504360 -1500794 
1963.298 -1498384 -1497129 -1493629 -1483128 -1464339 -1442775 -1427781 
1966.673 -1432900 -1467080 -1529751 -1610571 -1692431 -1757348 -1793416 
1970.049 -1799289 -1781503 -1751672 -1721409 -1696557 -1680252 -1674476 
1973.424 -1681606 -1706161 -1752629 -1818262 -1892034 -1955403 -1984990 
1976.799 -1962363 -1883885 -1760186 -1615127 -1474972 -1360140 -1279142 
1980.174 -1231104 -1207149 -1198426 -1200442 -1211941 -1233120 -1263714 
1983.550 -1299327 -1333451 -1360570 -1377844 -1386663 -1391254 -1394722 
1986.925 -1395911 -1389107 -1365392 -1317463 -1244056 -1150974 -1048915 
1990.300 -951725 -870452 -809769 -770940 -751326 -747556 -756817 -777688 
1994.157 -807553 -841815 -875148 -902329 -921142 -934136 -946964 -966041 
1998.015 -993810 -1027661 -1059360 -1081571 -1089306 -1085637 -1081373 
2001.390 -1090760 -1125561 -1190793 -1281653 -1385705 -1489732 -1581190 
2004.765 -1653715 -1705732 -1738636 -1752035 -1745072 -1716360 -1668766 
2008.141 -1611033 -1557452 -1521431 -1511988 -1528464 -1559532 -1590070 
2011.516 -1604563 -1594032 -1558938 -1506705 -1445615 -1382336 -1319841 
2014.891 -1256379 -1192313 -1131708 -1081571 -1050370 -1043660 -1058170 
2018.266 -1084348 -1109466 -1122917 -1121066 -1109301 -1095618 -1088810 
2021.642 -1091850 -1099386 -1101799 -1090495 -1060352 -1015100 -963330 
2025.017 -915092 -877364 -852364 -837119 -826933 -819492 -813705 -809537 
2028.874 -806892 -800806 -784203 -751426 -699856 -631936 -555832 -480442 
2032.732 -410502 -346112 -281283 -209091 -126619 -36611 53581 134379 198551 
2037.071 246653 283786 317805 355574 399283 446379 493115 535809 574592 
2041.411 612848 653530 697600 742107 781074 808327 822170 825656 825490 
2045.750 830270 847135 877679 920842 973873 1034283 1101777 1176591 1256702 
2050.090 1337026 1409055 1464672 1498717 1513280 1516173 1520562 1539049 
2053.948 1578321 1637918 1711261 1787444 1857451 1916753 1965312 2005588 
2057.805 2040575 2069871 2091545 2103164 2104896 2099935 2095140 2097671 
2061.662 2111388 2136427 2167362 2196367 2217814 2228105 2227772 2220345 
2065.520 2208889 2195235 2179483 2160768 2138725 2115251 2093009 2073766 
2069.377 2058884 2045735 2031253 2012179 1988645 1963082 1941481 1929367 
2073.235 1929733 1942380 1964280 1991142 2019902 2050329 2083155 2119146 
2077.092 2158005 2195867 2227605 2248821 2257647 2255848 2248388 2240728 
2080.949 2237397 2240561 2249753 2263709 2282394 2306211 2336291 2373137 
2084.807 2414783 2456500 2493156 2519950 2534781 2539047 2535647 2527082 
2088.664 2514251 2495455 2468197 2431643 2388196 2343853 2307177 2286158 
2092.522 2284526 2301414 2331294 2366840 2401456 2431776 2456800 2477960 
2096.379 2495989 2510685 2520683 2524982 2524383 2522250 2523583 2531881 
2100.237 2548712 2573243 2601875 2631609 2661446 2693184 2729760 2774809 
2104.094 2828300 2887601 2948345 3006161 3058346 3106499 3153456 3202620 
2107.951 3255463 3311050 3365809 3417436 3464927 3510286 3557119 3608736 
2111.809 3665437 3724519 3780266 3826761 3860490 3881418 3892183 3897966 
2115.666 3902781 3908999 3917090 3926853 3937720 3951964 3972394 4001420 
2119.524 4040480 4088575 4142462 4198531 4253804 4306272 4355300 4400785 
2123.381 4441589 4476438 4504057 4524547 4539647 4553409 4569615 4590811 
2127.239 4616898 4644895 4669913 4688870 4699956 4704847 4707493 4711479 
2131.096 4718948 4730304 4744037 4759447 4777470 4800619 4831543 4871248 
2134.953 4917323 4963940 5004696 5033992 5050048 5055848 5056384 5055714 
2138.811 5055982 5055345 5050484 5037579 5016294 4988775 4958946 4929891 
2142.668 4901976 4872253 4836636 4792277 4740252 4684951 4631666 4583645 
2146.526 4539949 4494047 4436970 4362061 4266351 4153869 4032922 3911005 
2150.383 3792399 3675796 3555516 3423915 3277229 3115643 2943608 2766639 
2154.240 2588675 2410352 2232334 2055988 1889031 1746223 1646998 1608085 
2158.098 1639215 1734979 1877450 2042572 2205425 2347384 2458733 2535581 
2161.955 2577509 2586542 2567377 2525482 2471462 2416716 2370638 2338490 
2165.813 2319169 2305045 2286958 2257913 2215949 2165164 2113886 2068206 
2169.670 2031986 2003824 1978659 1951666 1921412 1889697 1861777 1842444 
2173.528 1833560 1831962 1832295 1827204 1811865 1784849 1746822 1699152 
2177.385 1642740 1577357 1503039 1422950 1343540 1274546 1225865 1203570 
2181.242 1207956 1232677 1266903 1299438 1324363 1339851 1348725 1356037 
2185.100 1366175 1380634 1399681 1423382 1451905 1488078 1533829 1589262 
2188.957 1652020 1716117 1775367 1824642 1862376 1889697 1910430 1928468 
2192.815 1945275 1961052 1975297 1987314 1998598 2012246 2029955 2052492 
2196.672 2077861 2102299 2120811 2132065 2136427 2137559 2139258 2143986 
2200.530 2151278 2159570 2165930 2169526 2171857 2176553 2186376 2202894 
2204.387 2223642 2243425 2257314 2261777 2256348 2244724 2231668 2220978 
2208.244 2214816 2213351 2214484 2217881 2223609 2233034 2247022 2265174 
2212.102 2284959 2303579 2319469 2333226 2347951 2369206 2399557 2438807 
2215.959 2482826 2524049 2554978 2571810 2574243 2566177 2553445 2540513 
2219.817 2528682 2518350 2507086 2495322 2484858 2479793 2483758 2498855 
2223.674 2523383 2552578 2582009 2607342 2627109 2642677 2656112 2667946 
2227.531 2677915 2682816 2679815 2668180 2649844 2628676 2609742 2597242 
2231.389 2592075 2593609 2599742 2608375 2619642 2634443 2654078 2679115 
2235.246 2708321 2740163 2772741 2806222 2841940 2881997 2928229 2979404 
2239.104 3032086 3081737 3123452 3155391 3178922 3197413 3215639 3236735 
2242.961 3261806 3289549 3318362 3346810 3374691 3403076 3432798 3462856 
2246.819 3491881 3516766 3535506 3548133 3556919 3565070 3576095 3590627 
2250.676 3607165 3622701 3634229 3640143 3642749 3645723 3653374 3668311 
2254.533 3690566 3716999 3743969 3768100 3787585 3802894 3815563 3826359 
2258.391 3835518 3841870 3843742 3839931 3831073 3818404 3804164 3790126 
2262.248 3777391 3766094 3756703 3749751 3746943 3750319 3761215 3779530 
2266.106 3804198 3832510 3862028 3891480 3919999 3947717 3974166 3997909 
2269.963 4016033 4026100 4026936 4018843 4005266 3990986 3980420 3976774 
2273.821 3980620 3990284 4003058 4016168 4027839 4038139 4047135 4056065 
2277.678 4065129 4074494 4084227 4095097 4107908 4124064 4144001 4167719 
2281.535 4194483 4222720 4251963 4281811 4312798 4346063 4381874 4419697 
2285.393 4458327 4495721 4530641 4563186 4594428 4626610 4661942 4702067 
2289.250 4746818 4796163 4848597 4902880 4958176 5014015 5069894 5125412 
2293.108 5180467 5235194 5290364 5347789 5409381 5476955 5551150 5631232 
2296.965 5715022 5799802 5882718 5962324 6037913 6110457 6181130 6251849 
2300.823 6323689 6397794 6475174 6556032 6640943 6730514 6825051 6925300 
2304.680 7032271 7146646 7269779 7402753 7545714 7698401 7859475 8027056 
2308.537 8199024 8373998 8550800 8728757 8906954 9083534 9255886 9421636 
2312.395 9578474 9726388 9867303 10004940 10144318 10290558 10447031 
2315.770 10615749 10797169 10989573 11190630 11397664 11607215 11815912 
2319.145 12020554 12218272 12407147 12585873 12752762 12905107 13038965 
2322.521 13148786 13229017 13276569 13292591 13283060 13259386 13235849 
2325.896 13226113 13240939 13285452 13358669 13454080 13561134 13668659 
2329.271 13765985 13844928 13900724 13931550 13939316 13928368 13905993 
2332.646 13881155 13861998 13856457 13868703 13899800 13947528 14008128 
2336.021 14077224 14151569 14229281 14309644 14392111 14475862 14558600 
2339.397 14637756 14710689 14775954 14832899 14881860 14921775 14949210 
2342.772 14956960 14932714 14860019 14722617 14505975 14204904 13826901 
2346.147 13395949 12948732 12531132 12192577 11973685 11904207 11998140 
2349.522 12252046 12646385 13147795 13718003 14315260 14903943 15459537 
2352.898 15968641 16427653 16838410 17204876 17530836 17818722 18071632 
2356.273 18293414 18488476 18661214 18814538 18949124 19064984 19162106 
2359.648 19241518 19306082 19358184 19398928 19426472 19436384 19423528 
2363.023 19384444 19319798 19234590 19137070 19035486 18935658 18838690 
2366.399 18742296 18640910 18528898 18402324 18258786 18097160 17916878 
2369.774 17717100 17496408 17254726 16992780 16712638 16417846 16111253 
2373.149 15794704 15468773 15133067 14787438 14433077 14073219 13711916 
2376.524 13354296 13004583 12665147 12337907 12024369 11725831 11445255 
2379.900 11185871 10950936 10742518 10561222 10405863 10274307 10164430 
2383.275 10074284 10002431 9947643 9907912 9880522 9862354 9850050 9841373 
2387.132 9835443 9831917 9831103 9832765 9835679 9837544 9836595 9831103 
2390.990 9820800 9806261 9789079 9769966 9749736 9728591 9706804 9685729 
2394.847 9667637 9655033 9650697 9656084 9670821 9693217 9721001 9751802 
2398.705 9785080 9821139 9861371 9907335 9960152 10019859 10086154 10158326 
2402.562 10235733 10317770 10404064 10493566 10585361 10678569 10773120 
2405.937 10869663 10970407 11077224 11192262 11316682 11450154 11591459 
2409.313 11739107 11891914 12048964 12209821 12373498 12538362 12702299 
2412.688 12862852 13017591 13165453 13305916 13438530 13562673 13676353 
2416.063 13776485 13860356 13925459 13971617 14000702 14016580 14023767 
2419.438 14026710 14028455 14030714 14034273 14039235 14045806 14054362 
2422.813 14065313 14078936 14095398 14114840 14137842 14165946 14201173 
2426.189 14245818 14301939 14370363 14451300 14544073 14648346 14764025 
2429.564 14891771 15032759 15187553 15356339 15537999 15730418 15931312 
2432.939 16139176 16352573 16571138 16794770 17024032 17259242 17501272 
2436.314 17751168 18010360 18279728 18559466 18848586 19145346 19447436 
2439.690 19753100 20062000 20375180 20694634 21022738 21360768 21708464 
2443.065 22063830 22424164 22786784 23149814 23511782 23872688 24232038 
2446.440 24589932 24946048 25300562 25654206 26007856 26362394 26718312 
2449.815 27074770 27430038 27781886 28127906 28466878 28798326 29122266 
2453.191 29438614 29746640 30044232 30328634 30597468 30848080 31079618 
2456.566 31291586 31483776 31655702 31806234 31933494 32035354 32110308 
2459.941 32156508 32172568 32157690 32110556 32030612 31918730 31777394 
2463.316 31611368 31427100 31232584 31034952 30840432 30653716 30477460 
2466.692 30313780 30165542 30035604 29928600 29849198 29801820 29789824 
2470.067 29814878 29877094 29974962 30106196 30267808 30455814 30666164 
2473.442 30894010 31134396 31382718 31635318 31888954 32141168 32389816 
2476.817 32632784 32867990 33093132 33306160 33505648 33689336 33855368 
2480.193 34000856 34122312 34216120 34279616 34310844 34310200 34279792 
2483.568 34223432 34145392 34050556 33943708 33828680 33709028 33587548 
2486.943 33465348 33342722 33218480 33090450 32956346 32814744 32665078 
2490.318 32508426 32346230 32179668 32008034 31828624 31637348 31428880 
2493.694 31199152 30945634 30668332 30369708 30052540 29720668 29376604 
2497.069 29022042 28657612 28283658 27900484 27508998 27110846 26708024 
2500.444 26302968 25898568 25497042 25101012 24711866 24330532 23956748 
2503.819 23589964 23229468 22875312 22529054 22193532 21872068 21567834 
2507.195 21282466 21015366 20764316 20525846 20297054 20076400 19864078 
2510.570 19661704 19471900 19296140 19135234 18988374 18854400 18731538 
2513.945 18619156 18516898 18424414 18341592 18267736 18201598 18143038 
2517.320 18092116 18050252 18019444 18001656 17997478 18006422 18026144 
2520.696 18054154 18087868 18125728 18167152 18212482 18262312 18316224 
2524.071 18373738 18433922 18495460 18557080 18617772 18676120 18729948 
2527.446 18777274 18815472 18842774 18857724 18860596 18851528 18831770 
2530.821 18801772 18761706 18711648 18651806 18583224 18507700 18427974 
2534.197 18346638 18265904 18187294 18111358 18038612 17969572 17904828 
2537.572 17845270 17791518 17743402 17700258 17660846 17623992 17589142 
2540.947 17556608 17526594 17499512 17475020 17451600 17427352 17400242 
2544.322 17369206 17333996 17296238 17257828 17220630 17186466 17155822 
2547.698 17128628 17104330 17081720 17059630 17036990 17012662 16986028 
2551.073 16957154 16927146 16897862 16871648 16850500 16835240 16825526 
2554.448 16819672 16814952 16809650 16802312 16792946 16782268 16771454 
2557.823 16760401 16748657 16734572 16716357 16692460 16662126 16625322 
2561.198 16582565 16534755 16482163 16425863 16366508 16305717 16245071 
2564.574 16186668 16131919 16081715 16035918 15993942 15955063 15919074 
2567.949 15886184 15857350 15833706 15815768 15804017 15798483 15799068 
2571.324 15805494 15817864 15835974 15858896 15885770 15914677 15944064 
2574.699 15973076 16001780 16030865 16061945 16095951 16133398 16173599 
2578.075 16215559 16257901 16300384 16343249 16387394 16434157 16484331 
2581.450 16538644 16596681 16658511 16723795 16792222 16864242 16939480 
2584.825 17017830 17098436 17180502 17263276 17346582 17430042 17514036 
2588.200 17598598 17683554 17768426 17852796 17936180 18018510 18100164 
2591.576 18181284 18261966 18342318 18422306 18502168 18582324 18663394 
2594.951 18745792 18829486 18913232 18994950 19072808 19145172 19211974 
2598.326 19274422 19335146 19397298 19463168 19534384 19610988 19692456 
2601.701 19777826 19866332 19958154 20053358 20152752 20256678 20365458 
2605.077 20479092 20597864 20722158 20852224 20988242 21129450 21275020 
2608.452 21423490 21573546 21724766 21876948 22030610 22185930 22342702 
2611.827 22499740 22655510 22807772 22955406 23097290 23233558 23364518 
2615.202 23490238 23610640 23725372 23833762 23935600 24031332 24121516 
2618.578 24206814 24287922 24364842 24437324 24505400 24569278 24629766 
2621.953 24688228 24745784 24803314 24860780 24917764 24973704 25028632 
2625.328 25083108 25138296 25195490 25255714 25319142 25385004 25452000 
2628.703 25518934 25585070 25650586 25716004 25782136 25849474 25917878 
2632.079 25986326 26053696 26118508 26180126 26238094 26292828 26344790 
2635.454 26395032 26444328 26493386 26543080 26593698 26645414 26698474 
2638.829 26752844 26808774 26866648 26926998 26990246 27057172 27127706 
2642.204 27201602 27278404 27357408 27437908 27520012 27603896 27689634 
2645.580 27778144 27869356 27963274 28059862 28159088 28260848 28365390 
2648.955 28472822 28583148 28696194 28811356 28928392 29047228 29168120 
2652.330 29291774 29418972 29550144 29685118 29823538 29964454 30107332 
2655.705 30252106 30399060 30548658 30701508 30857580 31016624 31177650 
2659.081 31339378 31501092 31662152 31822276 31981640 32140310 32298222 
2662.456 32455366 32611746 32767218 32921958 33076328 33230714 33384978 
2665.831 33539224 33692984 33846124 33998596 34150412 34301952 34453368 
2669.206 34605300 34758048 34911916 35067640 35225572 35386444 35550644 
2672.582 35718036 35888444 36061080 36234972 36409584 36584548 36759444 
2675.957 36934484 37109484 37284376 37459080 37633460 37807876 37982612 
2679.332 38158976 38338272 38521620 38710304 38905300 39107344 39317136 
2682.707 39535376 39762516 39999036 40245208 40501124 40766508 41041124 
2686.083 41324580 41616248 41915708 42222088 42534932 42853376 43177148 
2689.458 43506208 43840872 44181740 44529184 44883448 45244292 45610952 
2692.833 45982936 46359512 46740808 47127272 47519780 47919112 48325852 
2696.208 48740236 49161996 49590700 50025888 50466796 50912808 51363236 
2699.583 51817040 52273712 52732660 53193592 53656740 54121956 54588612 
2702.959 55055880 55521660 55983828 56440224 56888868 57328636 57758632 
2706.334 58178140 58586116 58981188 59361688 59725948 60073012 60401996 
2709.709 60713320 61007364 61284860 61545924 61791176 62020780 62235364 
2713.084 62435020 62620720 62791952 62948236 63088208 63209840 63311024 
2716.460 63390352 63446788 63480192 63491000 63480080 63448744 63398824 
2719.835 63333072 63255256 63169828 63081928 62996880 62919272 62853448 
2723.210 62802052 62767984 62753128 62758676 62785900 62835372 62907212 
2726.585 63001208 63116984 63254260 63412972 63593180 63794612 64016260 
2729.961 64256376 64512276 64780676 65058468 65343416 65633336 65927380 
2733.336 66224472 66523240 66821940 67118296 67410096 67695392 67973008 
2736.711 68242384 68503560 68756304 69000728 69236904 69464768 69685008 
2740.086 69898464 70106584 70310704 70512280 70713088 70914376 71118176 
2743.462 71327072 71543728 71770968 72011152 72265592 72534520 72817016 
2746.837 73111216 73414800 73723976 74035016 74342872 74641656 74925712 
2750.212 75189472 75428952 75641872 75828136 75989296 76127192 76244232 
2753.587 76341752 76420328 76479752 76519504 76538552 76535744 76509584 
2756.963 76457976 76378416 76268240 76125296 75947784 75735312 75487968 
2760.338 75206568 74892760 74547776 74173544 73772000 73345712 72897896 
2763.713 72432216 71953312 71466144 70975864 70488120 70008464 69542032 
2767.088 69093992 68668000 68267240 67893856 67549392 67235024 66952080 
2770.464 66701272 66483848 66300236 66150032 66031748 65942608 65879440 
2773.839 65837756 65813540 65802672 65800972 65804444 65809384 65811464 
2777.214 65806716 65791184 65760612 65711728 65641084 65545820 65423996 
2780.589 65274836 65099084 64898932 64678484 64442820 64197680 63948952 
2783.965 63701636 63459752 63226164 63002160 62787892 62581680 62380660 
2787.340 62181184 61978396 61767988 61546152 61310424 61060216 60796320 
2790.715 60520700 60235892 59944648 59649764 59353752 59059644 58770672 
2794.090 58490416 58223112 57972936 57743116 57536792 57356164 57201992 
2797.466 57074856 56974696 56900844 56852800 56830176 56832176 56858540 
2800.841 56908472 56980964 57074364 57186612 57314344 57454412 57603484 
2804.216 57758596 57917768 58079884 58244064 58410204 58577316 58743812 
2807.591 58907332 59064960 59213336 59348964 59468560 59568844 59647144 
2810.967 59700664 59727276 59725604 59695076 59635968 59549272 59436644 
2814.342 59300000 59141496 58964716 58773324 58572540 58369156 58170796 
2817.717 57985512 57821200 57685480 57583928 57521584 57501652 57525784 
2821.092 57594936 57708376 57864464 58060188 58291316 58553124 58839568 
2824.468 59144076 59459972 59779784 60096408 60403024 60693048 60961380 
2827.843 61203900 61417772 61601512 61754696 61878204 61973656 62043944 
2831.218 62093024 62125556 62147120 62163136 62178124 62196132 62220144 
2834.593 62252460 62295404 62351668 62424268 62517084 62634268 62780232 
2837.969 62959836 63178144 63441420 63757272 64134612 64583704 65116360 
2841.344 65744572 66481152 67340176 68335768 69484864 70805864 72317416 
2844.719 74037608 75979792 78146936 80526280 83082864 85758568 88462064 
2848.094 91080776 93485560 95534808 97102360 98086496 98421896 98092272 
2851.469 97127968 95602648 93614936 91283720 88734064 86077584 83418472 
2854.845 80842832 78412424 76172360 74147176 72343480 70754112 69361352 
2858.220 68142248 67069844 66118592 65265976 64490944 63776804 63109472 
2861.595 62476836 61869112 61279328 60703032 60138496 59587008 59052092 
2864.970 58538984 58054356 57606252 57201692 56848000 56551816 56317540 
2868.346 56148160 56044176 56003616 56021444 56090056 56199520 56336700 
2871.721 56487544 56637460 56772584 56882412 56960108 57003976 57017084 
2875.096 57005712 56978964 56945492 56912968 56887472 56872476 56870360 
2878.471 56882068 56907908 56948100 57002388 57070396 57151912 57246408 
2881.847 57353896 57474268 57607156 57752120 57907892 58072460 58243988 
2885.222 58420328 58599992 58782468 58967940 59157328 59351776 59552728 
2888.597 59761688 59980328 60211228 60457328 60722692 61012284 61331600 
2891.972 61688120 62090424 62548160 63073500 63679152 64376912 65177916 
2895.348 66087992 67106584 68223008 69416832 70655104 71891848 73075888 
2898.723 74150400 75060232 75763672 76233448 76464496 76473432 76297000 
2902.098 75986736 75597152 75185456 74802328 74486848 74271392 74178536 
2905.473 74223512 74417856 74769552 75284512 75967752 76823896 77858216 
2908.849 79076912 80485952 82091112 83894000 85890344 88066888 90398080 
2912.224 92848856 95369536 97898904 100371744 102713608 104851056 106720520 
2915.599 108267600 109457864 110278872 110740200 110869352 110705008 
2918.492 110293096 109674792 108883232 107941040 106858016 105634696 
2921.385 104266000 102746768 101076584 99264384 97329608 95303216 93225736 
2924.760 91139176 89087816 87111208 85239184 83493928 81887544 80422632 
2928.136 79094640 77893336 76805272 75814720 74906224 74066104 73282000 
2931.511 72545016 71848560 71187856 70559912 69962336 69393656 68852776 
2934.886 68339176 67852360 67391632 66955404 66540272 66141704 65753520 
2938.261 65369532 64985388 64598584 64210428 63825012 63449240 63091388 
2941.637 62758944 62458816 62194908 61968344 61776200 61612320 61466404 
2945.012 61325116 61174644 61001760 60796284 60554332 60278332 59978124 
2948.387 59667780 59365256 59088800 58853264 58670340 58545960 58480864 
2951.762 58470324 58505848 58576144 58667308 58765888 58859372 58936896 
2955.138 58991204 59017472 59013600 58979476 58916024 58825452 58710508 
2958.513 58574968 58423740 58262292 58096436 57931328 57771200 57618808 
2961.888 57475968 57343456 57222100 57112608 57015952 56932764 56863824 
2965.263 56808572 56766316 56736224 56717004 56708248 56709528 56720668 
2968.639 56741660 56772360 56812652 56862848 56923696 56996380 57082716 
2972.014 57184188 57302132 57436296 57585288 57745952 57912888 58079200 
2975.389 58235504 58371168 58475024 58535724 58544140 58494324 58384392 
2978.764 58217128 57999216 57740996 57454108 57151196 56844752 56545472 
2982.140 56262276 56001808 55766772 55556676 55366972 55190632 55017404 
2985.515 54837408 54641816 54424300 54182048 53915584 53627944 53323084 
2988.890 53004168 52672956 52328280 51966696 51583476 51173752 50734580 
2992.265 50266280 49772584 49261040 48741944 48225540 47721216 47235092 
2995.641 46768888 46320616 45884668 45454532 45023456 44586828 44143112 
2999.016 43693624 43242256 42793880 42353788 41926140 41512700 41113964 
3002.391 40728076 40352604 39985048 39623612 39267952 38919000 38578544 
3005.766 38248848 37931844 37628548 37339292 37063396 36799944 36547784 
3009.142 36305860 36073248 35849040 35631780 35419876 35211524 35005144 
3012.517 34799612 34594752 34391248 34190056 33992544 33799776 33612572 
3015.892 33431352 33256468 33088162 32926642 32772258 32624890 32484214 
3019.267 32349442 32219776 32094218 31972616 31854934 31741888 31634354 
3022.643 31533118 31438854 31351984 31273316 31203460 31143902 31096204 
3026.018 31061928 31042780 31039116 31050398 31074564 31107950 31145324 
3029.393 31179928 31204314 31211150 31193526 31146856 31068690 30959866 
3032.768 30823466 30664528 30488978 30302946 30111558 29919618 29730850 
3036.144 29548192 29374298 29210856 29058708 28917696 28786748 28664090 
3039.519 28547620 28435430 28326026 28218804 28113484 28010488 27910624 
3042.894 27814880 27724314 27639770 27562128 27491524 27427214 27368278 
3046.269 27313228 27260622 27209928 27161284 27115116 27072548 27034006 
3049.645 26999202 26966940 26935388 26903062 26869186 26833938 26798448 
3053.020 26764228 26732724 26704322 26679094 26656194 26634668 26614412 
3056.395 26595424 26578480 26564532 26554528 26549034 26548152 26551956 
3059.770 26560130 26572352 26588450 26608176 26631532 26658308 26688748 
3063.146 26723386 26762888 26807998 26858964 26915574 26976638 27040352 
3066.521 27104922 27168232 27228660 27284932 27335882 27380700 27418250 
3069.896 27447544 27468122 27479946 27484076 27482100 27475888 27468088 
3073.271 27460496 27454816 27452274 27453508 27458980 27468722 27482206 
3076.646 27498548 27516412 27534132 27550090 27563152 27572650 27578230 
3080.022 27580418 27579500 27575934 27570320 27563046 27554892 27546736 
3083.397 27539358 27533850 27530710 27530356 27533286 27539676 27549878 
3086.772 27564284 27583206 27606438 27633486 27663326 27694860 27727034 
3090.147 27760024 27794428 27831412 27872500 27918680 27970130 28026284 
3093.523 28085594 28146502 28207880 28269298 28331260 28395350 28463128 
3096.898 28536404 28615778 28700936 28790290 28881220 28970504 29055448 
3100.273 29134172 29206180 29272456 29335550 29397982 29462300 29530212 
3103.648 29602000 29677382 29755122 29834434 29914650 29995340 30076404 
3107.024 30157622 30238288 30317726 30395114 30470280 30543682 30616454 
3110.399 30690024 30765880 30845378 30929018 31016980 31109090 31205240 
3113.774 31304404 31405550 31507182 31607450 31704672 31797640 31886100 
3117.149 31970654 32052264 32131962 32210034 32285728 32357830 32425016 
3120.525 32487038 32545172 32602068 32661506 32726702 32800342 32882716 
3123.900 32972396 33066496 33161830 33255648 33345942 33432174 33514954 
3127.275 33595604 33675228 33755544 33837596 33921888 34008092 34095824 
3130.650 34183748 34270832 34356028 34439376 34521600 34604264 34689132 
3134.026 34777464 34869800 34965136 35061860 35158028 35252096 35343060 
3137.401 35431128 35517416 35603508 35690804 35780492 35873040 35968420 
3140.776 36066156 36165572 36266272 36367568 36469396 36571968 36675504 
3144.151 36780616 36887876 36997980 37110924 37226824 37345068 37465184 
3147.527 37586672 37708664 37830504 37951336 38070136 38185856 38297916 
3150.902 38405884 38509928 38611136 38711064 38811272 38913488 39018452 
3154.277 39126704 39237740 39350692 39464432 39577552 39689140 39798900 
3157.652 39906692 40013352 40120000 40227872 40337952 40450972 40566856 
3161.028 40685356 40806036 40928460 41052740 41178948 41307420 41437748 
3164.403 41569140 41699768 41827880 41951868 42070752 42184512 42293920 
3167.778 42400144 42504016 42606124 42706168 42804156 42900408 42995112 
3171.153 43089796 43185636 43283692 43384260 43487052 43590784 43694320 
3174.529 43795828 43894280 43988280 44077056 44159876 44236836 44308824 
3177.904 44377516 44445784 44515856 44590020 44668896 44751640 44836384 
3181.279 44920592 45002692 45081824 45158876 45235392 45313204 45393756 
3184.654 45477672 45564548 45653352 45743648 45834220 45924668 46014724 
3188.030 46104024 46192132 46278852 46364340 46449476 46535252 46623004 
3191.405 46713760 46807820 46904484 47003164 47102160 47200332 47296492 
3194.780 47389684 47479268 47564324 47644704 47720624 47793000 47863284 
3198.155 47933692 48005700 48080796 48159048 48240276 48323632 48408076 
3201.531 48493056 48578240 48663400 48748136 48832072 48915128 48997056 
3204.906 49078664 49160512 49243560 49327664 49412156 49494960 49574020 
3208.281 49648088 49716852 49781576 49844972 49909832 49977780 50049088 
3211.656 50122524 50196200 50268512 50338940 50408072 50477592 50549536 
3215.031 50624700 50702924 50783068 50863448 50942576 51019448 51093948 
3218.407 51166180 51236788 51306108 51374760 51443348 51512776 51584072 
3221.782 51657808 51734020 51811888 51890368 51967968 52044460 52120140 
3225.157 52196548 52275208 52357472 52443228 52531396 52619916 52707036 
3228.532 52791252 52872564 52951688 53030072 53108960 53188684 53269328 
3231.908 53349980 53429900 53508296 53584912 53659700 53733304 53805980 
3235.283 53878856 53953020 54029560 54109236 54192448 54278192 54365040 
3238.658 54450632 54533384 54612208 54687136 54759520 54831320 54903616 
3242.033 54977428 55052608 55128292 55203984 55279584 55355680 55433672 
3245.409 55514804 55599832 55688716 55780900 55875096 55970220 56065324 
3248.784 56159812 56253188 56345300 56435888 56524828 56612732 56699712 
3252.159 56786256 56872400 56957428 57040548 57120584 57197116 57270376 
3255.534 57342136 57414736 57490152 57569628 57653240 57739180 57825628 
3258.910 57910428 57992324 58071476 58149008 58225880 58303104 58380792 
3262.285 58457664 58532348 58603296 58669432 58730536 58787288 58840740 
3265.660 58892840 58945400 59000088 59058468 59121524 59189492 59261716 
3269.035 59336884 59413428 59489532 59564056 59636648 59707360 59776820 
3272.411 59845724 59914524 59984212 60055052 60127692 60202816 60280808 
3275.786 60361636 60445140 60530604 60617460 60705508 60794760 60885896 
3279.161 60979872 61076920 61177120 61280048 61384840 61491408 61600024 
3282.536 61711724 61828076 61950228 62078688 62213528 62354152 62499832 
3285.912 62650496 62806500 62968456 63136832 63311488 63491544 63675396 
3289.287 63861696 64049320 64238168 64428984 64623116 64821640 65025800 
3292.662 65236324 65453896 65679124 65912104 66153468 66402688 66659084 
3296.037 66921732 67189656 67462456 67740504 68024816 68316560 68616352 
3299.413 68924072 69239000 69560032 69886632 70219128 70558656 70906576 
3302.788 71264136 71631448 72007792 72391896 72782336 73178704 73581160 
3306.163 73990856 74408848 74835632 75271512 75715704 76168056 76628552 
3309.538 77097128 77573856 78058096 78548544 79042960 79539624 80038088 
3312.914 80538960 81044960 81558264 82081392 82614680 83156928 83705968 
3316.289 84259200 84815752 85375760 85940984 86512920 87092784 87680312 
3319.664 88273760 88870648 89468736 90066336 90662520 91256776 91848864 
3323.039 92438152 93024176 93607008 94186952 94764840 95341256 95916096 
3326.415 96487760 97053584 97610872 98156560 98689136 99207920 99713192 
3329.790 100204448 100680920 101140984 101582352 102003144 102402184 
3332.683 102779056 103133352 103463632 103768032 104043560 104287152 
3335.576 104496952 104672616 104815960 104929136 105014448 105072776 
3338.469 105103544 105105056 105075184 105012592 104916736 104787784 
3341.362 104626192 104431800 104204128 103942144 103644384 103310272 
3344.255 102939288 102531144 102085576 101601696 101079256 100518432 
3347.148 99921000 99289792 98628888 97942040 97232688 96502448 95752192 
3350.523 94982376 94193784 93388224 92568736 91738344 90900192 90056344 
3353.899 89208152 88356384 87502312 86648208 85796912 84952688 84118944 
3357.274 83298920 82494704 81707496 80937760 80185760 79451768 78736176 
3360.649 78038936 77359792 76698240 76053608 75425096 74812528 74215960 
3364.024 73635792 73072288 72525952 71996608 71484312 70988776 70510016 
3367.400 70047472 69600712 69168552 68749784 68342936 67946584 67559568 
3370.775 67181336 66810736 66446392 66086412 65728268 65369688 65008632 
3374.150 64644068 64275936 63904500 63529736 63151092 62767328 62376568 
3377.525 61977248 61568676 61150992 60724980 60291696 59851848 59405112 
3380.901 58950712 58487952 58016144 57535844 57047840 56553660 56054580 
3384.276 55551668 55045124 54535336 54022732 53508560 52994396 52482784 
3387.651 51975920 51476140 50984420 50501448 50026780 49558872 49095916 
3391.026 48635864 48177260 47719624 47263424 46810696 46364228 45926212 
3394.402 45498056 45079248 44667316 44259436 43851868 43442560 43030816 
3397.777 42618224 42206968 41800008 41399404 41005796 40618808 40237248 
3401.152 39859548 39484608 39111512 38739644 38368748 37998524 37629124 
3404.527 37261592 36897292 36537836 36185304 35840296 35502748 35171140 
3407.903 34843156 34516180 34188516 33859916 33531062 33203640 32880392 
3411.278 32562994 32253038 31951540 31658198 31372820 31095066 30824142 
3414.653 30559430 30301062 30048848 29803310 29565394 29335444 29113340 
3418.028 28898076 28687168 28478166 28267920 28054418 27836960 27616468 
3421.404 27394604 27173242 26954074 26737516 26523286 26310464 26098628 
3424.779 25887738 25678706 25472974 25271834 25076052 24885728 24700152 
3428.154 24518160 24338594 24160222 23982588 23805132 23627992 23451834 
3431.529 23277324 23105678 22938394 22776518 22620846 22471266 22327006 
3434.905 22186454 22047830 21909390 21769880 21628672 21485874 21342392 
3438.280 21199340 21058424 20920922 20787742 20659190 20534462 20411436 
3441.655 20288654 20164032 20037016 19908408 19780392 19654910 19533414 
3445.030 19415108 19297006 19174468 19042412 18897276 18738146 18568146 
3448.406 18391884 18216216 18046970 17888220 17741398 17606086 17480332 
3451.781 17361584 17247348 17135246 17023482 16910402 16794908 16676277 
3455.156 16555235 16432539 16310327 16191242 16076833 15968401 15866112 
3458.531 15768796 15674217 15580446 15484327 15382805 15273860 15156088 
3461.906 15029500 14896297 14759809 14624940 14495662 14375192 14264478 
3465.282 14161941 14064561 13968434 13870481 13768481 13661923 13551904 
3468.657 13440102 13328567 13219077 13113132 13012026 12916269 12825754 
3472.032 12739455 12655220 12570217 12481650 12387782 12288243 12184807 
3475.407 12080579 11979816 11885716 11800659 11725660 11659831 11601497 
3478.783 11548276 11497340 11445663 11390148 11328110 11257477 11177949 
3482.158 11090719 10999224 10907886 10820676 10740887 10669264 10604646 
3485.533 10544180 10484809 10423409 10358387 10289609 10218229 10146183 
3488.908 10075301 10007991 9945371 9888454 9837442 9791655 9750345 9712733 
3492.766 9678106 9646394 9618209 9594462 9575391 9560522 9548870 9538337 
3496.623 9527905 9517575 9509616 9508363 9518286 9543451 9585554 9642838 
3500.481 9710260 9780844 9846831 9901606 9940760 9963306 9971137 9968831 
3504.338 9962628 9960051 9968560 9994091 10040950 10109723 10197672 10298091 
3508.196 10403080 10503648 10593205 10669604 10734401 10793161 10852506 
3511.571 10919063 10997185 11088169 11190698 11301753 11417836 11535482 
3514.946 11652343 11766716 11878360 11986968 12093014 12197246 12300037 
3518.321 12401726 12502383 12602074 12700457 12796986 12890498 12978364 
3521.697 13056891 13120200 13161900 13175391 13156812 13105107 13023293 
3525.072 12916064 12789717 12648602 12494574 12327033 12144394 11944938 
3528.447 11729337 11500573 11263292 11022402 10782087 10544520 10311526 
3531.822 10084423 9865269 9656998 9461933 9280697 9110771 8946459 8779638 
3535.680 8602811 8411055 8204493 7987804 7769266 7558222 7361602 7183566 
3539.537 7024998 6884665 6760869 6652786 6560944 6486676 6430682 6391776 
3543.395 6365851 6345442 6320092 6278204 6208254 6102022 5955807 5772335 
3547.252 5560245 5333902 5109788 4902411 4723537 4577618 4462879 4371465 
3551.109 4292586 4214624 4128112 4028173 3914550 3790828 3662463 3535205 
3554.967 3414530 3304372 3207661 3126189 3060114 3008663 2968828 2936802 
3558.824 2907981 2877995 2844575 2807523 2768806 2733994 2710121 2705520 
3562.682 2729026 2788514 2888235 3027147 3195377 3374791 3536575 3645923 
3566.539 3671251 3590561 3400838 3119147 2779110 2419914 2075298 1770044 
3570.396 1516339 1314592 1159149 1040129 947274 871437 805904 745957 688341 
3574.736 631828 576152 522009 471355 426379 388537 358326 334351 312931 
3579.076 290384 262998 228950 188739 146477 108626 83804 82180 113432 184861 
3583.897 300464 458452 650079 857593 1055939 1215531 1306117 1307281 1213006 
3588.237 1036176 803248 549477 308786 105511 -45358 -139670 -182265 -184318 
3592.577 -160306 -126089 -97171 -85775 -99920 -142386 -210449 -297640 
3596.434 -393917 -488717 -572907 -640108 -688277 -719968 -742131 -762506 
3600.292 -789793 -829215 -881100 -940980 -999860 -1047163 -1072218 -1066500 
3604.149 -1025744 -949709 -842906 -713650 -574296 -440260 -327439 -250752 
3608.006 -220649 -238598 -297210 -381867 -474385 -557883 -623234 -668395 
3611.864 -699393 -726286 -759132 -804047 -859242 -915753 -960553 -981612 
3615.721 -970834 -927689 -859606 -781260 -712062 -671538 -676136 -733597 
3619.579 -842079 -989182 -1157683 -1328595 -1484878 -1614697 -1710221 
3622.954 -1767248 -1783450 -1757315 -1687217 -1571120 -1407636 -1198195 
3626.329 -948320 -673953 -404047 -178224 -44728 -40123 -172428 -413216 
3630.187 -710342 -1010339 -1272238 -1478109 -1628034 -1734676 -1816018 
3633.562 -1890153 -1969487 -2058008 -2152247 -2244191 -2326757 -2396060 
3636.937 -2452008 -2497934 -2537367 -2571393 -2599028 -2616780 -2621424 
3640.312 -2612301 -2592374 -2566749 -2540101 -2513813 -2483208 -2438335 
3643.688 -2365216 -2250652 -2086038 -1871250 -1614004 -1331898 -1049543 
3647.063 -792439 -585315 -447145 -388951 -414805 -522375 -703362 -943030 
3650.920 -1219375 -1505747 -1773716 -1999172 -2165699 -2265782 -2303488 
3654.295 -2291722 -2254278 -2218380 -2210271 -2247092 -2330250 -2445913 
3657.671 -2571229 -2685115 -2772930 -2829422 -2858390 -2868133 -2868824 
3661.046 -2867804 -2868561 -2870931 -2872215 -2869022 -2858785 -2839232 
3664.421 -2807300 -2757620 -2683172 -2574885 -2425550 -2231698 -1996171 
3667.796 -1728010 -1441223 -1150347 -864831 -583893 -293137 30782 416761 
3671.654 892022 1476208 2182214 3009698 3939893 4914609 5827876 6537868 
3675.511 6893789 6806977 6286541 5425183 4348439 3172713 1994470 881298 
3679.369 -115059 -956585 -1625690 -2123826 -2471743 -2700493 -2844630 
3682.744 -2933203 -2984771 -3009418 -3008990 -2983093 -2930537 -2851839 
3686.119 -2750212 -2631074 -2502843 -2376123 -2264134 -2179644 -2132662 
3689.494 -2127947 -2163753 -2234005 -2329228 -2439521 -2555121 -2667299 
3692.870 -2769341 -2857040 -2928694 -2984376 -3026232 -3057062 -3079270 
3696.245 -3094536 -3102662 -3101444 -3087594 -3058082 -3011722 -2950645 
3699.620 -2881661 -2814345 -2761505 -2733947 -2737602 -2772173 -2829620 
3702.995 -2897987 -2963842 -3016953 -3050219 -3060320 -3046731 -3009978 
3706.371 -2951468 -2872577 -2775300 -2662985 -2540661 -2415731 -2297654 
3709.746 -2196656 -2123562 -2087752 -2095073 -2146477 -2237763 -2359086 
3713.121 -2496814 -2637265 -2768090 -2879357 -2965126 -3022481 -3050910 
3716.496 -3052325 -3030345 -2989576 -2934585 -2869647 -2797983 -2721632 
3719.872 -2642106 -2560787 -2479156 -2399058 -2321846 -2248279 -2177798 
3723.247 -2110208 -2046696 -1990993 -1950356 -1934556 -1953292 -2012431 
3726.622 -2109186 -2231171 -2359514 -2471545 -2547413 -2575412 -2551630 
3729.997 -2479452 -2366567 -2222204 -2053127 -1862738 -1652163 -1424611 
3733.373 -1190199 -970471 -796606 -703991 -723541 -866054 -1116373 -1433726 
3737.230 -1767413 -2072485 -2318319 -2493685 -2600049 -2645136 -2637364 
3740.605 -2582987 -2486140 -2349727 -2181293 -1996632 -1820143 -1687448 
3743.980 -1633183 -1673717 -1796220 -1961967 -2127420 -2258992 -2342147 
3747.356 -2376387 -2369796 -2333908 -2282097 -2228764 -2186601 -2167413 
3750.731 -2180732 -2231797 -2320264 -2438895 -2574391 -2708988 -2825472 
3754.106 -2912469 -2964039 -2981283 -2970292 -2939522 -2898842 -2857402 
3757.481 -2823826 -2805588 -2809144 -2839331 -2897756 -2981810 -3082462 
3760.857 -3186248 -3276888 -3340121 -3366951 -3355904 -3312633 -3248277 
3764.232 -3177104 -3113551 -3066670 -3039591 -3028207 -3025245 -3022876 
3767.607 -3017842 -3011722 -3011425 -3025772 -3061899 -3122400 -3203450 
3770.982 -3295797 -3388321 -3472050 -3541433 -3594638 -3633445 -3659764 
3774.358 -3675140 -3679181 -3669489 -3642777 -3597661 -3535517 -3462221 
3777.733 -3387434 -3322958 -3280275 -3265576 -3278631 -3311942 -3354062 
3781.108 -3392266 -3417942 -3427673 -3423826 -3412222 -3401011 -3397625 
3784.483 -3406304 -3427475 -3458277 -3493776 -3529569 -3562368 -3591188 
3787.859 -3616753 -3640575 -3663673 -3686113 -3706844 -3723434 -3733223 
3791.234 -3733650 -3722514 -3698729 -3661932 -3612843 -3552377 -3482667 
3794.609 -3406929 -3329961 -3257518 -3194569 -3144243 -3105951 -3074993 
3797.984 -3043737 -3005239 -2954595 -2891865 -2823563 -2762394 -2724431 
3801.360 -2722521 -2760550 -2829883 -2914345 -2994742 -3057326 -3096345 
3804.735 -3113419 -3116742 -3118749 -3133026 -3168881 -3228841 -3306484 
3808.110 -3390064 -3467382 -3529372 -3571832 -3593948 -3596774 -3580968 
3811.485 -3546626 -3492889 -3418829 -3325292 -3216310 -3099536 -2987437 
3814.861 -2894893 -2833537 -2808288 -2811711 -2827118 -2832385 -2811349 
3818.236 -2756007 -2669111 -2563422 -2459652 -2383900 -2358789 -2396323 
3821.611 -2490687 -2621095 -2759629 -2881760 -2974603 -3035116 -3068479 
3824.986 -3084567 -3094996 -3108879 -3131447 -3161677 -3193221 -3217362 
3828.362 -3225453 -3211640 -3175229 -3119999 -3053048 -2983126 -2917735 
3831.737 -2860266 -2810230 -2763053 -2713302 -2656761 -2592967 -2524157 
3835.112 -2455632 -2393226 -2340236 -2297819 -2263771 -2235291 -2210370 
3838.487 -2190425 -2179711 -2184656 -2210667 -2260277 -2332227 -2422782 
3841.863 -2526364 -2636969 -2750607 -2864973 -2978651 -3090160 -3196115 
3845.238 -3290766 -3367510 -3418797 -3438718 -3424024 -3373461 -3287609 
3848.613 -3167729 -3014716 -2829817 -2614738 -2375069 -2122837 -1878409 
3851.988 -1673882 -1546656 -1528563 -1628859 -1824036 -2067241 -2308168 
3855.364 -2515592 -2678430 -2801374 -2894366 -2966574 -3021988 -3059365 
3858.739 -3073875 -3060616 -3017644 -2948111 -2860496 -2764962 -2672931 
3862.114 -2592342 -2527912 -2482154 -2456851 -2453556 -2472501 -2510387 
3865.489 -2557658 -2598863 -2617669 -2600411 -2541319 -2445583 -2330349 
3868.865 -2222270 -2148851 -2129497 -2165435 -2240071 -2326921 -2402913 
3872.240 -2457938 -2495431 -2528933 -2575445 -2648528 -2749784 -2869022 
3875.615 -2985298 -3075816 -3122301 -3113518 -3047850 -2933137 -2786263 
3878.990 -2628867 -2487458 -2386009 -2338094 -2343762 -2387887 -2446572 
3882.365 -2493157 -2508015 -2483636 -2427066 -2359086 -2307905 -2302664 
3885.741 -2358064 -2469173 -2610753 -2748961 -2854144 -2907630 -2905985 
3889.116 -2858587 -2785276 -2709614 -2654818 -2638121 -2666015 -2733881 
3892.491 -2828501 -2933960 -3034294 -3114933 -3165887 -3178123 -3146710 
3895.866 -3069828 -2949658 -2792782 -2609172 -2412238 -2216369 -2034824 
3899.242 -1878871 -1754477 -1663188 -1602219 -1566796 -1552467 -1557650 
3902.617 -1584161 -1637441 -1723587 -1846802 -2005966 -2193919 -2398630 
3905.992 -2605681 -2801473 -2976512 -3124769 -3244298 -3336274 -3403148 
3909.367 -3448514 -3475731 -3487958 -3488222 -3478098 -3458080 -3426653 
3912.743 -3380365 -3314902 -3227295 -3117170 -2989247 -2853321 -2723345 
3916.118 -2614376 -2537893 -2500306 -2499680 -2528868 -2577783 -2635915 
3919.493 -2696113 -2752418 -2799827 -2833998 -2850753 -2847560 -2826032 
3922.868 -2792650 -2758542 -2737272 -2741355 -2776683 -2840845 -2922441 
3926.244 -3005535 -3073480 -3112794 -3116841 -3084830 -3021757 -2934914 
3929.619 -2834755 -2732597 -2640130 -2569944 -2533348 -2538157 -2587072 
3932.994 -2675433 -2792222 -2921157 -3046632 -3155460 -3239990 -3298559 
3936.369 -3334104 -3352188 -3357745 -3353438 -3339004 -3311975 -3269226 
3939.745 -3209140 -3134111 -3050647 -2969766 -2903418 -2863656 -2856974 
3943.120 -2883208 -2933631 -2993887 -3047850 -3081442 -3086147 -3061800 
3946.495 -3015999 -2960880 -2910988 -2879456 -2873696 -2895716 -2941727 
3949.870 -3004844 -3077066 -3150657 -3219895 -3279815 -3326673 -3357975 
3953.246 -3372507 -3371126 -3356430 -3333315 -3307667 -3284485 -3267582 
3956.621 -3258242 -3255052 -3254888 -3254328 -3250119 -3240088 -3224302 
3959.996 -3204437 -3183781 -3166808 -3157762 -3160493 -3176775 -3205621 
3963.371 -3243015 -3283136 -3319209 -3345579 -3358994 -3359093 -3348046 
3966.747 -3329238 -3306780 -3282939 -3259426 -3236504 -3214666 -3194240 
3970.122 -3176248 -3161315 -3149802 -3140756 -3132170 -3122137 -3109800 
3973.497 -3095325 -3080850 -3070190 -3065814 -3069861 -3082462 -3101379 
3976.872 -3123288 -3144605 -3162039 -3173650 -3179045 -3178485 -3173584 
3980.248 -3166282 -3158782 -3153026 -3150657 -3152006 -3156414 -3162762 
3983.623 -3168979 -3173321 -3175229 -3174472 -3171282 -3167104 -3162137 
3986.998 -3156677 -3150723 -3144342 -3138190 -3133289 -3131183 -3132466 
3990.373 -3137039 -3143618 -3150098 -3154473 -3155657 -3154111 -3151644 
3993.749 -3150723 -3153585 -3161348 -3173683 -3189537 -3207199 -3225650 
3997.124 -3244199 -3263011 -3282347 -3301814 -3320820 -3337721 -3351498 
4000.499 -3360770 
##END=
