
##TITLE=Z351_2_d
##JCAMP-DX=5.01  $$ Nicolet v. 1
##DATATYPE=INFRARED SPECTRUM
##ORIGIN=UniL
##OWNER=Nicolet
##LONGDATE=2011/09/13
##TIME=13:44:02
##SPECTROMETER/DATA SYSTEM=Nicolet iS5
##DATA PROCESSING=
Ratio against background
%Transmittance->Absorbance
Truncated
ElementMultiply or ElementDivide
##COMMENTS=
Number of sample scans: 32
Collection length: 51.19 sec
Sample gain: 2.0
Background collected on: Mar Sep 13 11:10:05 2011 (GMT+02:00);
Number of background scans: 32
Background gain: 2.0
Sample spacing:  1.000
Number of scan points: 12415
Resolution points: 8192
Number of FFT points: 65536
Apodization: N-B fort;
Phase correction: Mertz;
Laser frequency: 15798.0 cm-1
Number of rejected sample scans: 0
Number of rejected background scans: 0
Bench serial number: ASB1000141;
##RESOLUTION=4.000
##XUNITS=1/CM
##YUNITS=ABSORBANCE
##FIRSTX=649.893372
##LASTX=4000.122314
##FIRSTY=0.098220
##MAXX=4000.122314
##MINX=649.893372
##MAXY=0.289579
##MINY=-0.004900
##XFACTOR=1.000000
##YFACTOR=1.000000E-009
##NPOINTS=6950
##DELTAX=0.482117
##ZPD=6100
##XYDATA=(X++(Y..Y))
649.893 98220368 97761808 97349552 97015064 96768680 96604216 96512048 
653.268 96490744 96553560 96726576 97033040 97485024 98073496 98773200 
656.643 99554192 100395248 101293912 102262872 103320064 104476304 105730592 
660.018 107075288 108506728 110036336 111692176 113508112 115511952 
662.911 117712664 120101912 122668200 125415680 128372864 131572176 
665.803 135014944 138599792 142038784 144875504 146592000 146858032 
668.696 145725344 143563920 140841024 137902640 134944960 132031768 
671.589 129155544 126302016 123478088 120714520 118061480 115563136 
674.481 113244024 111110080 109153240 107362848 105730248 104248944 
677.374 102909592 101693856 100574816 99519776 98496840 97484232 96471208 
680.749 95459016 94454408 93465384 92497560 91553024 90633776 89743600 
684.124 88887768 88073056 87304288 86582800 85906216 85270720 84672784 
687.498 84110664 83583680 83089400 82620368 82163536 81700896 81212544 
690.873 80683688 80107648 79487456 78834888 78164744 77492976 76830904 
694.248 76187640 75571280 74990920 74459040 73990152 73597048 73288672 
697.623 73066168 72922664 72844680 72816936 72826776 72866664 72935480 
700.998 73036808 73174896 73351400 73564632 73808992 74078400 74367680 
704.373 74673168 74992696 75321952 75654568 75982352 76297624 76597600 
707.747 76887016 77178968 77493216 77851328 78277216 78793424 79423000 
711.122 80192216 81127072 82247416 83556656 85029688 86603632 88174376 
714.497 89619808 90813880 91654984 92094392 92140728 91861104 91358752 
717.872 90765328 90218232 89839464 89742448 90016960 90718936 91862456 
721.247 93397760 95206088 97084792 98783632 100045264 100639688 100437800 
724.621 99434696 97761112 95640680 93348248 91150416 89234160 87703056 
727.996 86573184 85799504 85307208 85021312 84887096 84866872 84936208 
731.371 85075152 85259136 85462408 85662544 85845608 86011056 86167600 
734.746 86328488 86503096 86692824 86891832 87090712 87282000 87462832 
738.121 87636360 87808016 87983176 88164296 88351840 88545712 88747800 
741.496 88961328 89189968 89434208 89689656 89947872 90199752 90438560 
744.870 90664152 90881768 91099168 91321456 91547016 91767120 91969240 
748.245 92142896 92283312 92394296 92485704 92568944 92651528 92735584 
751.620 92818408 92897232 92971800 93046304 93127176 93219944 93324960 
754.995 93436536 93544536 93639440 93716808 93779840 93838520 93905888 
758.370 93995240 94115224 94269904 94459512 94681760 94932736 95207280 
761.744 95498888 95800032 96103744 96407288 96715144 97042696 97414768 
765.119 97868272 98447328 99197808 100164256 101376512 102836280 104500624 
768.494 106273472 108012632 109535936 110674704 111316144 111443752 
771.387 111157072 110656312 110197728 109995232 110166344 110675376 
774.279 111343288 111878872 111963032 111361992 109971368 107858456 
777.172 105217808 102325352 99448944 96778568 94418120 92372568 90581600 
780.547 88951688 87397104 85861352 84321040 82785312 81282696 79851288 
783.922 78526072 77334968 76297120 75421824 74710632 74159984 73764424 
787.297 73519104 73422920 73479744 73698224 74090976 74670376 75449256 
790.671 76438856 77649680 79095360 80792864 82761184 85019704 87579768 
794.046 90438760 93570920 96927448 100433456 103987312 107478432 110787192 
797.421 113800560 116437376 118659456 120493816 122030184 123422256 
800.314 124856128 126499144 128471152 130787048 133336368 135862080 
803.206 138000288 139351328 139527776 138280608 135555712 131523680 
806.099 126537856 121057576 115559120 110392800 105749104 101635568 97916216 
809.474 94374888 90797704 87052088 83105688 79030048 74955320 71035760 
812.849 67400808 64126932 61243960 58738996 56576912 54713444 53107876 
816.224 51727524 50543804 49533208 48675148 47951488 47349440 46860856 
819.598 46481816 46210520 46045080 45982716 46019328 46151040 46375328 
822.973 46692176 47103716 47613828 48226096 48943276 49765412 50688032 
826.348 51698076 52772168 53875780 54961220 55978400 56882936 57647188 
829.723 58274148 58800680 59301520 59872724 60625988 61672884 63098168 
833.098 64950176 67215448 69810008 72559664 75205392 77447152 78951552 
836.473 79433232 78722560 76793376 73787272 69971056 65704912 61346868 
839.847 57196440 53479700 50312336 47722212 45672052 44090628 42894376 
843.222 42002380 41349948 40882336 40554380 40332204 40188980 40106660 
846.597 40075520 40090308 40147036 40240592 40363696 40509020 40672732 
849.972 40856304 41066764 41313508 41605128 41944424 42328800 42751360 
853.347 43205764 43689664 44206352 44763944 45372460 46041616 46778040 
856.721 47588168 48480088 49465324 50561712 51792364 53182920 54763280 
860.096 56566080 58624908 60976212 63648424 66650852 69955720 73482336 
863.471 77090632 80570312 83680456 86173296 87826832 88502400 88158256 
866.846 86865320 84785704 82158448 79261280 76350720 73659112 71362608 
870.221 69567192 68327696 67648848 67499808 67820672 68530912 69537160 
873.596 70724232 71967936 73142384 74119272 74796552 75107336 75029712 
876.970 74591248 73861464 72941592 71935832 70942304 70035248 69251672 
880.345 68594424 68035200 67529384 67025072 66480256 65873696 65207720 
883.720 64506820 63809008 63158028 62590524 62130256 61788616 61566460 
887.095 61460336 61468312 61593228 61842020 62222668 62739684 63391112 
890.470 64167412 65055320 66040076 67110024 68259144 69485680 70790456 
893.844 72173720 73633008 75160872 76744664 78361696 79977296 81542240 
897.219 82985792 84225008 85173184 85747664 85893496 85591192 84862888 
900.594 83767680 82392920 80845304 79227560 77637360 76158896 74852528 
903.969 73762768 72916824 72325944 71991952 71909440 72070136 72465144 
907.344 73087728 73934560 75004584 76298696 77818064 79563424 81534600 
910.719 83729512 86143280 88765680 91578384 94552224 97650152 100829384 
914.093 104048656 107280632 110516288 113771064 117080272 120497312 
916.986 124081016 127878768 131917672 136182720 140606624 145047792 
919.879 149295024 153087408 156119584 158118384 158896448 158401728 
922.771 156759152 154268272 151393920 148660176 146613136 145747728 
925.664 146397664 148720976 152645312 157886640 163937072 170125760 
928.557 175753936 180114128 182642032 183004208 181091696 177023280 
931.450 171071664 163619040 155077408 145849184 136337216 126896504 
934.342 117837768 109434376 101883552 95321744 89827488 85420696 82086072 
937.717 79784624 78467472 78075344 78530440 79731032 81522528 83693672 
941.092 85999464 88152536 89877648 90958976 91251664 90718976 89425248 
944.467 87525128 85221848 82729952 80256584 77956616 75933024 74238952 
947.841 72882016 71840432 71076144 70547904 70215232 70041680 69997456 
951.216 70054328 70186568 70372928 70595544 70842760 71109904 71397096 
954.591 71707416 72043576 72407048 72796952 73211408 73649112 74109488 
957.966 74592784 75098632 75625192 76168096 76722360 77284064 77852112 
961.341 78429016 79019400 79628456 80259016 80910848 81581224 82266992 
964.716 82966576 83680864 84412704 85164720 85937432 86728952 87535264 
968.090 88352816 89180696 90021448 90880296 91762736 92672040 93608480 
971.465 94570144 95554672 96561792 97593856 98655328 99750664 100882048 
974.840 102048776 103248824 104480600 105745384 107047440 108392736 
977.733 109786464 111231288 112727376 114274224 115874848 117537464 
980.625 119277144 121111568 123057056 125124992 127318440 129632280 
983.518 132053632 134564560 137138256 139734672 142300688 144762160 
986.411 147028688 149010496 150620768 151796960 152511008 152771760 
989.304 152624400 152141120 151421248 150574656 149711744 148943760 
992.196 148361712 148033072 148000592 148277696 148856656 149715760 
995.089 150830608 152178752 153743424 155513056 157476224 159618208 
997.982 161921984 164367296 166934448 169607696 172370288 175201440 
1000.874 178071904 180937120 183742112 186430528 188949200 191263504 
1003.767 193361152 195252512 196966400 198546016 200047888 201532784 
1006.660 203068336 204724544 206560128 208620800 210929952 213486672 
1009.552 216269200 219243296 222373936 225626784 228971792 232380160 
1012.445 235815616 239235136 242593600 245847200 248964928 251929728 
1015.338 254731632 257357328 259777152 261934992 263757728 265163952 
1018.231 266083456 266479248 266355936 265766240 264799296 263582976 
1021.123 262271488 261022624 260002880 259361808 259209360 259616016 
1024.016 260597712 262123104 264120944 266500560 269168928 272029184 
1026.909 274990592 277959872 280826784 283474016 285778560 287620064 
1029.802 288906080 289571424 289578944 288914560 287577184 285575840 
1032.695 282931520 279684448 275896704 271643872 267011408 262077696 
1035.588 256902368 251532560 246004720 240355440 234633424 228898352 
1038.481 223217264 217663360 212302192 207191312 202380992 197906288 
1041.374 193784880 190007136 186527440 183254496 180051568 176764256 
1044.267 173228800 169310880 164939632 160114336 154911568 149461344 
1047.160 143936688 138516432 133357120 128592672 124311808 120560280 
1050.053 117348960 114657960 112447872 110666448 109260784 108179984 
1052.947 107377704 106815888 106458616 106267848 106202424 106211224 
1055.840 106234200 106211696 106082440 105794288 105311288 104612792 
1058.733 103698488 102587200 101319056 99952696 98558320 97220544 96022552 
1062.108 95040104 94340008 93968128 93951304 94296784 94993384 96012016 
1065.483 97304776 98809880 100445768 102114456 103717208 105152584 106333152 
1068.858 107199328 107716360 107878504 107701712 107217904 106465944 
1071.751 105484872 104313728 102986656 101533536 99983696 98365664 96710920 
1075.127 95059280 93454784 91949008 90597528 89450328 88551312 87931776 
1078.502 87605912 87571376 87807848 88281352 88940832 89721024 90549600 
1081.877 91342272 92016776 92506208 92764624 92783248 92592808 92265688 
1085.252 91901224 91613248 91522672 91732448 92323304 93347968 94822088 
1088.628 96725288 98996336 101543880 104242000 106942776 109504336 111791000 
1092.003 113697536 115161024 116155176 116688712 116793408 116517440 
1094.896 115915048 115040096 113950440 112702760 111354504 109968592 
1097.789 108604408 107315928 106144968 105108184 104191240 103341208 
1100.682 102475632 101485448 100253064 98683528 96714560 94338608 91602656 
1104.057 88607056 85487416 82384984 79444488 76785624 74492824 72621968 
1107.433 71195616 70211104 69648048 69475144 69653880 70138744 70882464 
1110.808 71833392 72933168 74122184 75333536 76493944 77533576 78383208 
1114.183 78984784 79301288 79316128 79037088 78490696 77719224 76771984 
1117.558 75697008 74541320 73344376 72136200 70940592 69773040 68642696 
1120.934 67555040 66512816 65519080 64578012 63694844 62874852 62121120 
1124.309 61432088 60801200 60217696 59671016 59154672 58671140 58232852 
1127.684 57862988 57590092 57440532 57435196 57581808 57873852 58289652 
1131.059 58795252 59349380 59903116 60409536 60827728 61126580 61293176 
1134.435 61333852 61275776 61159268 61034096 60950400 60946740 61047712 
1137.810 61258568 61565508 61936856 62327224 62686056 62956808 63087256 
1141.185 63035608 62770352 62275672 61549968 60604120 59458224 58138368 
1144.560 56676720 55106584 53463364 51784712 50104604 48455344 46865136 
1147.936 45353992 43936400 42620304 41408808 40303340 39304224 38412040 
1151.311 37626816 36947400 36370308 35890136 35500628 35196544 34974400 
1154.686 34833036 34772512 34792828 34892672 35069724 35321384 35646600 
1158.061 36046820 36525872 37088588 37738912 38478064 39304296 40212424 
1161.437 41194760 42242500 43343296 44480800 45634580 46777412 47878196 
1164.812 48905932 49829512 50622392 51264416 51739880 52039376 52159368 
1168.187 52102884 51879464 51506168 51006740 50407216 49736360 49022244 
1171.562 48288824 47558336 46850780 46183472 45573968 45039000 44592664 
1174.938 44246852 44009624 43884676 43872944 43972880 44182836 44500880 
1178.313 44926988 45463068 46115152 46893928 47815564 48901484 50173512 
1181.688 51651500 53349496 55272468 57417232 59773548 62327532 65059392 
1185.063 67940808 70933024 73975144 76983536 79859648 82485288 84742976 
1188.438 86531160 87766200 88399152 88417792 87846912 86743120 85188064 
1191.814 83284592 81136576 78847248 76513264 74211440 72003840 69935168 
1195.189 68031096 66303632 64753212 63371940 62146312 61058504 60088800 
1198.564 59213908 58409032 57649492 56909004 56163772 55393432 54581396 
1201.939 53718228 52802552 51842576 50854956 49863368 48896664 47981576 
1205.315 47140940 46390368 45736064 45177152 44707568 44319648 44006100 
1208.690 43760496 43577488 43451492 43376352 43346624 43358448 43411396 
1212.065 43509136 43658672 43868364 44145424 44495444 44921036 45422708 
1215.440 45999288 46647976 47364256 48139540 48962748 49819444 50694584 
1218.816 51575528 52453772 53325368 54190792 55052912 55916136 56785688 
1222.191 57669324 58577772 59525104 60528392 61603880 62763384 64012036 
1225.566 65345808 66751964 68209744 69693800 71174344 72617464 73989288 
1228.941 75255552 76385160 77356232 78157208 78790640 79271776 79630048 
1232.317 79907512 80154232 80433400 80816088 81375088 82189512 83332680 
1235.692 84866912 86844152 89298824 92249216 95699240 99639704 104048272 
1239.067 108885104 114094760 119600216 125301240 131089760 136846064 
1241.960 142446992 147780432 152733792 157200144 161085456 164302464 
1244.853 166781968 168477696 169363776 169435536 168705392 167203552 
1247.746 164975568 162081200 158595984 154597696 150158512 145337600 
1250.639 140172464 134684720 128889752 122809912 116487848 109995704 
1253.532 103427432 96901648 90547728 84483168 78816184 73627200 68960376 
1256.908 64829140 61215112 58077272 55356996 52988368 50905096 49039228 
1260.283 47331188 45731168 44199308 42711288 41255860 39832420 38447004 
1263.658 37108616 35825612 34603940 33448604 32364008 31354584 30424932 
1267.033 29577170 28810436 28119174 27495196 26930628 26419678 25961318 
1270.409 25558362 25215752 24937696 24725792 24579412 24497406 24479772 
1273.784 24529450 24650806 24847976 25120672 25462926 25860726 26292512 
1277.159 26733112 27152394 27518458 27802164 27976666 28023350 27935748 
1280.534 27720782 27398556 26996594 26547062 26076706 25603592 25136960 
1283.910 24678932 24229656 23792252 23374904 22990584 22654078 22377378 
1287.285 22168286 22029738 21961804 21964628 22039882 22190046 22416906 
1290.660 22719676 23092922 23527664 24012140 24533902 25078088 25627738 
1294.035 26162812 26658414 27090286 27438756 27693766 27859040 27952354 
1297.411 28002536 28041446 28100900 28207596 28380776 28634252 28975852 
1300.786 29406420 29916708 30484106 31073140 31634032 32111414 32455366 
1304.161 32625284 32599494 32375966 31971048 31413778 30740664 29993848 
1307.536 29214400 28441266 27710366 27047722 26470318 25984074 25585282 
1310.912 25265758 25016556 24832538 24712568 24658276 24669850 24743470 
1314.287 24870676 25041268 25245986 25480774 25747188 26050566 26396828 
1317.662 26788014 27221638 27691506 28189954 28710812 29250020 29804304 
1321.037 30368322 30932826 31483490 32002148 32471254 32875638 33205676 
1324.413 33459302 33642680 33771052 33867008 33963308 34097400 34305788 
1327.788 34619260 35053704 35604732 36247900 36945052 37654420 38338452 
1331.163 38974232 39554724 40086424 40582316 41057620 41525388 41994608 
1334.538 42472592 42965592 43478520 44014788 44573864 45151488 45740924 
1337.914 46336104 46934016 47535972 48144832 48761144 49380152 49990456 
1341.289 50577272 51126296 51629148 52084428 52496656 52872640 53217300 
1344.664 53531460 53812280 54054892 54255888 54414088 54528052 54592064 
1348.039 54592180 54503068 54290656 53921732 53369760 52625792 51702852 
1351.415 50637208 49483112 48303632 47169456 46146032 45289632 44646012 
1354.790 44240912 44078012 44135152 44368452 44716964 45111416 45491136 
1358.165 45806200 46023748 46129708 46125472 46028172 45868392 45695460 
1361.540 45574332 45575772 45769932 46203116 46882816 47774028 48806448 
1364.916 49891988 50933712 51846272 52558472 53012816 53173892 53027264 
1368.291 52582404 51869460 50936580 49841628 48639128 47379332 46104432 
1371.666 44847664 43645332 42541144 41586788 40843164 40362932 40173676 
1375.041 40267860 40602984 41118844 41752144 42459912 43225568 44059016 
1378.417 44988724 46054140 47299448 48767448 50500592 52536480 54892636 
1381.792 57546928 60411744 63334292 66085404 68393160 69999048 70668944 
1385.167 70251264 68708752 66149688 62831888 59112184 55397760 52020852 
1388.542 49180584 46942288 45259552 44027476 43119764 42423928 41846524 
1391.917 41316860 40792716 40256004 39713572 39191540 38725516 38344132 
1395.293 38054764 37839216 37662444 37490180 37301088 37098728 36909916 
1398.668 36778520 36746464 36836332 37044164 37342108 37691856 38056532 
1402.043 38414136 38759896 39106764 39479528 39909052 40423076 41036168 
1405.418 41746968 42538072 43383496 44255216 45131268 46001464 46865472 
1408.794 47731716 48611776 49517240 50456264 51431748 52441692 53478056 
1412.169 54524520 55552948 56524416 57391104 58102304 58620320 58927864 
1415.544 59036528 58984604 58837900 58686344 58629988 58779736 59230236 
1418.919 60026100 61141532 62477792 63900968 65274448 66499024 67528520 
1422.295 68364696 69058720 69696288 70383720 71209280 72217352 73394872 
1425.670 74682136 75998848 77270168 78452992 79536128 80538360 81495192 
1429.045 82448392 83436776 84489856 85634496 86893808 88283088 89805768 
1432.420 91446672 93177352 94961848 96779320 98641360 100603888 102765536 
1435.796 105241960 108126176 111425672 115052232 118857240 122689472 
1438.689 126427816 129978344 133265464 136193648 138641472 140482528 
1441.582 141583488 141834704 141170544 139569680 137064624 133737368 
1444.475 129726528 125209600 120379648 115452344 110631864 106106592 
1447.368 102048984 98580200 95750920 93526368 91804200 90447904 89330040 
1450.743 88375552 87567888 86941368 86545600 86412808 86526352 86821616 
1454.118 87193576 87529632 87746120 87815400 87801520 87852344 88166784 
1457.494 88893744 90075064 91666240 93582384 95743648 98085456 100556648 
1460.869 103102640 105651896 108127880 110435184 112465088 114117904 
1463.762 115312144 116020120 116282136 116209640 115945944 115613560 
1466.655 115298536 115036640 114828208 114652568 114476704 114257416 
1469.548 113930672 113412640 112602736 111398912 109741248 107653912 
1472.441 105268136 102780856 100387192 98215632 96310824 94669688 93284832 
1475.816 92167848 91354336 90879720 90749528 90926488 91332744 91878504 
1479.192 92479144 93084272 93686096 94314440 95021920 95860888 96871576 
1482.567 98073576 99476192 101094688 102960328 105121432 107630728 110520608 
1485.942 113773048 117288928 120892752 124316440 127226192 129282608 
1488.835 130158904 129621520 127597224 124199952 119716872 114514056 
1491.728 108955400 103304896 97703056 92209920 86829176 81563064 76467272 
1495.104 71655160 67300792 63603580 60718160 58711268 57548028 57129728 
1498.479 57328748 58023492 59115792 60517808 62145820 63920008 65751664 
1501.854 67550824 69232312 70696512 71833200 72514824 72580144 71855680 
1505.229 70194704 67568320 64150124 60325084 56550228 53134124 50150156 
1508.604 47494792 45020480 42611608 40221800 37865356 35602032 33503108 
1511.980 31615644 29953910 28492918 27186928 25986538 24857870 23790326 
1515.355 22799286 21919078 21189356 20638932 20268030 20044094 19905770 
1518.730 19785732 19626622 19401700 19133920 18905270 18840906 19047328 
1522.105 19564782 20342332 21275262 22248702 23181198 24042538 24847518 
1525.481 25647034 26501978 27464310 28554238 29758846 31043244 32366150 
1528.856 33691124 34986324 36229316 37405484 38511412 39564628 40612112 
1532.231 41736828 43037184 44600556 46450468 48518216 50659548 52704640 
1535.606 54516404 55988652 57055660 57686616 57882260 57691232 57213976 
1538.982 56619944 56095372 55782292 55728156 55879052 56127952 56361936 
1542.357 56500036 56489656 56298940 55917340 55355488 54648504 53846672 
1545.732 53000876 52140800 51263112 50337524 49324584 48199476 46973516 
1549.107 45701864 44464648 43341864 42372272 41542088 40797812 40078720 
1552.483 39344852 38593356 37854148 37166544 36547172 35965756 35343060 
1555.858 34568776 33536430 32171994 30482580 28596668 26811276 25514998 
1559.233 24977844 25185132 25865898 26699778 27438332 27951682 28196458 
1562.608 28171886 27910872 27469428 26925834 26360034 25834108 25372814 
1565.984 24955314 24528572 24033398 23435224 22745756 22035384 21412492 
1569.359 20994954 20852678 20973602 21270426 21620140 21914652 22071884 
1572.734 22047552 21827156 21419312 20857786 20207316 19579444 19111690 
1576.109 18927942 19087210 19550986 20208462 20924504 21594926 22156014 
1579.485 22587930 22906120 23145584 23346896 23539732 23738320 23940606 
1582.860 24137592 24320546 24487240 24639900 24779706 24900360 24988302 
1586.235 25025226 24998094 24906852 24767812 24610092 24468064 24373462 
1589.610 24346688 24397786 24528922 24737472 25017924 25357534 25734284 
1592.986 26111858 26443202 26682548 26791400 26751964 26569674 26272094 
1596.361 25897690 25484498 25065452 24663466 24294896 23975900 23722852 
1599.736 23552254 23477122 23503144 23628098 23844858 24146490 24527696 
1603.111 24983460 25504386 26069882 26645344 27188374 27650646 27990344 
1606.487 28180442 28209328 28081458 27810994 27417190 26918326 26330988 
1609.862 25674312 24970720 24245876 23524724 22820062 22128468 21426902 
1613.237 20681742 19859742 18944346 17949094 16931796 15996005 15261642 
1616.612 14830910 14737116 14933400 15313123 15755225 16161287 16455596 
1619.988 16594237 16560914 16368056 16061567 15718807 15443227 15327642 
1623.363 15424001 15721487 16156094 16639438 17092198 17474124 17785202 
1626.738 18060406 18348574 18695354 19122562 19621456 20157366 20683132 
1630.113 21154950 21534164 21789702 21896044 21826736 21559792 21084544 
1633.489 20418242 19620002 18801494 18124898 17744954 17748406 18107938 
1636.864 18705214 19389398 20032158 20558396 20932536 21148792 21218614 
1640.239 21161314 20998744 20748468 20421612 20018036 19526102 18924792 
1643.614 18190784 17307754 16283631 15163534 14037935 13040945 12306444 
1646.990 11919498 11875568 12083713 12400738 12674154 12782927 12630317 
1650.365 12145212 11284001 10056040 8580911 7123877 6093756 5833215 6387942 
1654.222 7502089 8822884 10089036 11153777 11970994 12548662 12915586 
1657.597 13109989 13166272 13110366 12955082 12704346 12361259 11936833 
1660.973 11460904 10987058 10580677 10307862 10208018 10276648 10463900 
1664.348 10691236 10879957 10959974 10884917 10632625 10204185 9626305 
1667.723 8950653 8259232 7647746 7204822 6987520 6998429 7185823 7459412 
1671.581 7725416 7902528 7936745 7812209 7551243 7219275 6908163 6721058 
1675.438 6726274 6926343 7258828 7628356 7950007 8162929 8241840 8189569 
1679.295 8024120 7764409 7416639 6967957 6389254 5651238 4751173 3741462 
1683.153 2760003 2025361 1743063 1995935 2680749 3585950 4495755 5267122 
1687.010 5843491 6222909 6440434 6545908 6594247 6630514 6681453 6753499 
1690.868 6832087 6887763 6879482 6764470 6504771 6073998 5470277 4731007 
1694.725 3948252 3246149 2741797 2478027 2399223 2378367 2279497 2015308 
1698.583 1569276 1023091 544368 351429 583915 1209351 2044270 2870790 
1702.440 3535205 3957749 4133330 4105701 3956812 3784009 3678536 3700858 
1706.297 3860858 4126707 4444066 4762495 5044518 5269637 5433101 5536988 
1710.155 5584443 5575583 5505343 5365870 5150458 4857477 4493344 4070213 
1714.012 3606497 3119747 2626076 2144985 1705306 1353079 1154199 1174099 
1717.870 1451041 1971137 2667013 3439478 4187624 4839651 5352183 5714485 
1721.727 5943143 6073561 6149909 6211817 6287348 6385454 6499154 6610933 
1725.584 6701912 6757605 6768004 6728630 6638958 6502047 6324060 6113380 
1729.442 5877646 5617537 5323034 4971716 4535864 3994364 3355524 2672947 
1733.299 2063712 1678928 1628738 1920547 2443905 3039360 3555683 3898033 
1737.157 4031584 3969151 3765092 3500198 3268817 3142342 3150385 3276161 
1741.014 3474480 3695144 3900374 4073290 4210207 4313367 4382778 4412902 
1744.872 4394660 4320796 4190970 4014830 3809746 3599047 3404979 3244146 
1748.729 3128591 3067088 3068690 3144144 3302336 3543055 3850929 4194984 
1752.586 4534190 4825747 5037612 5150759 5163567 5092657 4971749 4846084 
1756.444 4756030 4726585 4755059 4813685 4859621 4851479 4765443 4600455 
1760.301 4382845 4159021 3987843 3916756 3965740 4120050 4337395 4564994 
1764.159 4752278 4866222 4890850 4827121 4688635 4497897 4279268 4050179 
1768.016 3815329 3564202 3277864 2937136 2537247 2097504 1670480 1334733 
1771.874 1171608 1237827 1532732 1999929 2547479 3090013 3569246 3957615 
1775.731 4254540 4472387 4625438 4722030 4763835 4751038 4688535 4592754 
1779.588 4491837 4416350 4391514 4424517 4502450 4598045 4681903 4735328 
1783.446 4755226 4754321 4753216 4771708 4818510 4888103 4963170 5022528 
1787.303 5046093 5016964 4923624 4756834 4511959 4190903 3809713 3404745 
1791.161 3028916 2748299 2619842 2667946 2874893 3186298 3536575 3863599 
1795.018 4126071 4305636 4399648 4416283 4367884 4269028 4135170 3984332 
1798.875 3840031 3727058 3668712 3679304 3758641 3891180 4051650 4215326 
1802.733 4363533 4488523 4591012 4676109 4747722 4805678 4846118 4864178 
1806.590 4856840 4824306 4770971 4702971 4627916 4553443 4487787 4441422 
1810.448 4425924 4451196 4522304 4634948 4774823 4919938 5049110 5146534 
1814.305 5206556 5234960 5244316 5249380 5260850 5282147 5309952 5338464 
1818.163 5362985 5383414 5403107 5425787 5450884 5471787 5474941 5445481 
1822.020 5372512 5253975 5099261 4929656 4774086 4658358 4598547 4592084 
1825.877 4619041 4646871 4641177 4578890 4454511 4286797 4114932 3995601 
1829.735 3981991 4104162 4357777 4703474 5083940 5439241 5727478 5930177 
1833.592 6050982 6109717 6132837 6145674 6163923 6194238 6237160 6292155 
1837.450 6361648 6449648 6558387 6682463 6805597 6904595 6951897 6925266 
1841.307 6815694 6632061 6403847 6177736 6013924 5966892 6069832 6323353 
1845.165 6695787 7135767 7585735 8000257 8348597 8616769 8806485 8929919 
1849.022 9004368 9044491 9059884 9052475 9018475 8953832 8857849 8735315 
1852.879 8595983 8450582 8305939 8163503 8019732 7869732 7711386 7547972 
1856.737 7387856 7240466 7112189 7002807 6905908 6813170 6717929 6618839 
1860.594 6520277 6428697 6348266 6277666 6209094 6131224 6034049 5910629 
1864.452 5758938 5579744 5374290 5143819 4891822 4628451 4375482 4165879 
1868.309 4040714 4032220 4152732 4385422 4690243 5016495 5317566 5564440 
1872.167 5746313 5867336 5939751 5976937 5988896 5980162 5954026 5913752 
1876.024 5865153 5815988 5771965 5734327 5699344 5660369 5612234 5554171 
1879.881 5491652 5433202 5386400 5353559 5329943 5306699 5275205 5231237 
1883.739 5177013 5118774 5062083 5007746 4949730 4877581 4782160 4661674 
1887.596 4524782 4390175 4280974 4218137 4212449 4261198 4349410 4456586 
1891.454 4562985 4652363 4716101 4751340 4761155 4752781 4737405 4728327 
1895.311 4736099 4767386 4820822 4888002 4956332 5013109 5051390 5071469 
1899.168 5080119 5086455 5098189 5117734 5142075 5164875 5181406 5190661 
1903.026 5195725 5201559 5210982 5222082 5228789 5222585 5197267 5152805 
1906.883 5095104 5034495 4981871 4944938 4926774 4926506 4941251 4968264 
1910.741 5006238 5053166 5104659 5154313 5192170 5208065 5194484 5146870 
1914.598 5064999 4951607 4812647 4657186 4498969 4357643 4254573 4209605 
1918.456 4231520 4312731 4428835 4545239 4630193 4662846 4641412 4582775 
1922.313 4517550 4476906 4480053 4528766 4607119 4692119 4763098 4810603 
1926.170 4836435 4850406 4861665 4873895 4883880 4885355 4873560 4850641 
1930.028 4824607 4805578 4800217 4807588 4819414 4824507 4816097 4794053 
1933.885 4766046 4741760 4728662 4726652 4729433 4727858 4716068 4694396 
1937.743 4667769 4641379 4614888 4580163 4524815 4438376 4321064 4185717 
1941.600 4058406 3968549 3935480 3963232 4037370 4135839 4237074 4331204 
1945.458 4419463 4511021 4613549 4726585 4839886 4938537 5009825 5048641 
1949.315 5060709 5057725 5051658 5048272 5046127 5038584 5021657 4995881 
1953.172 4969906 4953752 4954791 4971716 4995110 5011098 5007345 4980664 
1957.030 4935353 4882373 4831576 4788056 4749431 4709704 4663348 4610703 
1960.887 4557561 4512494 4480321 4461440 4449724 4438075 4423680 4409187 
1964.745 4401756 4408752 4431815 4465055 4498165 4521065 4531344 4534793 
1968.602 4542293 4561646 4593323 4626375 4645464 4637226 4599049 4540351 
1972.459 4481024 4440116 4428133 4442895 4473258 4506401 4537739 4573968 
1976.317 4627547 4708933 4816801 4934147 5035132 5096847 5109218 5078476 
1980.174 5023936 4967828 4925802 4901306 4886896 4871382 4847558 4815260 
1984.032 4781255 4753249 4735261 4723872 4710775 4688836 4656081 4618405 
1987.889 4586927 4568745 4565296 4568075 4564425 4544369 4508376 4467332 
1991.747 4440451 4446276 4491804 4571490 4669745 4768123 4853824 4923021 
1995.604 4979860 5029601 5074386 5109319 5125982 5119377 5091651 5055077 
1999.461 5025746 5017936 5035467 5069592 5102714 5115253 5098189 5053468 
2003.319 4994239 4938068 4898759 4880731 4879960 4888538 4900401 4916687 
2007.176 4942324 4980530 5028528 5073950 5101172 5098189 5062888 5005434 
2011.034 4944133 4897284 4874197 4873258 4882004 4888806 4886695 4878619 
2014.891 4874867 4888002 4922954 4975436 5032819 5082365 5116628 5137147 
2018.749 5153374 5174834 5205918 5244283 5281141 5309046 5326455 5339201 
2022.606 5357819 5390526 5438033 5492055 5539907 5569843 5578335 5571320 
2026.463 5560816 5559037 5571455 5594546 5619216 5637308 5644860 5646035 
2030.321 5649258 5662148 5686721 5719857 5755815 5790534 5827103 5872911 
2034.178 5935451 6016645 6109448 6200657 6274943 6324194 6349275 6360438 
2038.036 6371130 6389926 6418105 6449077 6473930 6487315 6492428 6497540 
2041.893 6513112 6543822 6584861 6623583 6646932 6646831 6626510 6597981 
2045.750 6577292 6576855 6599932 6640438 6686938 6731154 6770831 6810209 
2049.608 6856389 6913482 6978832 7044462 7100738 7141931 7169485 7191044 
2053.465 7215569 7249024 7290028 7330464 7361535 7377172 7379127 7375993 
2057.323 7379228 7396147 7427559 7465682 7499864 7520934 7525990 7518911 
2061.180 7508494 7501650 7500504 7501179 7496931 7482031 7455974 7423750 
2065.038 7392102 7366826 7348830 7333261 7313615 7285682 7250203 7213345 
2068.895 7183262 7165005 7158840 7158975 7157527 7148364 7131590 7112290 
2072.752 7098919 7097202 7107642 7124079 7138124 7141291 7131321 7111145 
2076.610 7088074 7069753 7059886 7058707 7062311 7067497 7072650 7078914 
2080.467 7089085 7104409 7124146 7144794 7162983 7177300 7189932 7205765 
2084.325 7229011 7260917 7297778 7332520 7356851 7366219 7360928 7346505 
2088.182 7329790 7315300 7303338 7290163 7270082 7239860 7200881 7158739 
2092.040 7121721 7096191 7084437 7083932 7090297 7098481 7106430 7115423 
2095.897 7127380 7142773 7159379 7172112 7176458 7170967 7159076 7147623 
2099.754 7144053 7152710 7172920 7199971 7227394 7250708 7269913 7288714 
2103.612 7311998 7343101 7381082 7422032 7461199 7495380 7525889 7557278 
2107.469 7594602 7640732 7694320 7750916 7804787 7852964 7896320 7938634 
2111.327 7984091 8034549 8087173 8136258 8176131 8204257 8223200 8239477 
2115.184 8260346 8290470 8329243 8371566 8410346 8441359 8464434 8484301 
2119.042 8507716 8539919 8581688 8630153 8679063 8723686 8762868 8799316 
2122.899 8837594 8881285 8930900 8983362 9033496 9077003 9112260 9141597 
2126.756 9168635 9196419 9224950 9251825 9272810 9285030 9288415 9286080 
2130.614 9283168 9284421 9292240 9307304 9328835 9356629 9391468 9434232 
2134.471 9484114 9536270 9583555 9617836 9633724 9632776 9621732 9611671 
2138.329 9611806 9626305 9651442 9678817 9698977 9705923 9701213 9690743 
2142.186 9681832 9678342 9677293 9670618 9649036 9606251 9542502 9463897 
2146.043 9378974 9293764 9210601 9126303 9036575 8940268 8841178 8745694 
2149.901 8661959 8592502 8534444 8479773 8419569 8348563 8268688 8185315 
2153.758 8104794 8029115 7953786 7869766 7770581 7657998 7544095 7450884 
2157.616 7400393 7404943 7462075 7554749 7658369 7751624 7824354 7876109 
2161.473 7913731 7941773 7959995 7963472 7946700 7907421 7851141 7787313 
2165.331 7726631 7674455 7629637 7583712 7527609 7456547 7372252 7282919 
2169.188 7198219 7126639 7069450 7023482 6982166 6941089 6900488 6864939 
2173.045 6840602 6831548 6837775 6854975 6877697 6901026 6923751 6945634 
2176.903 6966408 6982133 6985432 6967755 6923885 6854639 6768610 6677987 
2180.760 6595660 6529796 6480152 6440670 6403208 6361816 6314747 6265396 
2184.618 6218136 6175921 6138953 6104408 6069832 6037241 6011270 5999680 
2188.475 6008179 6037946 6084011 6137911 6190507 6235009 6271044 6301265 
2192.333 6329573 6359295 6390397 6421198 6450523 6478470 6507092 6539651 
2196.190 6576047 6613221 6645081 6664764 6668196 6657295 6638891 6621429 
2200.047 6612447 6614196 6622910 6631960 6634921 6629268 6616955 6602993 
2203.905 6592060 6586005 6582876 6578234 6568613 6554553 6539416 6529796 
2207.762 6530670 6542779 6562424 6583213 6599058 6608107 6612952 6620050 
2211.620 6635392 6662813 6700801 6745086 6790014 6831380 6866892 6896684 
2215.477 6920620 6936578 6941965 6933279 6909476 6873018 6830471 6788769 
2219.334 6754138 6728764 6710593 6695922 6681487 6666850 6655444 6652517 
2223.192 6661164 6681655 6709314 6736942 6757638 6767398 6766052 6757773 
2227.049 6747811 6740643 6739331 6745052 6757874 6777898 6805092 6838684 
2230.907 6874836 6908197 6931797 6939574 6930619 6908365 6881232 6859352 
2234.764 6851407 6861237 6887965 6926680 6971257 7017185 7062210 7105420 
2238.622 7147590 7187641 7223722 7253438 7275439 7289725 7298520 7304450 
2242.479 7309538 7314694 7319377 7323085 7327398 7335519 7351627 7379565 
2246.336 7420245 7470469 7524170 7573900 7613654 7640934 7656244 7662079 
2250.194 7662214 7659415 7655300 7651793 7651759 7658976 7678435 7712701 
2254.051 7761373 7819833 7880529 7934822 7976228 8002653 8015715 8019327 
2257.909 8017606 8012779 8005084 7993473 7977240 7957363 7936846 7919973 
2261.766 7909851 7908400 7914743 7926756 7942515 7960300 7980312 8002383 
2265.624 8026381 8050481 8072557 8090143 8102364 8110330 8116947 8124847 
2269.481 8136528 8151856 8169513 8187307 8203582 8217662 8230426 8242819 
2273.338 8254774 8265546 8273415 8276657 8275610 8272335 8270241 8272808 
2277.196 8281993 8296786 8313977 8329378 8339105 8341740 8337991 8330527 
2281.053 8323197 8319042 8320495 8328465 8343564 8365857 8394840 8430210 
2284.911 8470617 8514339 8559992 8606089 8652123 8699210 8748297 8800568 
2288.768 8856463 8915781 8977747 9042021 9108910 9179025 9253585 9333066 
2292.625 9416354 9502064 9587822 9672346 9755462 9838865 9924624 10015315 
2296.483 10112470 10215582 10323233 10432743 10541702 10648108 10751111 
2299.858 10850570 10947267 11042624 11138513 11237959 11344468 11461345 
2303.233 11590675 11733320 11887521 12050361 12218238 12388090 12557972 
2306.609 12728093 12900055 13076012 13258122 13447689 13645032 13849546 
2309.984 14059324 14271738 14483330 14689713 14886284 15069566 15237653 
2313.359 15391422 15534633 15673941 15816765 15970772 16142614 16336299 
2316.734 16553067 16791396 17047190 17313790 17583484 17848100 18099992 
2320.110 18332812 18542382 18726038 18882188 19009628 19107016 19173950 
2323.485 19211454 19223542 19217688 19204216 19195974 19204598 19239230 
2326.860 19304384 19399378 19518028 19649570 19782264 19902926 20000202 
2330.235 20066406 20097360 20093786 20061514 20010506 19953262 19902370 
2333.611 19868968 19860020 19878020 19921172 19985074 20064846 20155494 
2336.986 20254422 20359938 20470826 20585320 20701342 20815516 20925026 
2340.361 21027470 21121796 21206960 21281492 21340514 21375074 21369504 
2343.736 21303866 21156722 20908928 20553046 20097986 19573586 19026832 
2347.112 18514858 18099510 17830598 17743782 17855350 18161242 18637902 
2350.487 19245258 19937546 20664750 21382382 22059926 22678968 23233102 
2353.862 23723588 24155596 24535024 24868046 25162240 25425508 25664470 
2357.237 25884044 26084412 26262836 26414398 26536318 26628574 26695762 
2360.613 26742590 26773144 26786324 26777514 26739560 26667152 26559846 
2363.988 26423272 26267906 26103764 25939122 25776756 25614348 25446728 
2367.363 25268218 25074790 24864254 24635762 24388744 24121866 23834464 
2370.738 23526788 23201156 22861552 22512128 22156186 21793952 21423108 
2374.114 21039780 20640810 20225714 19797038 19360192 18921780 18487752 
2377.489 18061996 17646906 17243762 16854702 16482336 16130991 15804462 
2380.864 15505788 15235800 14994378 14780137 14592009 14429377 14292214 
2384.239 14179708 14090025 14019387 13963165 13916496 13875819 13839728 
2387.615 13808636 13783941 13766361 13755177 13748406 13742832 13735855 
2390.990 13726005 13712908 13697349 13680696 13663496 13646537 13630364 
2394.365 13615902 13604688 13598158 13597201 13601679 13610295 13621407 
2397.740 13633852 13648007 13665924 13690167 13723099 13765370 13815785 
2401.115 13871953 13931070 13991908 14054977 14122507 14196996 14280332 
2404.491 14372965 14473463 14580324 14691563 14806157 14924073 15045142 
2407.866 15169196 15295859 15424654 15555821 15690980 15832607 15982563 
2411.241 16141823 16308572 16478412 16645359 16803724 16949334 17080308 
2414.616 17197188 17300860 17392242 17471364 17537632 17590454 17630308 
2417.992 17658846 17678654 17692182 17700846 17705090 17704608 17699740 
2421.367 17691664 17682934 17676550 17674756 17678206 17686108 17696670 
2424.742 17709646 17726040 17749648 17785374 17837466 17907900 17996338 
2428.117 18099336 18213070 18334922 18464136 18601482 18749182 18908352 
2431.493 19078796 19259112 19447298 19641944 19843302 20052976 20272684 
2434.868 20503962 20746660 20999474 21260718 21528872 21803394 22084678 
2438.243 22373156 22668670 22970148 23276030 23585030 23896914 24212872 
2441.618 24534462 24864114 25202514 25549366 25902966 26261746 26624346 
2444.994 26990458 27360336 27734522 28112282 28492316 28872190 29249594 
2448.369 29623070 29991720 30355600 30714880 31069046 31417340 31758212 
2451.744 32090612 32413770 32727704 33032530 33327694 33612068 33883200 
2455.119 34138080 34374064 34588512 34780016 34947252 35089336 35204804 
2458.495 35292416 35351148 35380156 35379220 35348308 35287064 35194564 
2461.870 35069796 34912208 34723156 34506496 34268248 34017052 33761096 
2465.245 33507652 33261978 33026774 32803558 32593746 32400098 32226772 
2468.620 32079018 31962168 31880040 31834614 31826376 31853974 31915698 
2471.996 32009422 32132498 32280944 32450582 32635606 32830038 33029456 
2475.371 33230140 33430244 33628932 33824740 34015904 34198876 34369832 
2478.746 34524180 34658912 34771720 34861936 34929512 34974832 34998392 
2482.121 35000440 34982016 34944128 34888364 34816700 34730944 34632900 
2485.497 34524860 34408856 34287648 34164248 34041240 33920240 33801172 
2488.872 33682460 33560808 33432964 33296392 33149526 32992524 32825750 
2492.247 32649360 32463222 32265812 32055512 31831402 31592946 31340762 
2495.622 31075810 30798530 30509308 30207456 29892466 29564650 29225530 
2498.998 28877892 28525364 28171180 27817918 27466814 27118184 26772298 
2502.373 26429856 26092012 25760548 25437066 25122778 24818364 24523980 
2505.748 24240060 23967670 23707910 23461698 23229608 23010254 22802080 
2509.123 22602732 22410486 22224742 22046296 21876704 21717556 21570064 
2512.499 21434456 21310374 21197532 21095570 21004100 20922904 20850868 
2515.874 20785936 20726434 20670936 20619406 20573370 20536024 20510284 
2519.249 20498092 20499480 20512368 20533802 20560412 20590012 20622080 
2522.624 20657106 20696302 20740300 20789550 20843048 20899888 20958754 
2526.000 21017976 21075536 21128998 21175334 21211830 21236534 21248608 
2529.375 21249026 21239492 21221400 21195792 21162568 21120476 21069136 
2532.750 21009212 20942446 20872424 20803212 20737554 20676946 20621004 
2536.125 20568680 20518308 20469574 20422828 20378966 20338928 20302924 
2539.500 20270322 20240224 20211898 20185378 20161774 20141644 20126062 
2542.876 20114400 20105654 20098020 20090142 20080704 20069736 20057628 
2546.251 20044476 20030562 20015780 20000618 19985768 19972308 19961170 
2549.626 19952706 19945906 19938762 19928976 19914790 19896022 19874414 
2553.001 19852424 19833176 19818262 19807996 19801406 19797002 19793466 
2556.377 19790830 19789374 19789442 19790726 19791038 19787084 19775606 
2559.752 19753864 19721234 19678416 19627626 19570986 19510472 19446848 
2563.127 19380772 19313252 19245672 19180182 19119030 19064118 19015894 
2566.502 18974286 18938358 18907174 18880976 18859834 18844678 18835750 
2569.878 18832910 18834850 18840938 18850248 18862568 18878002 18896896 
2573.253 18918734 18942650 18967606 18992702 19018386 19046114 19077344 
2576.628 19113768 19155492 19201064 19247578 19292226 19332686 19368750 
2580.003 19401768 19434442 19470030 19511028 19558926 19614246 19676786 
2583.379 19745646 19819580 19897064 19976366 20055580 20133732 20210472 
2586.754 20286778 20364590 20445818 20531578 20621594 20714026 20806306 
2590.129 20896168 20982712 21066284 21148652 21231558 21315872 21401318 
2593.504 21485978 21568182 21646224 21719786 21789318 21855900 21920368 
2596.880 21982856 22043194 22101342 22157790 22214596 22274232 22339144 
2600.255 22411148 22490598 22576204 22666400 22759304 22854462 22952156 
2603.630 23053334 23159110 23269738 23385252 23504752 23627748 23754174 
2607.005 23884276 24018758 24157978 24301692 24448890 24598592 24749362 
2610.381 24900360 25051340 25201706 25350614 25496832 25638776 25774120 
2613.756 25902016 26021718 26133498 26238762 26338488 26433482 26524520 
2617.131 26611560 26694422 26773390 26848530 26919910 26987638 27051424 
2620.506 27110672 27164988 27214302 27258682 27299256 27336978 27373042 
2623.882 27408544 27444120 27480546 27518742 27559658 27604074 27652660 
2627.257 27705384 27761542 27819826 27878754 27937194 27994230 28050036 
2630.632 28105176 28160714 28217496 28276266 28337272 28400550 28465110 
2634.007 28530176 28594368 28656478 28715132 28769968 28820810 28868648 
2637.383 28914722 28960728 29007944 29057362 29109194 29163654 29220212 
2640.758 29278764 29339060 29401384 29465846 29532802 29602248 29674366 
2644.133 29749194 29826556 29906520 29988808 30073278 30159682 30247808 
2647.508 30338156 30431114 30527508 30628010 30732912 30842104 30954422 
2650.884 31068834 31183844 31298884 31413708 31528808 31645120 31763454 
2654.259 31884782 32009460 32137814 32270058 32406024 32545674 32688618 
2657.634 32833896 32980726 33128142 33275570 33423300 33571724 33722136 
2661.009 33875284 34031568 34190736 34352012 34513884 34675100 34834756 
2664.385 34992680 35149044 35304064 35458200 35611528 35764048 35915508 
2667.760 36065976 36215412 36364148 36512752 36661840 36812136 36964500 
2671.135 37119840 37278888 37441744 37608456 37778308 37950468 38123416 
2674.510 38296544 38469268 38641704 38814092 38986700 39160280 39334584 
2677.885 39509540 39684924 39860712 40037224 40215148 40395840 40580644 
2681.261 40771312 40969276 41176112 41392844 41619896 41857432 42104592 
2684.636 42360620 42624360 42895072 43172496 43456692 43748224 44047388 
2688.011 44354180 44668124 44988356 45314088 45644668 45980208 46321392 
2691.386 46668636 47022624 47383472 47751244 48125284 48505060 48890324 
2694.762 49280860 49676652 50077868 50484588 50896640 51314048 51736744 
2698.137 52164712 52597924 53035876 53478428 53924508 54373000 54822932 
2701.512 55273560 55723900 56173764 56622588 57069640 57514208 57954688 
2704.887 58389472 58816876 59234564 59640224 60031764 60406832 60763772 
2708.263 61101480 61419876 61718944 61999260 62261368 62505268 62730924 
2711.638 62938312 63127756 63300260 63456720 63598356 63725576 63838020 
2715.013 63934056 64011380 64067556 64100468 64108804 64091944 64050280 
2718.388 63984616 63896744 63788780 63664192 63527516 63384176 63239732 
2721.764 63099592 62968076 62848240 62742672 62652716 62579848 62525772 
2725.139 62492024 62480356 62491376 62525504 62581948 62660336 62759636 
2728.514 62879444 63019900 63180632 63360788 63558892 63772276 63998364 
2731.889 64234404 64478220 64728288 64983504 65242796 65504672 65767436 
2735.265 66029048 66287456 66541620 66790448 67033500 67270344 67500536 
2738.640 67723272 67938216 68145048 68344448 68537696 68726848 68913736 
2742.015 69100792 69290256 69483736 69683680 69892080 70110712 70341216 
2745.390 70584192 70839168 71104712 71378584 71658016 71939744 72220712 
2748.766 72497480 72765928 73022696 73263488 73485280 73685888 73864328 
2752.141 74020720 74155944 74271472 74368192 74447360 74509192 74553952 
2755.516 74581536 74591800 74583968 74556936 74509264 74438896 74343768 
2758.891 74221856 74071600 73891312 73680360 73438184 73165256 72862904 
2762.267 72533432 72180024 71806656 71417760 71017336 70609416 70197360 
2765.642 69784800 69375656 68973736 68583288 68208776 67853368 67519896 
2769.017 67209920 66924436 66664300 66430412 66224164 66047064 65899612 
2772.392 65781928 65691808 65626324 65580844 65550788 65531640 65519312 
2775.768 65510488 65502168 65490836 65472848 65444456 65401392 65339760 
2779.143 65256692 65149620 65017752 64861112 64681372 64481260 64264328 
2782.518 64035416 63799144 63560268 63322872 63089900 62863440 62644064 
2785.893 62431384 62224084 62019748 61815392 61607396 61392128 61166708 
2789.269 60929088 60678644 60416200 60143788 59863864 59579564 59293848 
2792.644 59009388 58729056 58456148 58194056 57946132 57715640 57504904 
2796.019 57315404 57147340 57000684 56874932 56769792 56685784 56623304 
2799.394 56582536 56563516 56565136 56585632 56623036 56675212 56740000 
2802.770 56815824 56901184 56994416 57094280 57199084 57307464 57418296 
2806.145 57530740 57643820 57756852 57867912 57975364 58075908 58166284 
2809.520 58242816 58302232 58341568 58358548 58351608 58320232 58264756 
2812.895 58186216 58086628 57968092 57833536 57685596 57527184 57361040 
2816.271 57190504 57019084 56851668 56693332 56550304 56428832 56335004 
2819.646 56274272 56251036 56268236 56327532 56428716 56570496 56749628 
2823.021 56961732 57201880 57464056 57741600 58028980 58319624 58607804 
2826.396 58887944 59154444 59402452 59627604 59826592 59996992 60138308 
2829.771 60250736 60335972 60396740 60436648 60459456 60469436 60470884 
2833.147 60467760 60463800 60462812 60467684 60481776 60508168 60549536 
2836.522 60608616 60687868 60789956 60917916 61075816 61268796 61504308 
2839.897 61790716 62138360 62558264 63061432 63659208 64363576 65186924 
2843.272 66144132 67252584 68530632 69997488 71668488 73550184 75633984 
2846.648 77891120 80270216 82689592 85046664 87223920 89091152 90531688 
2850.023 91449784 91781888 91508312 90651616 89275136 87465712 85330632 
2853.398 82984744 80531704 78069280 75679136 73420848 71338824 69458616 
2856.773 67789104 66325636 65053388 63951144 62992968 62153272 61408576 
2860.149 60737136 60121984 59549120 59006844 58486476 57981268 57486372 
2863.524 56998948 56518676 56047496 55589212 55149996 54737648 54360272 
2866.899 54026520 53744140 53518344 53352676 53247376 53199772 53204752 
2870.274 53254680 53340540 53451524 53576100 53703044 53821168 53921732 
2873.650 53998832 54050088 54077032 54084236 54078308 54066000 54053428 
2877.025 54045136 54044044 54051588 54068852 54096472 54135168 54185876 
2880.400 54248832 54323996 54411232 54509868 54619308 54739488 54869852 
2883.775 55010032 55159252 55316348 55479676 55648004 55819932 55994948 
2887.151 56173124 56355072 56541664 56734452 56935028 57145716 57369208 
2890.526 57608744 57867872 58150680 58461644 58806104 59190208 59621600 
2893.901 60108704 60660624 61285280 61988104 62769780 63623756 64536108 
2897.276 65483868 66435048 67353208 68198080 68930160 69518616 69942952 
2900.652 70197864 70292976 70253600 70115656 69918432 69703832 69509824 
2904.027 69366168 69297720 69322832 69454264 69702152 70074264 70576752 
2907.402 71214984 71994488 72920584 74000520 75241520 76650608 78232104 
2910.777 79985864 81902584 83962496 86135688 88378968 90637608 92853040 
2914.153 94957632 96884832 98576408 99981768 101067752 101820808 102246600 
2917.528 102367544 102216704 101834288 101257216 100515504 99630456 98611960 
2920.903 97461832 96177416 94755152 93196328 91509744 89713080 87833608 
2924.278 85906864 83969856 82061856 80218680 78467712 76830704 75319816 
2927.654 73939040 72686008 71553032 70529424 69602112 68758432 67986448 
2931.029 67275328 66617092 66005900 65437788 64911396 64426028 63981392 
2934.404 63577144 63211484 62881856 62583828 62311888 62059156 61818832 
2937.779 61583756 61347704 61106328 60857344 60601076 60340348 60080124 
2941.155 59826784 59586744 59366096 59169060 58997428 58850304 58723288 
2944.530 58609096 58497392 58377228 58237700 58070264 57871432 57643252 
2947.905 57394392 57137436 56889588 56667812 56486112 56354620 56277592 
2951.280 56253600 56276084 56334928 56418644 56514448 56611224 56699412 
2954.656 56771152 56821340 56846868 56846112 56818884 56765640 56687856 
2958.031 56587632 56467956 56333076 56187792 56037580 55887192 55740852 
2961.406 55601564 55471128 55350524 55240408 55141272 55053848 54978668 
2964.781 54916324 54866620 54828988 54802748 54786924 54780984 54784404 
2968.156 54797036 54818464 54848160 54885720 54930800 54983372 55043920 
2971.532 55113732 55193600 55284548 55386356 55497752 55615912 55737084 
2974.907 55856144 55966864 56062312 56134924 56176780 56181008 56142128 
2978.282 56057108 55925900 55751440 55539168 55296404 55031620 54753732 
2981.657 54471404 54192860 53925336 53674136 53442376 53229920 53033632 
2985.033 52847268 52662672 52472280 52269228 52049724 51813272 51562020 
2988.408 51299392 51028204 50749736 50462032 50160424 49837616 49486936 
2991.783 49103184 48684900 48235128 47761600 47275504 46788224 46310480 
2995.158 45849392 45407552 44983068 44571072 44165596 43761012 43353764 
2998.534 42943240 42530512 42118464 41709800 41306688 40910764 40522404 
3001.909 40142276 39770648 39408228 39055536 38713456 38382100 38061272 
3005.284 37750836 37450632 37160840 36882068 36614972 36359752 36116492 
3008.659 35884196 35661380 35446660 35238332 35035496 34837520 34644416 
3012.035 34456524 34274344 34098368 33928732 33765432 33607664 33454612 
3015.410 33304904 33157430 33011616 32867384 32725450 32586850 32452724 
3018.785 32323778 32199684 32080018 31963698 31850018 31738822 31630326 
3022.160 31525496 31425070 31329904 31240416 31157178 31081398 31014666 
3025.536 30959190 30917420 30890488 30878212 30878568 30887642 30900092 
3028.911 30910694 30914358 30906746 30885150 30847156 30791310 30716872 
3032.286 30623886 30512932 30386018 30245748 30095400 29938574 29778860 
3035.661 29619558 29463328 29312296 29168014 29031288 28902148 28780022 
3039.037 28663772 28552114 28443954 28338544 28235740 28135792 28038902 
3042.412 27945288 27854624 27766592 27680912 27597188 27515600 27436814 
3045.787 27361326 27289942 27222980 27160896 27104146 27053082 27008088 
3049.162 26969408 26936658 26908808 26883532 26858434 26830238 26796368 
3052.538 26755100 26706084 26650240 26589824 26528288 26469296 26416336 
3055.913 26372356 26339086 26316556 26303388 26297194 26295186 26294800 
3059.288 26294130 26292512 26290048 26287336 26285084 26283958 26284802 
3062.663 26288216 26295784 26308882 26329440 26358872 26397354 26444048 
3066.039 26496908 26553472 26610608 26666130 26718030 26764650 26804614 
3069.414 26836476 26858682 26870630 26872218 26864816 26850856 26832952 
3072.789 26813812 26795064 26777584 26761196 26745514 26730714 26717362 
3076.164 26706542 26699354 26696324 26696888 26699568 26701892 26701786 
3079.540 26697628 26688574 26675360 26659260 26642384 26626636 26613778 
3082.915 26604654 26599124 26596446 26594966 26593240 26590316 26586230 
3086.290 26582638 26581968 26586794 26599054 26619204 26645732 26676100 
3089.665 26706966 26735542 26760774 26782728 26802360 26821460 26841234 
3093.041 26862066 26884166 26907678 26932814 26960982 26993772 27032594 
3096.416 27078226 27130246 27186928 27246124 27305784 27364502 27421778 
3099.791 27478322 27535298 27594082 27655450 27719970 27787256 27856144 
3103.166 27925216 27992568 28056752 28116382 28171356 28222270 28270890 
3106.542 28319340 28369634 28423260 28480182 28539730 28600490 28660764 
3109.917 28719484 28776304 28831574 28886142 28941036 28997388 29055732 
3113.292 29117130 29181868 29250198 29322080 29396670 29472796 29549008 
3116.667 29623708 29695832 29764736 29830140 29891862 29949720 30003186 
3120.042 30051902 30096076 30136952 30176622 30218004 30263794 30315984 
3123.418 30374610 30438400 30504546 30570698 30634872 30696460 30756384 
3126.793 30816706 30879138 30944886 31013778 31084422 31154830 31222650 
3130.168 31286352 31345714 31401704 31456668 31513740 31576164 31646400 
3133.543 31725560 31813148 31906926 32003716 32099854 32192514 32279876 
3136.919 32361470 32437906 32510318 32579638 32646536 32711018 32773506 
3140.294 32834292 32894366 32955274 33018656 33085946 33157968 33234720 
3143.669 33315816 33400506 33488326 33578456 33670104 33761992 33852676 
3147.044 33940444 34024544 34104636 34182096 34258924 34337632 34419792 
3150.420 34506100 34595540 34686440 34776424 34863732 34948076 35030284 
3153.795 35111752 35194564 35280020 35368472 35459492 35552156 35645340 
3157.170 35738544 35831624 35925084 36019100 36114404 36210516 36306972 
3160.545 36402844 36497184 36589488 36679724 36768748 36857972 36949128 
3163.921 37043916 37143300 37247152 37354384 37462836 37569944 37673356 
3167.296 37771112 37862500 37947756 38028216 38105512 38181804 38258692 
3170.671 38338052 38420652 38506888 38596360 38687844 38779060 38867432 
3174.046 38949624 39023056 39085988 39138272 39181640 39219680 39257400 
3177.422 39299872 39351596 39415232 39491176 39576900 39667936 39758956 
3180.797 39844804 39921984 39989224 40047868 40101176 40152600 40205808 
3184.172 40263204 40325408 40391984 40461120 40531604 40602436 40673236 
3187.547 40744560 40816772 40890744 40966544 41044472 41124236 41205544 
3190.923 41287744 41370320 41452368 41533080 41611840 41687844 41761080 
3194.298 41831272 41898444 41962784 42024684 42084876 42144492 42205656 
3197.673 42270216 42340232 42416440 42498536 42584488 42671552 42756732 
3201.048 42837980 42914748 42987792 43059132 43131180 43205324 43282268 
3204.424 43360904 43439812 43516716 43589684 43657204 43718688 43774240 
3207.799 43825076 43873056 43920856 43971524 44027588 44090260 44159216 
3211.174 44232216 44305924 44377076 44443580 44505576 44565236 44625708 
3214.549 44690340 44760456 44835648 44912952 44989204 45060872 45126416 
3217.925 45186524 45243812 45301808 45363376 45430728 45504128 45582504 
3221.300 45664100 45746740 45828772 45908976 45986688 46061620 46133760 
3224.675 46203264 46270304 46335328 46398592 46460428 46521388 46581984 
3228.050 46642888 46705164 46769700 46837308 46907992 46981344 47056260 
3231.426 47131044 47204432 47275360 47343012 47407716 47469620 47529800 
3234.801 47588912 47648512 47709748 47773992 47842496 47915376 47992008 
3238.176 48070504 48149160 48225760 48299040 48368740 48435228 48499280 
3241.551 48561192 48620892 48677816 48732196 48784764 48837888 48894696 
3244.927 48958188 49030256 49110348 49195988 49283384 49368536 49448804 
3248.302 49523364 49593224 49660420 49726812 49793316 49860028 49926408 
3251.677 49991980 50057192 50123084 50191404 50262856 50337448 50413616 
3255.052 50489312 50562564 50632256 50698644 50763296 50827952 50894144 
3258.427 50962400 51031968 51102184 51171288 51238656 51303828 51367076 
3261.803 51428356 51488260 51546388 51602952 51658144 51712820 51767764 
3265.178 51824060 51882304 51942536 52004344 52067056 52129740 52192248 
3268.553 52254204 52315684 52376496 52436312 52494636 52551140 52605368 
3271.928 52657880 52709616 52762292 52817556 52877392 52943188 53015360 
3275.304 53093868 53177828 53265880 53356572 53448264 53539896 53631096 
3278.679 53721868 53813072 53905416 53999844 54096884 54196728 54299704 
3282.054 54405824 54515052 54627836 54743996 54863496 54986116 55111284 
3285.429 55238716 55368328 55500156 55634968 55773364 55915912 56062800 
3288.805 56214040 56369220 56528188 56691064 56858312 57030532 57208532 
3292.180 57392916 57583776 57781036 57984260 58192728 58405692 58622520 
3295.555 58842868 59066632 59294456 59527344 59766364 60012744 60267144 
3298.930 60529384 60798532 61072880 61350948 61631600 61914692 62201180 
3302.306 62492408 62789648 63093692 63404420 63721204 64043328 64370452 
3305.681 64702788 65041580 65388100 65743572 66108020 66481420 66862368 
3309.056 67249416 67641256 68036904 68435792 68838096 69244560 69656408 
3312.431 70075200 70502888 70940864 71389552 71848560 72315576 72788176 
3315.807 73263608 73739880 74216000 74693192 75172608 75656224 76145504 
3319.182 76640760 77141640 77647544 78157168 78669536 79183256 79696720 
3322.557 80207792 80714888 81216296 81711696 82201568 82687304 83170448 
3325.932 83652216 84132296 84609408 85081880 85548024 86006328 86455912 
3329.308 86895672 87324584 87740288 88140600 88523400 88887688 89233632 
3332.683 89562176 89874472 90170720 90449008 90707136 90941688 91150256 
3336.058 91332168 91488312 91620328 91729792 91816928 91880552 91918216 
3339.433 91927432 91906344 91854552 91772232 91660384 91518824 91347256 
3342.809 91144448 90909456 90641736 90341904 90010848 89649416 89257928 
3346.184 88835840 88382576 87897816 87382480 86839136 86270976 85682000 
3349.559 85075032 84451816 83812336 83156048 82482168 81790688 81082776 
3352.934 80361344 79630128 78893816 78156696 77423152 76696264 75978368 
3356.310 75270408 74571968 73882392 73200736 72526384 71860096 71203424 
3359.685 70558744 69928632 69314664 68717488 68136048 67568984 67014284 
3363.060 66470840 65938332 65417952 64911128 64419604 63945076 63488208 
3366.435 63049204 62627836 62223436 61835144 61461516 61100984 60751348 
3369.811 60410564 60076320 59747316 59422396 59100680 58781820 58464828 
3373.186 58148936 57833008 57515948 57197380 56877196 56556192 56234328 
3376.561 55911912 55588156 55261744 54930800 54593684 54248908 53895584 
3379.936 53532848 53160860 52779392 52388836 51989440 51582652 51170208 
3383.312 50754240 50337560 49922540 49510964 49103744 48700836 48301520 
3386.687 47904460 47508024 47110840 46711288 46308344 45901280 45490328 
3390.062 45076972 44663604 44253528 43850660 43458124 43078088 42710816 
3393.437 42354516 42006032 41661980 41319008 40975248 40630668 40286616 
3396.813 39945744 39610508 39283224 38964484 38653836 38348912 38047168 
3400.188 37745668 37441816 37134456 36823460 36510012 36196472 35885240 
3403.563 35578948 35279264 34986936 34701584 34422340 34147580 33875500 
3406.938 33604944 33334814 33064562 32794126 32523640 32253750 31984956 
3410.313 31718396 31454780 31195378 30941008 30691980 30448672 30211008 
3413.689 29978620 29751644 29529538 29311800 29097254 28884442 28671380 
3417.064 28455666 28235988 28011830 27784714 27557468 27334190 27119912 
3420.439 26919030 26734238 26566504 26414538 26275122 26143632 26015138 
3423.814 25884818 25748874 25605104 25453086 25294030 25130536 24965948 
3427.190 24803384 24645266 24492674 24345496 24202504 24061904 23922330 
3430.565 23782908 23643598 23505208 23368470 23234398 23103300 22974514 
3433.940 22847548 22721142 22594492 22467462 22340504 22214596 22091164 
3437.315 21970970 21853984 21738840 21623622 21505684 21382662 21253652 
3440.691 21119258 20981842 20844716 20710726 20581498 20456168 20331812 
3444.066 20204330 20070744 19929844 19784380 19639864 19504026 19383924 
3447.441 19284086 19204530 19141468 19087418 19034518 18976500 18909114 
3450.816 18831252 18744442 18651148 18553898 18454180 18352792 18250042 
3454.192 18146110 18041616 17937734 17835706 17736534 17640004 17545706 
3457.567 17451944 17356582 17257932 17154478 17045778 16932416 16816194 
3460.942 16699759 16586421 16479032 16380031 16290030 16208300 16132435 
3464.317 16059985 15988303 15916565 15844634 15773848 15704859 15637804 
3467.693 15570657 15500637 15424139 15339141 15244894 15143599 15038659 
3471.068 14934429 14834235 14739378 14649238 14562438 14476821 14391426 
3474.443 14306323 14222845 14142497 14065724 13992045 13919062 13843902 
3477.818 13763898 13677003 13582774 13482208 13378215 13274280 13175118 
3481.194 13085710 13010319 12951531 12910125 12883263 12865719 12850326 
3484.569 12830020 12799340 12756174 12702026 12641746 12581677 12527380 
3487.944 12482400 12446869 12418467 12393135 12366271 12335453 12298844 
3491.319 12256920 12210570 12160750 12108754 12055403 12002262 11951205 
3494.695 11905058 11866442 11837329 11818875 11810328 11809205 11812303 
3498.070 11815538 11815095 11807469 11789764 11760588 11719737 11669803 
3501.445 11615790 11565902 11529017 11514046 11527418 11570802 11640634 
3504.820 11728350 11823368 11914730 11993917 12056800 12104053 12140374 
3508.196 12173085 12210297 12259101 12323863 12405681 12502281 12609817 
3511.571 12722531 12835275 12944124 13046511 13141272 13228915 13310255 
3514.946 13386108 13456404 13521037 13579116 13630331 13674780 13713181 
3518.321 13746182 13773988 13796048 13810688 13816058 13811133 13796220 
3521.697 13773577 13746286 13717388 13688047 13656726 13617919 13565065 
3525.072 13491607 13394002 13273153 13134613 12988161 12844422 12712535 
3528.447 12597810 12501054 12417853 12341044 12263464 12178231 12081362 
3531.822 11970415 11845331 11707007 11557089 11397971 11232893 11065634 
3535.198 10900648 10741941 10592525 10453039 10322079 10196349 10071232 
3538.573 9942219 9806668 9662182 9508633 9346946 9178957 9007176 8834855 
3542.430 8665035 8501161 8346199 8202130 8070700 7952537 7848207 7758371 
3546.288 7683258 7622286 7573225 7530947 7488234 7436997 7369960 7283290 
3550.145 7178378 7062311 6945634 6840804 6757739 6700868 6668230 6652113 
3554.002 6642390 6628966 6605281 6568781 6520210 6462529 6398635 6330279 
3557.860 6257900 6180357 6096477 6005156 5906128 5799903 5687023 5567427 
3561.717 5440482 5303814 5154213 4987938 4801825 4594361 4368788 4133397 
3565.575 3904687 3706005 3562097 3495723 3518670 3627312 3802827 4016201 
3569.432 4237375 4437840 4598480 4708966 4767420 4778910 4752412 4699052 
3573.290 4629188 4551634 4472655 4396200 4324343 4257752 4196390 4139753 
3577.147 4087605 4039711 3996270 3957615 3923878 3894423 3867711 3841034 
3581.004 3810816 3772244 3720876 3651537 3559458 3440446 3291585 3112272 
3584.862 2906513 2684649 2464031 2268771 2127037 2062680 2088981 2201962 
3588.719 2381665 2595375 2806556 2984909 3108367 3166939 3161966 3104329 
3592.577 3011433 2902077 2795851 2706987 2643144 2605742 2590242 2588909 
3596.434 2592342 2592175 2582509 2560211 2526282 2485591 2446071 2417382 
3600.292 2408386 2425079 2467697 2530548 2601975 2668380 2714289 2726492 
3604.149 2695518 2616175 2488524 2318103 2117248 1903042 1696292 1519797 
3608.006 1390473 1315922 1289335 1291960 1298175 1282854 1231514 1143269 
3611.864 1032257 921573 838404 802352 817622 870839 934489 977260 969589 
3616.203 894313 749542 551800 333423 137163 10139 -10768 90531 306299 606378 
3621.025 947805 1283851 1577956 1804612 1950934 2015008 1999663 1908932 
3624.883 1742897 1497786 1167853 751666 263495 -257706 -745604 -1108508 
3628.740 -1262227 -1167398 -850611 -393354 106936 565568 935320 1201875 
3632.597 1376712 1486482 1562293 1630102 1702778 1779858 1850496 1902210 
3636.455 1925872 1920680 1892659 1852792 1811300 1773737 1740368 1706570 
3640.312 1666888 1617065 1555842 1483755 1399348 1296480 1162405 977592 
3644.170 721794 377859 -61127 -588988 -1182764 -1803513 -2404825 -2935507 
3648.027 -3348670 -3607914 -3687033 -3572095 -3263767 -2782313 -2171106 
3651.402 -1491714 -819029 -223067 243437 546757 681737 669890 560028 416429 
3655.742 308355 291445 386979 580996 833424 1099120 1340017 1533629 1673507 
3660.082 1764588 1817255 1843276 1852892 1853558 1849032 1840381 1825308 
3663.939 1798423 1750681 1670879 1546797 1366574 1121443 808692 436395 26607 
3668.279 -377663 -709383 -890789 -848693 -545904 -2385 705366 1470955 
3672.136 2199530 2822930 3315557 3691702 3995534 4282614 4591849 4920474 
3675.993 5213028 5387977 5371371 5135135 4698550 4122024 3486036 2876427 
3679.851 2367040 1996867 1767815 1649126 1596013 1564188 1522823 1457491 
3683.708 1361921 1230484 1051654 807199 478520 56132 -449628 -1002439 
3687.566 -1543619 -1997985 -2300950 -2416357 -2345080 -2115879 -1769591 
3690.941 -1346168 -877165 -390507 86057 526388 906033 1207657 1426939 
3694.798 1571571 1659570 1711394 1745026 1767415 1773138 1746523 1668850 
3698.656 1526913 1319311 1060855 781108 523269 330206 235481 253615 374642 
3702.995 568289 791132 1000640 1159681 1241881 1233940 1132937 943887 676660 
3707.335 344432 -37009 -451779 -879083 -1294339 -1668700 -1967377 -2155346 
3711.192 -2204370 -2098304 -1842480 -1463051 -1005083 -518701 -52448 353319 
3715.050 673540 895840 1021098 1061087 1035745 969257 881862 788277 693817 
3719.389 597320 494840 386282 278116 183767 119232 96066 116813 173226 
3723.729 249106 326625 394971 453112 510398 579901 671151 781108 892055 
3728.069 973574 989647 910649 717580 409464 3214 -463993 -942732 -1385177 
3732.408 -1754015 -2034626 -2233181 -2367193 -2450130 -2483208 -2453622 
3735.783 -2343861 -2145191 -1868511 -1543256 -1209892 -907685 -664392 
3739.159 -497024 -413978 -419771 -521349 -729793 -1058699 -1515983 -2090852 
3743.016 -2740796 -3374085 -3865525 -4106835 -4059962 -3788967 -3419191 
3746.391 -3087758 -2889890 -2871556 -3034096 -3340911 -3724617 -4096955 
3749.767 -4375763 -4499014 -4437557 -4194133 -3792974 -3272712 -2679978 
3753.142 -2070275 -1499638 -1014438 -647751 -413051 -304328 -299759 -367433 
3756.999 -473161 -583495 -673291 -724500 -722714 -656750 -519826 -315189 
3760.857 -61094 208065 447075 615469 685155 651240 532492 369303 211778 
3765.196 99579 50399 51393 69388 64152 8946 -98297 -232141 -346841 -393652 
3770.018 -334458 -160571 107632 427540 751832 1039963 1264079 1413509 
3773.875 1489507 1501310 1460117 1374850 1250321 1086929 885747 653165 
3777.733 404324 167889 -19349 -122843 -119829 -12126 173988 392185 594765 
3782.073 744895 824195 837375 807066 767332 748845 771979 840595 944451 
3786.412 1065006 1183004 1285446 1365244 1420889 1454166 1467797 1464771 
3790.270 1447717 1419792 1381731 1331243 1260290 1155362 1002001 788842 
3794.127 515639 197722 -131422 -429999 -658470 -795945 -851835 -865393 
3797.984 -894723 -994009 -1201830 -1523775 -1928189 -2340829 -2661042 
3801.360 -2798774 -2705432 -2403474 -1972885 -1522752 -1149487 -914100 
3804.735 -840426 -909834 -1067888 -1229485 -1307718 -1238737 -1006934 
3808.110 -647552 -227902 180187 525293 779514 936283 1002599 988153 898065 
3812.450 728963 472582 123773 -309692 -794754 -1272502 -1670614 -1922845 
3816.307 -2005043 -1946959 -1826643 -1732861 -1738735 -1883522 -2161182 
3819.682 -2519051 -2860365 -3074434 -3065715 -2798543 -2313870 -1711112 
3823.058 -1106822 -589782 -215251 3479 86786 78899 34560 1259 9343 61236 
3827.879 135473 196728 212043 160961 41353 -131754 -331214 -526346 -695191 
3832.219 -828851 -933574 -1025215 -1123809 -1246468 -1403012 -1595220 
3835.594 -1815919 -2050951 -2277022 -2465516 -2588224 -2620996 -2553211 
3838.969 -2390853 -2155742 -1877683 -1586967 -1309931 -1061641 -846147 
3842.345 -657312 -482395 -305984 -116218 90399 307393 519189 705698 845873 
3846.684 921938 923333 844247 683430 439181 108527 -315950 -843336 -1478373 
3851.024 -2212677 -3012939 -3802631 -4465794 -4866922 -4899751 -4547578 
3854.399 -3895770 -3089667 -2263507 -1508653 -868435 -349887 54144 354148 
3858.257 558070 670222 694116 636474 509801 332196 122679 -100417 -323400 
3862.596 -536837 -730719 -891218 -999662 -1037875 -999298 -897567 -770775 
3866.454 -669189 -643152 -726419 -923457 -1202590 -1496336 -1723983 -1813445 
3870.311 -1736821 -1521497 -1235499 -952486 -721258 -558115 -444431 -342702 
3874.168 -210350 -22298 218341 480411 718243 886643 951325 899061 737560 
3878.508 496366 218839 -41117 -232538 -323466 -308235 -211476 -76764 44236 
3882.848 107632 90365 -6328 -153151 -300786 -387892 -367930 -228034 4042 
3887.187 271751 512289 671649 721064 658275 507180 311339 126491 7289 -12425 
3892.009 75983 253251 485287 731519 955874 1132472 1243144 1277670 1232976 
3896.349 1110481 917953 668695 383132 86488 -195181 -437612 -626080 -757644 
3900.688 -840691 -889631 -918299 -934037 -933210 -902593 -823064 -679610 
3904.546 -466012 -190379 128678 464290 790302 1086265 1338023 1538916 
3908.403 1689007 1792202 1855954 1888698 1900313 1899414 1892758 1883440 
3912.260 1870495 1848034 1807374 1740601 1642707 1515042 1366375 1212043 
3916.118 1071351 961287 893881 872599 893184 945779 1019670 1104833 1192373 
3920.458 1274546 1343707 1392035 1413476 1405864 1373056 1325659 1278900 
3924.315 1249856 1250886 1285812 1347761 1422418 1491868 1539847 1557438 
3928.172 1543106 1502740 1446088 1384689 1328418 1284283 1256668 1248195 
3932.030 1260589 1294452 1348393 1418695 1498418 1578920 1652087 1711460 
3935.887 1754840 1783784 1803081 1817488 1830099 1840281 1843775 1834025 
3939.745 1804945 1754141 1684749 1605525 1528941 1469226 1437245 1437843 
3943.602 1468329 1519298 1578255 1631200 1667653 1681789 1673008 1645900 
3947.459 1608385 1570141 1539847 1523588 1523687 1539149 1566483 1600769 
3951.317 1638051 1674804 1709232 1740335 1768114 1792568 1813961 1832461 
3955.174 1848400 1862276 1874855 1886768 1898150 1909165 1919083 1927370 
3959.032 1933593 1937787 1940649 1943445 1947372 1953330 1961751 1972468 
3962.889 1984817 1997899 2010914 2022798 2033051 2040807 2045402 2046866 
3966.747 2045235 2041240 2036313 2031520 2028224 2026726 2026893 2027625 
3970.604 2027558 2025961 2022565 2017771 2013344 2011147 2013244 2021300 
3974.461 2035947 2057120 2083421 2112687 2142521 2170192 2193669 2211420 
3978.319 2223109 2229304 2231369 2231002 2229903 2229170 2229404 2230603 
3982.176 2232334 2233900 2234200 2232934 2229204 2222776 2213551 2201895 
3986.034 2188441 2174255 2160202 2147216 2135861 2126471 2118813 2112754 
3989.891 2108458 2105662 2104230 2103697 2103397 2102399 2100035 2096106 
3993.749 2091312 2087017 2084653 2085452 2089813 2096838 2104629 2111222 
3997.606 2115051 2115384 2112354 2107060 2100468 2093875 2087516 
##END=
