
##TITLE=Z351_3_b
##JCAMP-DX=5.01  $$ Nicolet v. 1
##DATATYPE=INFRARED SPECTRUM
##ORIGIN=UniL
##OWNER=Nicolet
##LONGDATE=2011/09/13
##TIME=14:53:22
##SPECTROMETER/DATA SYSTEM=Nicolet iS5
##DATA PROCESSING=
Ratio against background
%Transmittance->Absorbance
Truncated
ElementMultiply or ElementDivide
##COMMENTS=
Number of sample scans: 32
Collection length: 51.21 sec
Sample gain: 2.0
Background collected on: Mar Sep 13 14:49:03 2011 (GMT+02:00);
Number of background scans: 32
Background gain: 2.0
Sample spacing:  1.000
Number of scan points: 12415
Resolution points: 8192
Number of FFT points: 65536
Apodization: N-B fort;
Phase correction: Mertz;
Laser frequency: 15798.0 cm-1
Number of rejected sample scans: 0
Number of rejected background scans: 0
Bench serial number: ASB1000141;
##RESOLUTION=4.000
##XUNITS=1/CM
##YUNITS=ABSORBANCE
##FIRSTX=649.893372
##LASTX=4000.122314
##FIRSTY=0.109172
##MAXX=4000.122314
##MINX=649.893372
##MAXY=0.291809
##MINY=0.004957
##XFACTOR=1.000000
##YFACTOR=1.000000E-009
##NPOINTS=6950
##DELTAX=0.482117
##ZPD=6100
##XYDATA=(X++(Y..Y))
649.893 109171520 108616280 108153040 107817216 107617736 107536784 
652.786 107544128 107612600 107731440 107904376 108141048 108447096 
655.679 108815248 109231336 109687536 110194560 110784240 111503112 
658.571 112393880 113472488 114724456 116109368 117587280 119137448 
661.464 120774336 122535408 124463056 126572624 128840984 131207528 
664.357 133601416 135965152 138253648 140433712 142454032 144209264 
667.250 145547072 146307264 146407824 145894656 144905808 143583424 
670.142 142013328 140222848 138210000 135977120 133561448 131038056 
673.035 128497016 126028896 123689920 121497280 119441440 117504320 
675.928 115677776 113967624 112387736 110947752 109643392 108454200 
678.820 107351224 106304120 105292880 104308296 103349032 102414728 
681.713 101502944 100607776 99724320 98854112 98006968 97196760 96437488 
685.088 95735632 95086384 94476928 93891824 93321016 92762936 92224512 
688.463 91714440 91238464 90792976 90364344 89933320 89481880 88997768 
691.838 88476936 87923048 87343216 86747128 86143960 85545680 84968200 
695.212 84430608 83954216 83557336 83249992 83031552 82891976 82815552 
698.587 82785880 82792168 82831832 82908616 83029952 83201192 83423096 
701.962 83690584 83994336 84323568 84669320 85025456 85387664 85751784 
705.337 86112728 86463632 86798992 87116024 87417896 87712832 88013608 
708.712 88335024 88691712 89100464 89582296 90163912 90881648 91773096 
712.086 92868384 94177608 95676896 97300752 98940400 100467944 101750400 
715.461 102676128 103185032 103271392 102990064 102438096 101751816 
718.354 101084776 100582840 100387024 100608400 101312152 102507144 
721.247 104126376 106028376 107987816 109739200 111020176 111603912 
724.139 111370304 110325264 108609808 106455784 104143144 101942800 
727.032 100043176 98548016 97470424 96760480 96336176 96114736 96034960 
730.407 96055168 96149672 96299488 96483824 96679952 96868936 97040088 
733.782 97194392 97340552 97490128 97649608 97817464 97986008 98147512 
737.156 98299224 98446336 98599488 98769248 98961296 99173368 99396496 
740.531 99620536 99839400 100052856 100265464 100482480 100705360 100931080 
743.906 101153320 101367136 101572600 101775688 101984408 102203752 
746.799 102431128 102655520 102862272 103039120 103182048 103298120 
749.692 103400816 103504464 103616040 103732992 103844920 103940712 
752.584 104013536 104066800 104111056 104160784 104226408 104310488 
755.477 104407192 104506224 104598752 104680584 104753792 104824728 
758.370 104901128 104988840 105091768 105213208 105356264 105524712 
761.262 105720616 105943200 106187488 106445240 106710184 106982272 
764.155 107272912 107605304 108016456 108552072 109259032 110181632 
767.048 111348168 112757656 114365752 116075088 117744424 119192032 
769.940 120247864 120796392 120814072 120393816 119729232 119073944 
772.833 118645312 118571208 118834632 119279936 119643416 119631896 
775.726 119028264 117733080 115801600 113403512 110779448 108159712 
778.619 105703712 103494368 101530320 99757880 98099992 96489952 94886232 
781.993 93274352 91663296 90075920 88543112 87094968 85759736 84562144 
785.368 83519464 82642736 81935592 81396464 81020888 80805792 80751560 
788.743 80863264 81149592 81620240 82285056 83153120 84233816 85539464 
792.118 87085776 88890976 90973232 93343408 95999824 98920552 102064200 
795.493 105367072 108743176 112097776 115328176 118335176 121046240 
798.385 123425344 125493616 127327904 129062952 130861280 132867592 
801.278 135178752 137791280 140582400 143289488 145550000 146971424 
804.171 147177184 145929664 143184048 139116976 134084640 128546832 
807.063 122979200 117731296 112993768 108773952 104936984 101268432 97557392 
810.438 93676312 89598752 85403312 81226448 77227416 73537704 70233656 
813.813 67343384 64851068 62718140 60897028 59343948 58022732 56901296 
817.188 55952584 55152968 54482408 53926496 53476780 53127832 52876384 
820.563 52717956 52646324 52655300 52740556 52902280 53145208 53477904 
823.938 53909732 54447624 55095188 55850340 56705940 57647188 58652024 
827.312 59690780 60724484 61712452 62619416 63423516 64127736 64764248 
830.687 65398000 66113568 67011192 68193312 69739152 71694672 74047040 
834.062 76714096 79523512 82217496 84496328 86025640 86519104 85806080 
837.437 83859392 80820040 76954584 72622712 68182840 63935824 60110720 
840.812 56827608 54119856 51956428 50270744 48982404 48011844 47293684 
844.186 46771620 46399216 46141352 45970520 45868172 45823728 45831056 
847.561 45884856 45979068 46105280 46255044 46422592 46606848 46811584 
850.936 47043300 47308796 47612020 47953860 48333260 48749468 49203632 
854.311 49699576 50241800 50834916 51482032 52186268 52952812 53792328 
857.686 54720172 55758520 56932420 58267216 59790204 61530308 63517964 
861.060 65787248 68366632 71267064 74463960 77881768 81386632 84776648 
864.435 87819088 90274144 91925216 92635368 92359816 91162344 89196320 
867.810 86691776 83919928 81133496 78564224 76389000 74713736 73592496 
871.185 73027080 72982672 73395184 74180976 75245032 76471816 77737648 
874.560 78917224 79883184 80533976 80803160 80669880 80163200 79354856 
877.935 78348920 77252824 76167384 75169776 74298320 73555760 72912000 
881.309 72318976 71720664 71071344 70348840 69556888 68725720 67899976 
884.684 67131952 66464848 65925644 65525204 65260312 65121480 65099964 
888.059 65193012 65404660 65742568 66212892 66816880 67548776 68397816 
891.434 69351440 70398840 71533960 72754680 74061152 75453592 76929896 
894.809 78483240 80101560 81762368 83430240 85054240 86561408 87865488 
898.183 88877360 89511480 89711128 89455056 88764504 87696608 86338512 
901.558 84795936 83171696 81565184 80062432 78727128 77606344 76729120 
904.933 76108000 75744936 75634256 75767776 76136744 76734896 77558800 
908.308 78607224 79879120 81373960 83090368 85026752 87181352 89550368 
911.683 92125568 94890392 97815808 100863656 103988320 107144744 110301768 
915.058 113447272 116594960 119779688 123054936 126479776 130102176 
917.950 133949088 138005520 142205472 146409728 150411968 153958576 
920.843 156754080 158535488 159125008 158477456 156719936 154150000 
923.736 151225824 148462208 146394416 145505344 146117776 148379280 
926.628 152209648 157319648 163201456 169190672 174602208 178750656 
929.521 181099296 181342096 179395408 175394384 169616112 162434848 
932.414 154243136 145416368 136325056 127294048 118608560 110523768 
935.306 103227600 96854720 91487208 87151176 83837728 81513768 80134112 
938.681 79642464 79965664 81008144 82627136 84627448 86782160 88823408 
942.056 90491736 91579864 91942576 91533920 90402696 88683784 86561576 
945.431 84236192 81904904 79718936 77782512 76152856 74843000 73837384 
948.806 73102472 72600624 72293064 72143320 72120320 72193984 72336664 
952.181 72526144 72744848 72982392 73236232 73508856 73805224 74129216 
955.555 74482080 74862008 75265952 75690616 76134536 76597400 77079240 
958.930 77579128 78094464 78621840 79158808 79705040 80263160 80836968 
962.305 81430152 82044088 82677320 83326336 83987896 84660784 85346568 
965.680 86048912 86771520 87516128 88281952 89065968 89865472 90680192 
969.055 91511832 92364696 93242360 94146544 95075864 96027968 97000312 
972.429 97993480 99010440 100056152 101135080 102249112 103396904 104575944 
975.804 105784656 107024248 108299872 109618152 110985648 112406240 
978.697 113881312 115411800 117001536 118659152 120399024 122237496 
981.590 124189984 126266432 128469272 130793672 133227648 135753504 
984.482 138344016 140957168 143536528 146003680 148263424 150222272 
987.375 151790768 152905600 153539408 153703408 153446080 152843360 
990.268 151998880 151026816 150041808 149158768 148471712 148050176 
993.160 147937856 148147696 148670816 149482944 150556896 151867152 
996.053 153393712 155122784 157041664 159135952 161389984 163786080 
998.946 166307760 168941472 171671760 174477456 177327312 180173056 
1001.839 182955616 185614208 188091712 190350704 192377168 194180848 
1004.731 195791536 197254608 198628992 199978768 201374576 202889296 
1007.624 204584400 206508224 208686928 211122416 213796720 216678784 
1010.517 219735968 222935664 226248128 229644160 233086608 236531680 
1013.409 239933696 243248352 246443984 249502176 252410944 255154224 
1016.302 257698304 259983008 261930144 263453488 264476832 264958704 
1019.195 264900240 264352800 263407760 262198512 260888096 259644128 
1022.087 258643712 258045136 257964256 258475072 259593584 261286880 
1024.980 263479984 266078000 268983424 272094304 275315648 278549504 
1027.873 281680928 284588672 287145376 289226976 290738304 291611520 
1030.766 291808512 291314688 290129056 288260800 285730656 282577856 
1033.659 278862528 274657792 270047232 265108144 259901888 254479888 
1036.552 248886000 243165920 237378976 231594544 225887280 220335840 
1039.446 215007824 209960768 205243136 200886480 196905248 193285248 
1042.339 189976496 186882944 183862416 180755184 177391600 173631984 
1045.232 169400784 164693712 159585104 154204992 148728304 143337824 
1048.125 138195552 133442536 129174728 125443992 122265952 119623168 
1051.018 117476440 115772280 114455480 113473088 112776768 112327008 
1053.911 112086416 112014712 112067800 112190736 112319376 112389888 
1056.804 112337824 112108544 111664832 110986040 110072584 108945264 
1059.697 107647960 106243384 104807400 103430416 102201152 101200040 
1062.590 100497216 100140640 100157920 100556024 101322200 102424456 
1065.483 103810744 105413536 107145384 108902216 110580272 112074920 
1068.376 113297784 114189656 114717552 114877928 114688040 114180864 
1071.269 113395992 112372544 111149888 109762488 108240648 106614200 
1074.162 104912432 103168312 101423920 99726944 98132560 96701232 95486672 
1077.538 94535920 93882288 93540464 93507624 93761624 94265248 94963408 
1080.913 95785536 96653344 97476768 98168280 98657576 98897168 98878736 
1084.288 98634912 98240888 97799120 97426216 97246208 97364560 97865032 
1087.663 98802816 100196216 102026904 104235888 106734200 109399296 
1090.556 112087568 114661192 116988048 118963856 120523808 121635584 
1093.449 122299232 122536328 122384248 121887456 121092568 120051720 
1096.343 118818864 117450344 116010464 114562880 113168472 111878744 
1099.236 110721048 109691552 108746496 107808768 106771024 105514064 
1102.129 103939408 101979880 99622872 96912008 93944888 90855664 87785256 
1105.504 84878592 82256864 80006016 78184176 76815752 75899440 75415272 
1108.879 75331440 75608312 76198696 77053320 78118656 79333032 80633464 
1112.254 81948880 83201792 84318984 85229912 85876816 86224776 86260136 
1115.630 85993488 85452608 84680112 83724776 82634160 81455728 80229680 
1119.005 78988072 77755680 76548352 75374600 74238608 73142384 72089184 
1122.380 71084728 70137304 69255712 68446416 67710880 67044788 66439100 
1125.755 65884688 65376116 64915932 64515852 64196332 63981780 63893944 
1129.131 63949032 64151084 64491980 64950028 65492920 66080660 66665456 
1132.506 67200872 67645440 67967432 68153144 68209240 68162912 68055200 
1135.881 67936472 67857088 67855616 67956272 68163576 68463024 68822216 
1139.256 69194856 69529736 69770008 69863472 69769080 69456248 68909504 
1142.632 68128296 67123600 65915540 64530464 63001440 61362972 59652540 
1146.007 57909592 56170184 54468060 52832372 51283396 49835532 48496504 
1149.382 47268488 46151372 45143988 44244800 43452372 42764448 42177392 
1152.757 41686564 41286904 40974008 40745544 40600364 40538920 40561180 
1156.133 40666616 40853356 41119760 41465124 41890452 42398756 42993392 
1159.508 43677100 44450776 45312764 46259136 47283452 48377260 49527712 
1162.883 50716856 51922036 53113044 54256116 55318116 56265972 57072400 
1166.258 57716740 58183980 58466156 58562112 58477680 58225236 57823548 
1169.634 57296956 56670984 55972404 55227464 54458672 53688008 52935852 
1173.009 52220832 51561608 50975440 50475916 50074036 49776968 49588620 
1176.384 49511668 49548952 49704368 49983544 50392776 50938220 51625528 
1179.759 52459680 53445976 54591164 55902796 57389820 59060672 60922112 
1183.135 62978224 65229588 67671728 70292088 73064520 75948808 78879752 
1186.510 81770048 84519440 87010760 89130248 90781296 91885424 92397768 
1189.885 92308960 91645736 90466272 88853168 86909400 84738424 82441344 
1193.260 80112232 77825120 75640136 73601648 71736064 70057408 68567696 
1196.635 67259784 66118972 65124944 64255036 63482300 62779048 62118140 
1200.011 61471212 60812024 60118176 59371112 58560444 57684876 56753896 
1203.386 55786360 54807896 53848588 52935928 52092868 51335564 50671536 
1206.761 50102336 49625096 49235060 48926624 48693792 48530256 48428264 
1210.136 48379556 48377036 48415524 48493980 48615220 48785800 49013116 
1213.512 49304204 49664248 50095940 50599752 51174308 51816484 52520400 
1216.887 53277040 54074856 54899892 55738028 56578160 57412356 58236868 
1220.262 59051560 59858428 60661192 61464684 62276628 63107640 63970724 
1223.637 64881616 65854488 66899932 68022456 69219336 70480592 71788520 
1227.013 73121176 74451368 75747024 76976456 78108104 79115200 79980720 
1230.388 80698896 81276744 81732448 82096400 82408736 82716000 83076328 
1233.763 83554480 84216960 85135696 86376952 87996080 90038944 92534944 
1237.138 95498968 98932368 102824856 107152888 111875568 116937080 122260944 
1240.514 127749624 133300512 138801808 144141104 149217632 153931792 
1243.407 158189200 161906928 165007584 167428368 169125280 170069344 
1246.300 170248128 169662736 168328576 166276624 163553808 160225872 
1249.193 156365920 152045280 147326944 142254640 136857648 131160248 
1252.086 125192224 119002072 112665008 106274280 99944152 93797112 87942000 
1255.461 82478640 77481008 72989408 69016272 65543816 62532580 59925024 
1258.836 57655508 55657832 53864076 52215304 50663532 49170936 47715076 
1262.212 46285672 44882604 43512396 42184804 40910368 39697924 38555516 
1265.587 37489636 36505184 35605236 34789780 34055256 33394496 32798414 
1268.962 32259102 31771154 31333286 30947590 30618160 30348672 30141036 
1272.337 29996192 29914684 29898428 29950892 30076438 30278324 30555626 
1275.713 30902156 31304474 31741746 32188624 32614176 32984372 33267808 
1279.088 33435538 33468284 33360324 33120848 32772470 32345228 31873084 
1282.463 31383932 30896214 30419814 29957070 29508400 29076704 28669186 
1285.838 28297272 27974052 27710012 27512070 27383276 27324168 27335812 
1289.214 27420192 27580488 27818978 28135296 28524868 28979038 29486024 
1292.589 30032230 30600740 31172024 31723530 32229234 32664400 33010184 
1295.964 33257828 33412314 33491944 33526302 33548028 33589732 33680132 
1299.339 33840144 34084676 34421660 34850772 35360888 35926992 36512644 
1302.715 37067620 37537140 37872912 38034688 38001456 37770972 37359116 
1306.090 36795148 36115628 35363656 34580724 33805612 33073396 32409594 
1309.465 31830550 31342652 30943784 30626696 30382854 30206070 30093092 
1312.840 30042704 30053570 30122604 30244506 30413594 30625522 30879388 
1316.216 31176758 31519938 31908960 32339982 32804344 33292420 33795800 
1319.591 34309804 34833720 35368544 35913208 36461940 37002528 37516764 
1322.966 37985688 38390788 38718888 38964992 39133556 39240316 39309408 
1326.341 39375760 39478732 39655156 39935900 40335952 40852080 41461920 
1329.717 42130512 42819736 43495000 44134528 44730628 45287608 45816620 
1333.092 46331164 46844100 47364700 47900800 48458604 49042200 49653064 
1336.467 50288300 50940456 51598064 52247964 52879076 53482700 54053276 
1339.842 54587712 55083752 55539508 55954088 56328512 56666980 56976204 
1343.218 57264292 57538076 57801324 58054132 58294196 58518284 58724012 
1346.593 58909800 59071752 59199476 59274328 59265896 59137244 58852924 
1349.968 58385228 57723928 56880260 55889152 54803540 53686360 52608996 
1353.343 51637916 50829180 50227592 49856384 49717520 49788156 50026816 
1356.719 50377112 50776292 51170060 51513892 51778216 51950152 52029776 
1360.094 52029816 51973344 51897016 51849336 51883724 52055480 52405132 
1363.469 52946408 53662476 54507384 55416696 56310976 57111852 57744668 
1366.844 58140112 58248916 58044432 57530700 56741812 55737572 54593196 
1370.219 53379916 52162208 50989820 49894700 48901408 48031384 47306984 
1373.595 46755492 46401060 46256816 46317892 46560848 46952216 47456832 
1376.970 48050740 48725224 49486864 50354600 51355664 52524888 53900052 
1380.345 55523200 57433232 59650108 62156140 64871960 67658568 70307712 
1383.720 72570744 74209080 74999192 74784104 73504344 71228648 68168696 
1387.096 64641608 61031464 57671364 54781096 52458072 50687920 49392404 
1390.471 48466348 47810424 47338500 46979648 46681812 46403936 46117252 
1393.846 45808076 45475832 45132700 44795128 44477572 44186728 43920784 
1397.221 43673872 43441860 43226996 43040840 42901508 42828368 42836704 
1400.597 42932672 43114016 43372544 43698096 44081204 44514280 44993760 
1403.972 45518364 46088736 46704720 47364368 48062804 48793472 49550516 
1407.347 50330640 51134536 51965352 52826948 53722164 54650684 55610376 
1410.722 56598356 57611016 58642884 59682724 60707872 61684532 62571124 
1414.098 63325176 63920276 64353012 64648912 64854948 65034300 65255352 
1417.473 65577224 66047908 66692308 67505808 68454336 69481560 70525680 
1420.848 71529352 72451048 73269648 73984656 74620600 75224384 75861320 
1424.223 76592896 77459032 78466088 79586624 80773952 81976536 83156808 
1427.599 84291504 85372584 86403192 87394512 88364632 89337448 90348512 
1430.974 91441112 92656000 94026800 95568008 97276008 99133272 101124000 
1434.349 103246512 105516008 107964656 110623440 113503336 116572384 
1437.242 119765064 123007568 126236528 129404816 132463840 135353888 
1440.135 137979120 140209024 141906784 142930544 143165584 142543952 
1443.028 141043568 138696656 135584640 131844176 127648488 123181864 
1445.921 118642784 114209696 110037696 106263192 102980776 100233536 
1448.814 98002112 96216448 94778184 93593440 92606584 91809072 91236456 
1452.190 90940632 90963344 91307064 91931240 92752152 93661520 94552472 
1455.565 95323224 95913904 96329272 96656240 97028568 97569880 98368208 
1458.940 99458816 100846440 102521952 104465088 106641344 108990488 
1461.833 111433512 113855768 116105736 118023264 119449464 120280864 
1464.726 120512088 120249960 119677808 118981504 118317072 117778104 
1467.619 117403104 117198040 117144752 117206464 117317184 117378488 
1470.512 117255848 116783008 115812296 114269136 112204768 109791112 
1473.406 107259592 104816000 102581200 100606728 98907568 97493024 96385904 
1476.781 95612392 95180344 95066256 95211992 95542328 95977712 96458712 
1480.156 96957776 97478184 98049288 98712056 99510440 100482352 101663456 
1483.531 103096288 104831736 106926800 109430800 112363752 115690144 
1486.424 119294240 122989840 126504688 129504176 131645872 132591784 
1489.317 132088032 130039320 126545608 121901136 116502144 110762480 
1492.210 105000144 99400328 94054856 88977952 84162056 79628216 75435816 
1495.586 71689552 68515080 66011572 64218156 63103156 62591708 62589720 
1498.961 63010820 63788548 64867644 66198544 67734536 69422616 71205656 
1502.336 73027200 74814144 76477184 77902064 78918416 79306696 78816456 
1505.711 77233712 74512728 70870840 66747056 62592512 58699204 55159888 
1509.087 51940144 48969796 46199208 43611960 41226604 39075948 37181524 
1512.462 35549024 34162456 32994312 32014630 31197764 30523064 29969460 
1515.837 29515850 29143350 28838690 28600384 28436808 28357750 28366098 
1519.212 28452232 28593234 28762284 28938980 29123650 29337820 29615196 
1522.588 29979718 30432644 30957304 31528808 32129108 32752498 33409774 
1525.963 34121988 34911952 35791360 36756992 37794100 38885368 40018620 
1529.338 41190244 42406644 43679812 45023532 46451208 47972432 49589920 
1532.713 51296708 53072604 54885492 56697072 58474796 60195356 61845152 
1536.089 63409136 64867960 66200852 67377936 68370976 69156272 69719896 
1539.464 70055032 70158880 70039304 69714992 69220072 68596056 67877040 
1542.839 67076804 66184996 65178880 64040832 62781000 61442968 60093788 
1546.214 58795784 57577720 56430000 55311308 54173000 52983580 51751604 
1549.590 50524820 49376220 48365924 47517416 46813948 46214504 45677572 
1552.965 45179432 44724496 44337628 44045888 43857292 43750824 43676880 
1556.340 43571224 43356984 42953848 42295640 41357308 40195956 38951072 
1559.715 37784560 36798608 36011720 35386948 34867860 34399928 33936364 
1563.091 33443518 32905270 32328132 31738962 31176618 30677720 30258572 
1566.466 29912164 29611576 29323816 29020804 28690814 28343036 28004054 
1569.841 27705278 27467698 27296398 27182624 27112752 27073994 27056080 
1573.216 27049944 27042960 27019828 26964368 26868198 26739596 26605640 
1576.592 26504128 26462852 26488666 26567632 26677194 26795310 26908596 
1579.967 27014612 27118642 27229648 27354268 27493042 27641184 27791672 
1583.342 27938186 28077748 28209010 28329172 28431536 28505692 28540226 
1586.717 28528690 28473672 28389124 28296882 28221774 28186700 28206570 
1590.093 28289632 28438224 28651808 28926054 29250198 29604944 29958632 
1593.468 30269620 30497116 30605362 30576068 30412208 30137342 29788370 
1596.843 29404468 29022608 28670390 28366946 28127588 27964580 27888082 
1600.218 27904546 28014728 28213608 28492564 28843048 29258206 29732020 
1603.594 30257044 30818806 31392298 31945474 32438300 32830254 33089202 
1606.969 33191978 33129964 32907378 32539460 32046628 31451040 30778150 
1610.344 30055522 29313928 28587926 27906842 27291036 26747594 26269138 
1613.719 25839276 25436996 25043864 24648562 24249976 23859842 23498422 
1617.094 23189306 22950096 22788670 22702674 22682250 22712170 22774390 
1620.470 22851214 22926832 22992854 23051132 23114414 23201226 23327912 
1623.845 23501640 23718024 23965640 24232774 24513042 24805034 25110070 
1627.220 25428142 25753798 26076706 26386546 26676594 26947762 27207458 
1630.595 27464558 27724174 27984724 28235600 28461324 28645508 28773012 
1633.971 28835220 28831574 28771526 28671344 28551018 28428000 28312090 
1637.346 28204554 28100264 27989918 27861408 27702066 27502856 27260940 
1640.721 26982878 26682864 26378518 26084306 25805554 25537066 25264776 
1644.096 24970052 24635342 24251624 23823156 23370008 22923514 22517258 
1647.472 22177074 21914652 21727624 21605234 21532492 21491304 21458510 
1650.847 21405356 21294644 21088092 20766402 20356602 19937442 19595840 
1654.222 19377792 19271962 19238886 19235074 19230052 19207888 19163976 
1657.597 19101578 19027732 18948362 18865508 18777414 18679822 18569010 
1660.973 18443082 18303678 18154748 18002346 17852898 17712476 17586660 
1664.348 17479436 17392344 17323892 17268448 17216630 17156616 17076240 
1667.723 16967076 16827318 16664054 16491180 16325429 16179549 16059367 
1671.098 15963554 15886389 15820304 15756462 15686238 15600091 15490095 
1674.474 15353763 15197744 15038213 14895233 14784011 14708290 14660787 
1677.849 14627030 14592043 14546094 14486996 14421088 14359163 14310466 
1681.224 14276736 14249310 14210348 14138663 14019113 13853480 13666471 
1684.599 13496495 13374524 13308170 13285247 13285212 13290439 13289585 
1687.975 13278038 13256414 13227446 13194279 13159441 13125733 13096911 
1691.350 13077378 13070651 13077036 13091959 13104834 13101896 13069934 
1694.725 13002739 12908009 12807803 12729697 12690564 12690461 12712774 
1698.100 12734917 12732632 12688550 12599789 12483116 12369577 12287595 
1701.476 12248433 12244514 12259237 12275802 12281801 12270860 12241413 
1704.851 12196667 12143236 12089369 12042356 12006418 11982473 11968643 
1708.226 11960742 11954339 11945756 11932882 11916535 11899440 11884967 
1711.601 11875704 11872129 11872469 11873695 11872912 11868792 11861709 
1714.977 11852617 11841619 11826467 11803383 11769406 11725932 11680593 
1718.352 11645706 11631615 11642949 11677563 11727737 11783976 11838010 
1721.727 11885750 11926956 11964999 12004681 12050123 12102179 12159694 
1725.102 12219431 12278734 12336135 12390612 12441243 12486254 12522231 
1728.478 12546206 12556711 12555483 12546240 12533553 12518957 12498530 
1731.853 12462247 12395317 12284971 12127324 11935947 11740162 11573593 
1735.228 11456617 11389841 11359127 11345761 11333619 11311309 11274514 
1738.603 11224801 11169109 11116111 11073214 11044595 11031374 11031918 
1741.979 11043950 11064886 11092248 11122909 11154423 11185020 11214464 
1745.354 11243195 11272065 11300427 11326103 11345183 11353243 11346986 
1748.729 11325525 11290156 11243808 11190324 11132835 11074471 11018630 
1752.104 10969082 10929427 10902347 10887737 10882233 10879720 10872754 
1755.479 10854681 10822748 10779438 10732329 10690353 10659348 10639722 
1758.855 10626479 10612320 10589266 10553482 10505243 10449508 10393815 
1762.230 10344236 10304367 10273968 10251271 10234105 10221078 10210834 
1765.605 10201912 10191872 10178066 10158630 10134142 10107892 10085170 
1768.980 10070045 10062924 10059634 10053632 10037017 10005889 9962932 
1772.356 9917878 9882929 9867235 9872964 9895945 9928726 9964085 9998566 
1776.213 10031829 10065230 10100363 10136279 10169281 10194653 10208764 
1779.588 10211037 10204558 10195637 10190040 10190752 10197265 10205847 
1782.964 10212529 10214361 10211851 10207339 10204558 10206050 10212157 
1786.339 10221587 10232646 10244655 10258090 10273730 10292017 10310475 
1789.714 10324997 10330256 10321604 10297718 10261958 10221689 10184477 
1793.089 10156324 10138755 10129665 10125630 10123391 10121560 10119932 
1796.465 10118168 10115556 10110232 10100532 10085814 10067434 10048885 
1799.840 10034372 10027522 10029014 10037627 10049936 10063467 10076997 
1803.215 10091444 10108265 10128546 10151643 10175420 10196654 10213649 
1806.590 10225997 10235665 10244994 10255952 10268506 10280753 10290185 
1809.966 10294697 10294562 10291610 10288523 10286691 10285706 10282891 
1813.341 10276275 10264875 10251475 10241975 10244112 10264875 10308303 
1816.716 10373352 10455143 10546557 10640163 10730257 10813610 10888485 
1820.091 10954538 11011492 11059619 11099896 11133175 11161086 11184171 
1823.467 11202870 11216640 11225549 11231056 11236429 11246018 11263700 
1826.842 11291414 11327395 11367154 11404468 11434266 11454269 11466687 
1830.217 11477029 11491523 11514318 11545792 11582678 11621065 11658095 
1833.592 11693187 11728248 11766375 11810839 11863241 11923721 11991498 
1836.968 12066338 12148620 12239232 12339169 12447619 12562236 12680363 
1840.343 12799307 12918044 13037770 13160705 13288800 13423151 13562638 
1843.718 13704119 13845338 13984996 14123499 14261705 14399064 14531909 
1847.093 14653692 14756140 14832041 14877163 14891428 14877849 14841882 
1850.469 14788399 14719909 14637174 14540201 14429755 14308549 14181248 
1853.844 14052274 13925117 13800666 13677789 13554468 13430328 13306462 
1857.219 13185911 13072222 12967405 12871692 12783472 12700969 12622711 
1860.594 12549071 12481207 12420205 12365759 12316329 12269769 12224884 
1863.969 12182286 12144462 12114751 12095297 12085928 12083271 12082418 
1867.345 12078603 12070256 12058673 12047806 12042220 12044774 12055267 
1870.720 12071210 12089641 12108380 12126437 12143747 12159387 12171381 
1874.095 12177311 12174516 12161874 12140953 12115603 12090187 12068314 
1877.470 12050532 12034350 12016228 11992759 11962717 11928046 11892152 
1880.846 11858644 11829940 11805800 11784794 11765285 11746698 11729541 
1884.221 11715687 11705576 11698939 11694004 11688728 11681512 11673411 
1887.596 11666467 11662962 11663983 11668306 11672628 11674398 11672458 
1890.971 11668850 11667557 11673241 11688013 11711602 11740162 11769099 
1894.347 11795109 11817376 11837125 11857282 11879484 11903152 11925832 
1897.722 11944462 11958562 11969835 11982745 12001888 12030330 12067497 
1901.097 12109675 12151890 12190634 12224781 12256136 12287595 12320352 
1904.472 12353350 12383077 12405306 12417206 12419694 12415910 12410795 
1907.848 12407999 12408409 12410932 12412944 12413455 12413591 12416865 
1911.223 12426480 12443936 12466987 12490857 12509886 12521379 12525471 
1914.598 12526358 12529017 12537407 12551629 12568785 12583246 12590818 
1917.973 12589692 12581848 12570763 12559234 12548082 12536247 12521139 
1921.349 12502486 12482162 12464771 12455462 12457440 12469715 12489288 
1924.724 12511557 12533997 12556847 12583314 12616401 12657335 12703630 
1928.099 12749452 12789376 12819919 12841487 12858654 12876675 12900055 
1931.474 12929240 12961602 12992600 13019571 13042482 13064437 13089910 
1934.850 13122147 13160705 13202271 13241793 13275339 13301509 13322076 
1938.225 13340048 13358055 13377497 13397795 13418504 13440444 13465837 
1941.600 13498615 13541512 13594227 13652931 13712121 13766738 13815305 
1944.975 13859877 13904966 13954747 14010968 14071817 14133357 14192853 
1948.351 14249790 14307110 14368959 14437941 14512518 14587246 14653795 
1951.726 14705410 14739413 14757992 14766836 14770949 14773041 14771807 
1955.101 14764573 14749696 14730363 14714871 14715042 14742155 14800569 
1958.476 14887930 14993863 15106718 15214592 15312059 15397463 15471485 
1961.852 15535286 15588379 15630729 15663911 15693454 15727704 15774019 
1965.227 15836455 15912166 15992429 16065177 16121982 16161701 16191380 
1968.602 16222678 16265811 16324569 16395686 16470153 16538402 16594959 
1971.977 16641434 16683543 16728891 16783578 16851534 16936482 17045536 
1975.353 17189120 17379654 17624234 17916188 18232696 18535536 18779834 
1978.728 18931850 18974252 18911432 18765096 18567488 18349404 18133468 
1982.103 17932450 17749510 17583070 17431112 17292100 17166646 17053874 
1985.478 16951642 16856252 16765324 16677998 16598642 16533583 16488943 
1988.854 16466986 16464680 16473664 16484538 16488532 16482715 16468570 
1992.229 16450537 16434398 16423455 16419601 16421460 16428238 16438356 
1995.604 16450124 16460449 16464749 16457902 16435051 16394895 16340189 
1998.979 16278161 16217278 16164141 16121844 16088385 16058404 16027804 
2002.354 15996246 15968744 15955992 15969157 16018109 16107539 16236231 
2005.730 16397474 16581189 16775485 16966696 17141276 17287686 17397208 
2009.105 17467500 17502722 17513310 17511758 17509516 17513070 17523730 
2012.480 17537390 17549706 17558920 17568614 17584968 17615366 17661502 
2015.855 17720968 17784926 17843024 17888496 17920848 17945540 17971922 
2019.231 18007630 18056780 18118024 18186328 18254812 18320198 18380270 
2022.606 18434576 18482530 18522708 18551062 18566244 18569458 18565828 
2025.981 18563684 18571568 18594152 18631156 18677436 18725900 18771152 
2029.356 18811978 18850524 18891948 18941022 18999450 19067026 19142196 
2032.732 19222190 19306012 19391858 19476476 19553656 19614766 19651166 
2036.107 19657232 19632966 19583950 19520004 19450590 19382504 19317652 
2039.482 19254990 19191194 19124466 19056986 18992598 18936108 18891220 
2042.857 18857272 18830040 18804782 18777032 18747002 18717978 18698398 
2046.233 18697914 18724860 18782982 18869384 18973524 19075508 19149640 
2049.608 19169968 19114910 18975878 18760148 18491900 18207472 17944882 
2052.983 17739226 17610328 17559230 17569408 17613400 17662918 17695944 
2056.358 17703366 17686488 17653602 17614160 17573582 17534252 17495718 
2059.734 17458222 17424006 17397104 17380170 17373410 17372272 17368998 
2063.109 17356030 17330098 17292032 17248692 17207184 17174022 17151204 
2066.484 17136210 17123594 17108982 17089578 17065764 17039436 17012524 
2069.859 16984958 16956258 16925492 16892764 16860764 16832898 16811992 
2073.235 16798422 16789570 16781236 16769389 16752722 16732059 16711261 
2076.610 16693320 16679203 16667118 16653519 16635135 16611690 16586112 
2079.985 16563289 16548041 16541844 16542360 16543807 16539643 16525703 
2083.360 16501643 16470255 16436050 16402705 16371360 16340394 16306886 
2086.736 16268391 16224295 16175937 16125076 16072707 16017972 15958844 
2090.111 15893573 15822537 15749831 15682289 15629046 15597653 15593188 
2093.486 15617127 15667826 15740933 15830407 15929455 16030040 16123563 
2096.861 16202660 16261477 16299145 16318720 16326908 16332136 16340636 
2100.237 16355395 16375523 16397785 16418707 16437495 16455734 16477311 
2103.612 16505705 16542051 16584391 16629487 16673557 16715530 16757267 
2106.987 16801556 16851428 16906992 16965354 17021414 17071140 17111740 
2110.362 17144344 17172300 17199016 17225904 17251726 17272274 17283376 
2113.738 17282378 17269930 17249004 17224180 17199084 17175368 17152824 
2117.113 17130696 17108914 17089440 17075172 17069038 17072484 17084098 
2120.488 17100676 17118184 17133866 17147068 17159718 17174402 17193326 
2123.863 17217182 17244384 17272930 17301100 17328168 17354204 17379826 
2127.239 17404004 17425180 17440286 17447184 17445322 17436560 17425248 
2130.614 17417626 17421178 17443114 17490682 17570720 17687834 17843752 
2133.989 18035090 18252288 18480214 18700682 18898142 19061694 19189568 
2137.364 19286892 19363624 19429590 19491238 19551058 19607800 19659554 
2140.740 19705494 19746408 19784448 19820968 19855996 19887108 19912536 
2144.115 19932134 19948508 19967000 19991806 20024802 20062832 20098852 
2147.490 20123874 20131510 20119396 20089760 20047982 19997600 19939974 
2150.865 19872922 19793570 19700328 19595528 19483788 19372422 19267356 
2154.240 19173222 19095554 19045942 19045352 19126580 19326796 19678416 
2157.616 20192770 20848818 21586848 22325576 22980628 23483592 23800650 
2160.991 23932622 23907662 23768942 23563796 23334206 23109206 22906608 
2164.366 22732140 22582836 22448412 22315634 22171460 22006314 21815938 
2167.741 21604226 21380190 21154846 20937684 20733384 20540922 20355734 
2171.117 20173090 19992152 19817742 19660734 19533276 19445668 19402566 
2174.492 19400728 19429210 19471000 19508532 19524856 19507560 19451040 
2177.867 19357282 19236530 19104246 18979790 18882258 18824400 18811044 
2181.242 18838102 18893746 18962482 19030466 19088666 19132846 19162764 
2184.618 19178590 19180010 19165256 19132292 19081152 19014300 18937598 
2187.993 18858104 18782326 18714380 18656302 18607776 18567660 18535432 
2191.368 18510466 18491726 18476652 18461578 18442322 18416704 18385386 
2194.743 18352308 18322996 18301258 18287194 18277136 18264280 18242234 
2198.119 18209234 18166772 18122274 18083550 18056850 18042514 18036506 
2201.494 18030564 18016610 17989292 17947610 17894572 17835292 17774984 
2204.869 17717998 17667404 17625890 17595456 17578586 17575204 17583450 
2208.244 17598908 17615262 17627720 17634346 17636244 17637106 17641662 
2211.620 17651874 17666576 17681036 17689490 17687592 17674548 17653290 
2214.995 17628858 17606982 17590938 17581208 17575928 17572650 17569064 
2218.370 17564130 17557194 17547604 17534010 17515174 17490544 17460602 
2221.745 17428524 17397932 17372790 17354722 17342616 17333582 17323962 
2225.121 17311340 17295720 17278894 17263242 17250244 17239522 17229352 
2228.496 17217250 17202772 17187432 17174472 17167266 17167612 17174540 
2231.871 17184364 17192258 17193464 17186158 17170784 17150170 17127732 
2235.246 17107500 17091542 17081962 17080032 17086512 17101364 17123424 
2238.622 17149034 17173608 17191912 17200014 17196256 17182536 17161682 
2241.997 17137968 17114358 17092680 17073208 17056838 17043674 17035922 
2245.372 17035368 17042400 17055046 17069970 17081410 17085028 17078550 
2248.747 17062836 17041090 17017108 16993710 16972658 16953296 16935656 
2252.123 16920498 16911022 16910438 16922218 16947162 16982512 17022894 
2255.498 17061044 17089820 17104674 17102880 17084408 17050050 17001704 
2258.873 16941410 16872200 16798456 16725551 16658546 16602326 16559262 
2262.248 16529523 16511315 16502745 16502298 16510008 16526425 16551688 
2265.624 16584115 16620021 16654173 16680960 16696662 16700311 16693803 
2268.999 16680237 16663091 16644876 16626665 16608212 16589141 16569829 
2272.374 16551103 16534375 16520642 16510695 16504053 16500542 16499786 
2275.749 16502401 16508734 16519163 16533343 16549693 16566284 16580811 
2279.125 16592342 16601121 16608590 16616371 16626218 16638508 16653003 
2282.500 16668221 16682578 16694251 16701482 16702376 16694836 16677862 
2285.875 16650282 16612722 16567007 16515411 16461033 16405595 16350372 
2289.250 16295327 16240392 16184777 16129786 16076902 16028287 15985932 
2292.625 15951179 15923578 15902199 15885668 15872298 15861163 15851473 
2296.001 15842229 15832091 15819650 15803397 15782712 15757732 15729629 
2299.376 15700324 15671056 15642922 15616165 15590612 15566365 15543836 
2302.751 15524056 15508294 15496963 15489649 15484773 15480481 15474884 
2306.126 15467296 15457717 15447657 15438180 15430284 15424035 15418886 
2309.502 15414320 15409823 15405737 15403025 15402613 15405497 15411848 
2312.877 15421152 15432653 15445082 15457304 15468223 15477151 15483811 
2316.252 15487829 15489546 15489855 15489786 15491263 15496448 15508123 
2319.627 15528967 15561694 15607579 15664941 15727842 15785839 15822984 
2323.003 15822435 15769312 15654637 15478902 15252650 14995544 14730192 
2326.378 14479493 14261876 14086876 13955774 13863059 13800187 13757572 
2329.753 13728365 13708873 13697349 13692971 13694579 13700290 13708223 
2333.128 13716840 13725937 13736197 13748474 13763282 13780007 13797383 
2336.504 13814245 13830254 13845954 13862409 13881053 13901716 13923817 
2339.879 13945886 13966928 13987014 14007478 14030166 14056483 14086636 
2343.254 14119255 14152219 14183987 14214491 14245681 14281086 14324061 
2346.629 14376733 14438935 14507757 14579159 14648038 14709867 14760735 
2350.005 14798546 14822271 14832522 14831184 14821516 14806603 14790181 
2353.380 14774755 14761591 14751410 14744143 14740270 14740818 14747434 
2356.755 14761591 14783942 14813700 14847950 14882718 14914094 14939162 
2360.130 14956343 14966048 14969375 14968724 14965842 14963099 14963339 
2363.506 14969581 14985049 15012350 15052071 15102533 15159726 15219157 
2366.881 15276536 15329977 15379818 15428396 15478558 15531851 15588620 
2370.256 15647044 15704859 15760034 15812125 15861817 15910964 15961148 
2373.631 16013881 16070127 16130337 16195679 16267119 16345795 16432436 
2377.007 16526494 16626045 16728720 16832312 16935344 17037816 17141104 
2380.382 17246658 17355790 17468776 17584520 17700984 17816098 17927722 
2383.757 18033950 18133398 18224680 18306512 18377748 18438344 18489480 
2387.132 18533254 18572468 18609886 18647032 18684008 18719500 18751638 
2390.508 18778382 18798794 18812980 18821804 18826614 18828794 18829174 
2393.883 18828726 18828102 18828516 18831390 18837618 18848068 18862740 
2397.258 18881048 18902608 18927386 18956010 18989516 19029048 19075196 
2400.633 19127964 19186486 19249726 19317304 19389226 19466426 19550710 
2404.009 19643400 19745646 19857730 19979038 20108466 20244700 20385668 
2407.384 20529424 20674236 20818366 20961014 21102178 21242450 21383184 
2410.759 21525390 21669246 21813846 21957728 22098380 22234370 22364120 
2414.134 22487004 22602346 22709202 22806094 22890610 22961134 23016646 
2417.510 23058294 23088170 23110150 23127728 23144084 23160822 23178192 
2420.885 23195598 23212340 23227790 23242296 23256420 23271416 23288650 
2424.260 23309800 23336198 23369448 23410290 23459390 23516436 23581394 
2427.635 23653988 23735450 23827848 23933988 24056546 24197214 24355274 
2431.010 24527626 24710324 24898640 25089252 25281280 25475468 25674524 
2434.386 25880562 26095178 26318386 26549422 26786536 27028574 27274984 
2437.761 27525696 27781040 28040918 28305760 28575470 28850766 29133004 
2441.136 29423652 29723718 30033296 30351266 30675442 31002994 31331860 
2444.511 31660798 31989236 32317568 32645930 32974328 33302688 33630184 
2447.887 33956748 34282336 34606844 34929728 35249364 35563340 35868760 
2451.262 36163628 36446588 36717940 36978856 37230836 37474612 37709420 
2454.637 37933544 38144544 38340116 38518292 38678212 38819168 38940236 
2458.012 39040636 39118984 39174060 39204992 39211448 39193608 39152016 
2461.388 39087404 38999748 38889932 38758628 38607332 38438896 38257100 
2464.763 38066300 37871464 37678236 37492092 37318388 37162932 37030092 
2468.138 36923948 36846972 36799908 36782452 36794244 36834424 36903168 
2471.513 37000756 37127168 37280836 37458608 37654888 37863512 38078092 
2474.889 38294048 38508264 38720192 38929184 39134644 39335236 39527464 
2478.264 39707400 39871280 40015636 40138348 40238376 40315264 40368820 
2481.639 40399188 40406568 40391620 40356424 40303340 40235796 40157576 
2485.014 40071888 39981416 39888024 39792692 39695564 39595988 39492700 
2488.390 39383812 39267700 39142660 39007832 38862648 38707336 38542044 
2491.765 38366684 38180756 37982936 37772164 37547512 37308960 37057264 
2495.140 36794208 36521332 36239832 35950208 35652280 35345572 35029676 
2498.515 34704816 34372132 34033360 33690480 33345726 33000674 32656896 
2501.891 32315958 31979072 31647470 31322282 31004880 30695962 30396324 
2505.266 30106374 29826768 29557592 29299464 29052400 28816278 28590970 
2508.641 28376354 28172168 27978822 27796512 27625436 27465298 27315664 
2512.016 27175534 27044406 26922308 26810078 26708692 26619238 26541954 
2515.392 26475706 26418588 26367954 26322362 26281458 26246576 26220388 
2518.767 26205888 26204516 26216832 26241472 26276038 26317154 26362780 
2522.142 26410488 26459118 26507930 26556078 26603386 26650064 26696150 
2525.517 26742414 26789072 26835842 26881030 26922730 26958056 26984710 
2528.893 27001636 27008404 27005302 26993136 26971876 26940710 26898690 
2532.268 26845500 26781566 26709116 26631744 26553576 26477854 26407356 
2535.643 26342784 26284098 26230280 26180408 26133744 26089760 26047998 
2539.018 26007716 25968352 25929450 25891008 25854080 25820042 25790224 
2542.394 25765436 25745466 25729222 25715126 25701592 25687318 25671640 
2545.769 25654804 25636912 25618424 25599198 25578956 25557800 25535660 
2549.144 25512714 25489418 25466298 25443602 25421960 25401760 25383492 
2552.519 25367580 25354618 25344082 25335544 25328028 25320828 25313382 
2555.895 25306006 25299122 25293328 25288550 25283528 25276610 25265302 
2559.270 25247638 25222318 25189346 25149600 25104452 25055622 25003676 
2562.645 24949454 24893484 24836082 24778336 24722074 24668202 24618228 
2566.020 24573136 24533270 24498842 24469888 24446576 24428594 24415906 
2569.396 24407952 24404270 24404164 24407600 24414610 24425616 24440828 
2572.771 24460072 24483104 24508940 24536778 24566052 24596944 24629450 
2576.146 24664378 24701414 24739470 24777494 24813910 24847554 24878850 
2579.521 24908782 24939066 24971422 25007572 25048076 25093078 25142510 
2582.896 25196228 25254170 25316402 25382438 25451402 25522132 25593014 
2586.272 25662852 25731332 25798874 25866636 25936132 26008242 26083850 
2589.647 26163162 26245554 26330284 26416368 26502472 26587180 26669302 
2593.022 26747876 26822412 26893544 26962182 27029596 27096600 27163402 
2596.397 27229154 27292660 27352856 27409602 27463640 27516834 27571414 
2599.773 27629462 27692282 27760058 27832686 27909422 27989848 28073858 
2603.148 28161562 28252716 28347244 28444734 28544330 28645756 28749044 
2606.523 28854696 28963490 29076564 29194412 29317260 29445282 29577702 
2609.898 29713998 29852924 29992606 30130948 30265714 30394974 30517554 
2613.274 30633558 30743972 30850536 30954848 31057728 31159102 31258114 
2616.649 31353124 31443022 31526848 31604420 31676054 31742316 31803380 
2620.024 31859536 31911168 31958706 32003182 32045916 32088294 32131604 
2623.399 32176242 32222524 32269630 32317172 32364220 32410342 32455116 
2626.775 32498502 32540318 32581314 32621962 32663290 32706194 32751638 
2630.150 32800272 32851872 32906018 32961674 33017870 33073574 33128250 
2633.525 33181142 33231788 33279828 33324796 33366692 33405658 33442770 
2636.900 33479166 33516030 33554402 33594492 33636596 33680276 33725572 
2640.276 33772736 33822376 33874780 33930344 33988352 34047944 34108044 
2643.651 34167724 34226660 34285532 34345700 34408136 34474032 34543736 
2647.026 34616964 34693292 34772188 34853500 34937088 35023136 35111540 
2650.401 35202112 35294536 35388312 35483260 35579196 35676380 35774916 
2653.777 35874700 35975688 36077680 36180300 36283812 36388500 36494408 
2657.152 36601708 36709940 36818732 36927556 37036300 37144996 37254192 
2660.527 37364640 37476600 37589992 37704504 37819048 37933000 38046300 
2663.902 38159484 38273384 38389232 38508008 38630260 38755836 38884064 
2667.278 39014392 39145848 39277888 39410260 39543036 39676616 39811284 
2670.653 39947996 40087076 40229140 40374168 40521784 40671312 40821760 
2674.028 40972264 41122596 41272728 41422840 41573368 41724312 41875492 
2677.403 42026944 42178376 42330556 42484068 42640700 42801928 42968772 
2680.779 43141868 43321288 43506684 43697724 43894608 44097596 44307244 
2684.154 44524300 44748996 44981156 45220648 45467332 45720896 45981720 
2687.529 46249660 46524668 46806160 47093556 47385764 47682384 47983240 
2690.904 48288156 48597880 48912568 49232280 49556900 49886228 50220004 
2694.280 50558472 50901892 51250732 51605416 51965912 52331904 52703068 
2697.655 53079004 53459428 53844088 54232988 54625508 55020976 55418464 
2701.030 55816920 56215400 56613528 57010508 57406268 57800380 58191860 
2704.405 58579820 58962972 59339884 59708880 60067836 60414752 60747348 
2707.781 61063572 61362132 61642524 61905560 62152700 62385824 62606900 
2711.156 62816836 63015684 63202864 63377352 63538180 63684864 63817256 
2714.531 63935520 64039564 64129196 64203284 64260600 64299600 64318812 
2717.906 64317504 64295680 64254536 64196104 64123704 64041488 63953600 
2721.281 63864888 63779496 63701020 63632920 63577300 63536568 63512408 
2724.657 63506268 63519344 63552336 63605496 63678464 63770824 63881816 
2728.032 64010920 64157852 64321964 64502516 64698332 64907508 65127760 
2731.407 65356820 65592520 65833440 66078156 66325904 66575572 66825652 
2734.782 67074560 67320440 67561432 67796272 68024080 68244480 68457272 
2738.158 68662728 68861240 69053088 69239240 69420440 69598496 69774640 
2741.533 69950776 70128464 70309424 70495056 70686648 70885232 71092104 
2744.908 71307864 71532952 71767528 72011272 72263560 72522928 72787432 
2748.283 73053976 73318760 73576960 73823760 74054632 74265376 74454000 
2751.659 74619264 74761552 74881656 74981152 75061608 75124080 75169616 
2755.034 75198496 75210440 75204368 75178600 75131016 75058976 74960680 
2758.409 74834104 74678088 74492704 74277568 74033016 73759592 73457808 
2761.784 73129024 72774856 72398320 72002904 71592528 71171768 70745144 
2765.160 70317056 69892280 69475264 69070184 68681624 68313152 67967696 
2768.535 67647920 67355344 67090764 66854908 66647688 66468752 66317260 
2771.910 66192052 66091464 66013852 65957540 65920204 65899612 65892980 
2775.285 65896676 65906240 65917192 65924100 65922400 65908244 65878168 
2778.661 65829740 65760956 65670176 65556496 65419644 65261008 65083184 
2782.036 64890236 64687104 64478912 64270056 64064100 63862852 63667640 
2785.411 63478352 63294584 63115300 62938468 62761700 62581644 62394776 
2788.786 62198120 61989440 61767952 61533972 61289780 61037680 60780656 
2792.162 60521804 60263524 60008824 59760396 59520808 59292824 59079080 
2795.537 58881724 58702960 58544748 58408576 58295792 58207504 58143636 
2798.912 58103824 58086964 58091552 58115792 58158556 58219024 58296320 
2802.287 58389812 58497888 58618500 58748668 58885288 59025556 59167276 
2805.663 59309004 59450512 59591268 59731004 59868468 60002436 60130356 
2809.038 60249364 60356380 60448336 60521196 60572236 60598296 60597648 
2812.413 60569876 60515480 60436380 60335284 60214692 60077348 59925784 
2815.788 59762940 59592712 59419736 59250208 59090776 58948356 58829588 
2819.164 58739604 58682780 58662452 58680656 58738580 58836380 58973024 
2822.539 59145632 59350176 59581616 59833440 60099720 60374048 60650828 
2825.914 60924436 61189940 61441860 61675748 61887452 62073872 62233528 
2829.289 62366008 62472856 62556008 62618688 62664584 62697196 62720580 
2832.665 62738352 62753820 62770316 62790684 62817492 62853560 62901272 
2836.040 62963552 63043192 63143352 63267180 63418148 63600548 63819596 
2839.415 64082192 64395860 64770400 65216652 65745348 66368484 67098848 
2842.790 67949224 68935056 70073680 71382720 72881008 74583456 76496864 
2846.166 78614296 80909096 83332560 85805712 88228408 90483648 92440696 
2849.541 93981248 95006416 95448568 95284360 94532040 93250904 91524264 
2852.916 89456640 87160608 84739064 82290184 79897120 77621872 75511592 
2856.291 73594936 71882776 70372848 69051496 67898736 66889964 66000460 
2859.667 65207832 64491444 63834720 63223980 62647820 62097608 61566768 
2863.042 61050532 60546452 60054096 59574960 59112452 58671860 58260432 
2866.417 57885512 57555440 57277860 57058232 56900052 56803552 56766168 
2869.792 56781800 56842676 56938996 57059140 57190992 57322288 57441360 
2873.167 57539176 57609728 57651048 57665236 57657328 57634852 57604732 
2876.543 57573904 57547044 57527448 57517272 57517952 57530700 57556348 
2879.918 57595276 57647300 57711668 57787476 57873968 57970856 58078292 
2883.293 58196632 58325916 58465628 58614024 58769532 58930180 59094760 
2886.668 59263236 59436340 59615324 59802028 59997676 60203616 60421416 
2890.044 60652620 60900040 61167356 61458844 61780212 62138248 62539624 
2893.419 62992744 63506268 64087948 64745016 65481512 66296996 67184240 
2896.794 68128840 69107552 70087536 71031696 71898840 72647744 73246824 
2900.169 73674664 73925880 74011288 73957656 73802624 73587320 73355520 
2903.545 73145840 72988904 72909768 72926264 73051152 73294208 73662768 
2906.920 74162584 74799384 75578304 76505160 77587168 78831360 80244624 
2910.295 81830528 83587424 85504728 87561208 89726368 91956912 94199800 
2913.670 96397736 98486408 100402384 102090144 103501648 104605624 105389456 
2917.046 105859016 106036544 105954248 105651048 105162384 104516384 
2919.939 103732016 102816672 101769240 100583256 99252104 97773352 96152896 
2923.314 94406144 92559712 90649448 88714632 86797664 84938104 83167240 
2926.689 81510056 79981128 78585264 77319888 76175672 75140424 74198936 
2930.064 73336888 72541488 71802008 71110640 70462664 69855384 69288008 
2933.440 68760032 68271120 67820136 67404720 67021208 66664876 66330188 
2936.815 66010720 65700056 65392024 65080984 64763092 64436360 64101696 
2940.190 63761996 63422904 63091464 62774948 62480776 62214488 61979008 
2943.565 61774480 61597352 61441056 61295392 61149696 60992568 60815112 
2946.941 60612772 60386228 60142532 59893072 59653112 59438540 59262668 
2950.316 59135496 59061468 59039680 59064352 59126268 59214552 59316980 
2953.691 59422320 59520924 59604380 59666908 59704848 59716404 59700968 
2957.066 59659460 59593356 59504732 59396408 59271668 59134436 58989080 
2960.442 58840136 58691544 58547136 58409636 58281276 58163328 58056780 
2963.817 57961996 57879380 57809048 57750948 57704816 57670232 57646204 
2967.192 57631904 57625808 57626604 57632960 57644160 57660316 57682640 
2970.567 57713180 57754504 57809200 57878964 57964264 58064012 58175984 
2973.943 58296432 58420664 58543572 58658356 58757580 58833304 58877128 
2977.318 58881532 58841464 58754700 58622444 58449324 58242928 58011600 
2980.693 57764424 57510540 57257220 57011376 56778476 56561852 56363104 
2984.068 56181228 56012288 55849812 55686080 55513264 55324556 55116104 
2987.444 54887144 54639560 54377248 54104052 53822560 53532436 53230484 
2990.819 52910928 52567556 52195240 51791696 51359468 50905620 50441004 
2994.194 49977332 49525628 49093356 48682856 48292004 47914564 47543140 
2997.569 47170560 46792172 46406520 46014908 45620336 45226680 44837048 
3000.945 44453604 44077208 43708500 43347100 42993356 42647684 42310724 
3004.320 41983512 41667016 41362192 41070004 40791220 40526336 40274804 
3007.695 40035804 39807504 39588040 39375396 39168148 38965460 38766888 
3011.070 38572604 38382316 38195772 38012448 37831660 37653228 37477284 
3014.446 37304340 37135432 36971392 36813036 36660756 36514988 36375712 
3017.821 36242896 36116060 35994584 35877252 35762860 35650192 35538884 
3021.196 35429332 35322752 35220584 35124544 35035388 34953356 34878272 
3024.571 34809952 34748996 34697028 34656332 34629416 34618112 34622168 
3027.947 34639464 34665408 34693904 34718236 34731556 34728252 34704240 
3031.322 34657336 34587112 34494976 34383968 34257276 34119192 33973480 
3034.697 33823344 33671392 33519502 33369090 33221520 33077828 32939188 
3038.072 32806452 32680008 32560028 32445942 32337126 32232836 32132498 
3041.448 32035712 31942446 31852440 31765840 31682290 31602070 31524998 
3044.823 31451714 31382434 31317580 31257152 31201074 31148922 31100654 
3048.198 31056020 31015272 30978654 30946026 30916958 30890522 30865086 
3051.573 30839152 30811512 30781566 30749518 30716090 30682484 30649770 
3054.948 30618944 30590608 30565260 30543148 30524378 30508988 30496688 
3058.324 30487412 30481050 30477852 30478134 30482580 30491642 30505754 
3061.699 30524734 30548338 30575854 30606606 30640596 30678110 30719786 
3065.074 30765986 30816636 30870636 30926422 30981466 31033386 31079938 
3068.449 31119802 31151946 31176618 31194204 31205702 31211968 31214248 
3071.825 31213750 31211042 31207198 31202784 31198156 31193564 31189220 
3075.200 31185518 31182846 31181174 31180604 31181138 31182028 31182704 
3078.575 31182598 31181208 31178112 31173414 31167076 31159280 31150524 
3081.950 31141124 31131584 31122686 31115212 31109694 31106456 31105780 
3085.326 31107522 31112150 31119660 31130872 31146464 31167112 31192814 
3088.701 31223220 31257186 31293258 31330186 31366870 31402844 31438212 
3092.076 31473268 31508784 31545232 31583394 31623770 31667144 31713798 
3095.451 31764344 31818498 31875760 31935100 31995230 32054938 32113552 
3098.827 32170712 32226772 32282300 32337840 32393814 32450438 32507356 
3102.202 32564602 32622032 32679758 32738530 32798804 32861448 32926928 
3105.577 32995454 33066242 33138368 33210396 33280794 33348516 33412960 
3108.952 33474442 33533960 33592988 33653168 33715796 33781724 33851032 
3112.328 33923536 33998564 34075644 34153744 34232072 34309232 34384288 
3115.703 34456024 34523932 34588008 34648936 34708224 34767272 34827112 
3119.078 34888256 34950628 35013760 35076836 35139560 35201860 35263920 
3122.453 35325876 35387812 35449356 35510228 35570208 35629260 35688324 
3125.829 35748364 35810572 35875668 35943832 36014748 36087328 36160312 
3129.204 36232520 36302940 36371244 36437472 36502192 36566308 36630944 
3132.579 36697532 36767056 36840156 36917024 36997076 37079388 37163008 
3135.954 37247080 37331132 37414656 37497692 37579732 37660636 37739704 
3139.330 37816948 37892216 37966232 38039644 38113324 38187668 38262820 
3142.705 38338560 38414716 38491244 38568804 38648184 38730012 38814892 
3146.080 38902400 38991632 39081712 39172032 39262656 39354392 39448320 
3149.455 39545576 39646156 39749116 39852720 39954568 40052556 40145328 
3152.831 40232996 40316500 40397728 40478792 40561472 40646896 40735540 
3156.206 40826784 40919468 41012136 41103108 41191664 41277612 41362120 
3159.581 41446792 41533808 41624860 41720776 41821128 41924792 42029392 
3162.956 42132884 42233628 42330740 42424620 42515968 42605904 42695972 
3166.332 42786752 42879052 42972832 43067696 43162984 43258072 43352336 
3169.707 43445340 43537268 43628184 43718652 43808544 43897432 43984432 
3173.082 44068148 44147512 44222160 44292312 44359132 44423980 44488288 
3176.457 44552936 44618288 44684500 44751236 44818828 44887712 44958628 
3179.833 45032056 45108036 45185788 45264184 45341636 45417188 45490292 
3183.208 45561416 45630792 45699620 45768756 45838752 45910228 45983816 
3186.583 46059744 46138296 46219000 46300972 46382772 46462564 46538940 
3189.958 46611384 46679928 46745864 46811104 46877648 46947196 47021256 
3193.333 47100204 47183932 47271592 47361672 47452284 47541476 47627328 
3196.709 47708972 47785976 47859328 47930252 47999816 48069208 48138572 
3200.084 48207248 48274936 48341484 48407632 48474792 48544444 48617780 
3203.459 48694756 48774604 48855576 48936196 49015492 49093356 49170048 
3206.834 49246120 49321464 49395448 49467036 49535284 49600168 49662464 
3210.210 49724136 49787076 49852664 49921276 49991904 50063252 50133796 
3213.585 50202636 50270036 50337040 50404536 50473124 50542872 50613268 
3216.960 50683156 50751900 50818640 50883864 50947756 51011212 51075048 
3220.335 51140016 51207116 51277056 51350520 51427612 51508000 51590716 
3223.711 51673932 51756116 51835856 51912400 51985744 52056596 52125744 
3227.086 52194452 52263212 52332804 52403340 52475084 52547776 52621000 
3230.461 52694200 52766220 52836116 52903216 52967220 53028464 53087544 
3233.836 53145732 53204188 53263708 53324952 53388308 53453656 53520892 
3237.212 53589748 53659440 53729292 53798744 53867452 53935652 54004120 
3240.587 54073504 54144588 54217336 54290804 54363464 54433952 54501076 
3243.962 54564452 54625244 54685220 54746440 54810528 54878612 54950728 
3247.337 55026544 55105040 55185512 55266972 55348904 55430284 55510664 
3250.713 55589172 55665744 55740364 55813524 55886064 55958836 56032304 
3254.088 56106496 56181420 56256580 56331756 56406760 56481016 56554080 
3257.463 56625152 56692992 56756464 56814956 56868432 56917652 56964456 
3260.838 57010436 57057436 57106828 57159472 57215564 57274988 57337144 
3264.214 57401580 57467192 57533576 57599780 57665540 57730740 57795952 
3267.589 57861968 57929356 57998080 58068028 58137836 58206292 58272256 
3270.964 58335048 58394664 58452204 58508804 58566248 58625972 58689156 
3274.339 58756672 58828372 58904108 58982740 59062948 59143432 59223360 
3277.715 59302584 59382052 59463356 59548740 59640036 59737924 59842224 
3281.090 59951384 60063460 60176364 60288648 60400208 60511712 60624312 
3284.465 60739724 60859552 60984680 61116052 61253764 61397472 61546608 
3287.840 61700192 61856808 62015620 62175524 62336252 62498148 62662252 
3291.216 62829664 63001552 63179292 63363700 63555664 63755780 63964272 
3294.591 64180932 64404660 64634152 64867572 65103428 65340996 65580612 
3297.966 65823644 66071556 66326292 66588624 66858584 67135432 67418376 
3301.341 67706464 67999744 68298536 68603272 68914520 69232280 69556184 
3304.717 69886248 70222168 70564120 70912272 71266672 71626680 71991552 
3308.092 72360344 72732192 73107448 73486888 73872104 74264944 74666480 
3311.467 75077520 75497904 75926744 76362920 76805152 77252232 77702616 
3314.842 78155064 78608256 79061728 79515552 79971080 80430048 80894080 
3318.218 81364368 81841168 82323784 82810936 83301448 83794648 84289976 
3321.593 84787360 85286040 85784608 86281312 86774432 87262840 87746728 
3324.968 88226696 88703904 89178656 89650392 90116848 90575400 91023360 
3328.343 91458408 91879768 92286872 92679624 93057304 93419200 93764424 
3331.719 94092424 94403216 94697040 94974088 95233768 95474288 95692928 
3335.094 95887088 96054840 96195776 96311408 96403560 96474480 96524960 
3338.469 96554464 96561416 96543368 96498104 96424128 96320000 96184816 
3341.844 96017552 95817344 95583528 95315960 95015280 94682584 94319344 
3345.219 93926544 93504304 93052584 92571240 92060568 91521936 90957992 
3348.595 90370992 89764208 89139640 88499072 87844232 87176448 86497720 
3351.970 85810400 85116304 84417128 83713440 83005720 82293944 81579096 
3355.345 80862872 80147744 79436928 78733480 78039808 77357416 76687376 
3358.720 76030112 75386384 74757072 74142936 73545080 72963616 72398360 
3362.096 71848248 71312392 70789600 70278800 69779392 69290648 68812168 
3365.471 68344216 67887272 67442528 67011424 66595504 66195720 65812120 
3368.846 65443264 65087220 64741328 64403348 64071588 63745036 63423320 
3372.221 63105984 62792064 62480548 62169632 61857568 61542980 61224768 
3375.597 60902440 60575856 60244608 59908664 59567852 59222260 58871932 
3378.972 58517260 58158748 57796672 57431040 57061556 56687440 56308032 
3382.347 55922356 55529600 55129340 54721636 54306536 53885572 53460440 
3385.722 53033552 52607872 52185636 51768512 51357640 50952864 50553704 
3389.098 50158932 49767568 49378372 48990860 48604772 48219912 47836724 
3392.473 47456244 47079376 46707596 46342144 45982896 45629576 45280768 
3395.848 44934632 44589872 44245788 43902604 43561588 43224104 42890972 
3399.223 42562452 42237864 41915960 41596160 41278196 40962576 40650392 
3402.599 40342788 40039800 39740876 39445092 39151252 38858772 38568188 
3405.974 38280512 37997332 37719432 37446800 37178132 36911828 36646088 
3409.349 36379352 36111772 35844612 35579484 35318796 35064444 34817776 
3412.724 34578784 34347564 34122524 33902580 33686004 33471864 33259474 
3416.100 33049156 32841296 32636750 32436158 32239296 32045238 31852264 
3419.475 31658482 31462758 31265270 31067408 30871774 30681310 30498112 
3422.850 30323302 30156236 29995094 29837664 29682138 29527764 29374476 
3426.225 29223262 29075182 28930588 28789476 28651348 28514890 28379186 
3429.601 28243202 28106732 27969138 27830778 27691542 27551820 27412110 
3432.976 27273042 27135500 27000472 26868620 26740264 26615328 26493138 
3436.351 26373272 26254916 26137262 26019852 25902472 25784880 25667072 
3439.726 25549154 25431024 25312750 25194332 25075632 24956894 24838186 
3443.102 24719758 24601992 24484856 24367960 24250538 24131672 24010426 
3446.477 23886832 23761836 23637334 23516050 23400884 23293404 23194060 
3449.852 23101204 23012280 22923654 22832460 22736190 22634320 22526960 
3453.227 22415894 22303252 22191022 22081366 21976130 21875832 21781168 
3456.603 21691154 21604294 21518602 21431428 21340652 21245234 21145068 
3459.978 21041484 20936188 20831122 20727440 20625866 20525916 20426648 
3463.353 20327504 20228108 20128908 20030908 19935708 19844446 19758094 
3466.728 19676890 19599964 19525756 19452080 19376372 19296936 19212530 
3470.104 19123116 19029878 18935140 18840696 18748870 18660556 18575580 
3473.479 18493594 18413628 18334818 18257060 18180694 18105658 18032222 
3476.854 17959560 17886700 17812404 17735912 17656776 17575376 17492718 
3480.229 17409970 17328098 17248072 17170472 17096022 17025720 16960014 
3483.604 16899414 16843472 16791190 16741047 16691117 16639816 16586594 
3486.980 16531656 16475488 16419670 16364994 16312391 16262338 16215008 
3490.355 16170539 16129134 16091205 16056409 16024848 15995763 15968332 
3493.730 15942449 15918491 15896769 15878486 15864154 15853845 15847452 
3497.105 15843775 15841678 15840476 15839858 15839858 15840476 15841885 
3500.481 15843568 15844909 15845288 15844841 15844153 15845355 15850889 
3503.856 15863158 15883503 15912751 15950045 15993977 16042382 16093234 
3507.231 16145090 16197158 16249817 16303824 16361073 16423248 16491629 
3510.606 16567042 16648974 16735882 16825906 16917052 17007562 17096642 
3513.982 17183882 17269724 17354374 17437422 17518002 17595044 17667300 
3517.357 17733426 17793452 17846996 17894332 17935696 17970748 17998722 
3520.732 18018960 18030392 18031808 18022758 18002900 17971646 17929550 
3524.107 17876480 17812714 17738120 17652566 17555090 17445494 17323444 
3527.483 17189672 17046466 16897036 16744973 16593892 16446441 16302930 
3530.858 16162422 16023129 15882127 15737634 15587967 15432309 15271217 
3534.233 15105346 14935493 14763580 14591460 14421671 14256740 14099334 
3537.608 13950471 13810722 13679362 13554468 13434189 13316917 13201349 
3540.984 13087144 12974437 12863022 12753240 12645157 12537851 12430776 
3544.359 12322807 12213092 12100407 11984822 11866987 11748979 11633250 
3547.734 11523301 11421238 11328416 11243910 11165301 11088917 11011663 
3551.109 10930718 10846290 10760248 10675682 10596158 10524491 10461252 
3554.485 10405218 10354077 10304741 10254765 10202726 10147641 10090087 
3557.860 10030608 9969679 9908081 9846559 9785825 9726659 9670042 9616854 
3561.717 9567059 9520487 9475580 9430305 9382326 9328564 9266176 9193103 
3565.575 9109045 9015363 8915951 8816697 8724091 8643538 8578004 8527281 
3569.432 8488592 8457812 8429940 8401157 8368492 8330290 8286519 8238328 
3573.290 8187408 8136427 8087645 8042819 8003430 7969141 7938904 7911032 
3577.147 7883060 7852862 7819564 7783029 7744609 7706057 7669262 7635573 
3581.004 7605797 7580171 7558121 7539476 7523529 7509202 7495313 7479199 
3584.862 7457659 7427020 7384587 7329116 7262602 7190404 7119498 7058067 
3588.719 7011326 6981560 6967149 6963984 6966476 6968664 6966678 6957115 
3592.577 6938699 6911799 6878606 6841511 6803915 6768811 6737615 6711367 
3596.434 6689596 6670821 6653560 6636367 6618234 6599058 6580017 6562592 
3600.292 6548800 6540391 6538104 6541501 6549406 6559935 6570935 6580858 
3604.149 6588124 6591320 6589268 6580522 6563803 6538205 6503863 6462428 
3608.006 6417600 6373820 6335255 6305098 6282978 6266203 6250841 6232488 
3611.864 6208556 6178677 6145876 6114523 6089522 6074401 6069832 6074166 
3615.721 6082600 6089824 6090463 6080349 6056761 6020140 5973779 5922620 
3619.579 5874153 5834995 5809339 5799231 5803395 5818976 5842349 5870191 
3623.436 5900250 5931790 5964507 5998101 6030555 6057366 6071881 6065901 
3627.293 6031663 5965918 5873347 5768910 5672084 5602735 5570146 5572528 
3631.151 5599211 5637241 5673293 5697464 5705286 5696859 5676986 5652917 
3635.008 5631266 5617034 5610992 5610858 5612972 5614080 5611563 5605554 
3638.866 5597902 5591525 5589243 5593404 5604783 5623311 5648217 5678631 
3642.723 5713377 5751450 5790501 5827842 5859846 5882281 5891047 5883692 
3646.581 5859477 5819849 5768373 5709785 5648217 5587799 5531920 5484337 
3650.438 5449072 5430283 5430249 5448434 5481418 5522893 5565044 5599882 
3654.295 5621062 5624351 5610489 5584275 5554674 5531551 5522188 5529706 
3658.153 5552694 5585886 5622236 5655938 5682055 5698337 5705421 5706528 
3662.010 5706092 5708341 5716734 5732548 5755681 5784860 5818876 5857428 
3665.868 5900922 5949290 6002670 6059987 6120471 6186373 6265195 6371231 
3669.725 6525356 6749730 7059212 7458805 7943865 8504912 9132292 9815581 
3673.583 10539529 11269786 11944700 12478410 12775044 12770198 12456962 
3676.958 11882924 11124201 10259481 9362824 8494505 7705652 7037592 6511397 
3680.815 6127830 5868746 5705286 5605823 5545109 5508464 5488061 5481283 
3684.673 5485276 5494538 5501215 5497088 5475243 5433202 5373619 5304552 
3688.530 5235429 5174733 5127691 5094970 5075626 5067614 5069492 5079549 
3692.387 5095976 5116024 5136610 5154783 5168396 5176879 5181071 5182245 
3696.245 5182513 5184022 5187777 5194282 5203336 5213363 5221881 5226039 
3700.102 5223021 5211284 5191868 5168630 5147876 5136174 5138186 5155051 
3703.960 5184625 5222149 5261789 5298984 5330614 5355571 5374491 5388145 
3707.817 5396733 5400222 5397639 5387339 5368855 5342187 5308174 5268966 
3711.675 5227716 5188347 5155118 5132687 5123936 5129871 5149217 5177919 
3715.532 5211351 5243411 5269570 5287312 5296871 5299990 5300057 5299554 
3719.389 5299186 5298481 5296033 5290767 5283153 5274701 5267624 5263097 
3723.247 5261185 5259441 5254679 5244551 5228118 5207662 5188347 5175873 
3727.104 5176041 5191901 5223088 5265881 5315118 5363756 5404986 5433806 
3730.962 5446857 5443938 5428102 5404349 5377510 5350405 5322866 5292611 
3734.819 5257429 5217488 5176712 5142243 5121690 5118908 5133525 5161388 
3738.677 5196395 5233618 5270174 5305491 5339872 5372445 5399115 5411159 
3742.534 5397874 5349164 5263366 5153509 5046127 4973559 4956567 4995211 
3746.391 5072945 5166786 5253975 5316091 5342891 5332560 5291874 5233685 
3750.249 5172487 5119846 5081862 5060374 5055144 5066106 5091986 5130642 
3754.106 5177818 5227515 5273058 5309919 5334841 5347051 5348460 5341684 
3757.964 5328937 5311931 5292041 5271012 5252969 5242975 5245356 5262259 
3761.821 5291136 5325751 5357819 5379020 5384723 5375196 5355940 5335344 
3765.678 5322631 5323101 5336283 5356980 5376839 5387809 5384287 5364830 
3769.536 5332527 5294490 5259274 5233886 5223323 5228655 5247569 5275741 
3773.393 5307839 5338531 5363287 5380664 5390896 5395794 5397605 5397673 
3777.251 5395592 5389487 5377142 5357718 5332761 5306933 5285803 5273930 
3781.108 5272857 5280370 5291974 5302171 5306497 5303277 5293349 5279565 
3784.966 5265445 5253673 5244886 5238917 5235060 5232712 5232075 5234289 
3788.823 5239755 5248374 5259341 5271482 5283925 5296938 5311126 5327293 
3792.680 5345407 5363689 5378584 5386132 5383146 5368453 5344535 5317298 
3796.538 5293886 5280806 5280738 5291471 5307034 5318036 5314380 5289056 
3800.395 5239755 5172252 5100233 5042205 5013646 5021925 5063726 5127758 
3804.253 5199380 5263063 5305759 5320585 5307839 5275674 5238816 5212793 
3808.110 5207293 5224765 5260112 5305525 5353223 5397639 5436255 5469137 
3811.968 5497557 5521249 5538800 5545881 5537860 5510846 5465077 5406362 
3815.825 5346514 5300124 5277653 5282986 5311730 5353290 5393815 5420150 
3819.682 5421560 5393479 5340073 5274701 5216616 5181607 5178120 5203940 
3823.540 5249917 5303110 5351512 5386568 5404349 5406026 5397203 5384958 
3827.397 5375665 5372378 5375229 5381402 5387675 5391399 5391634 5389252 
3831.255 5386668 5385830 5389084 5397538 5411125 5428907 5449206 5469204 
3835.112 5485444 5494336 5492793 5479035 5454339 5421962 5387608 5357349 
3838.969 5334774 5321189 5315487 5314849 5316124 5317130 5316359 5312803 
3842.827 5306732 5298448 5288855 5280336 5275070 5275774 5284294 5301064 
3846.684 5324912 5354028 5385763 5418171 5450749 5483196 5514974 5544170 
3850.542 5565413 5570045 5548130 5490477 5395022 5272454 5146534 5045154 
3854.399 4989245 4984050 5020115 5081895 5153341 5223390 5284864 5335042 
3858.257 5372948 5399551 5415722 5422063 5419815 5411260 5398813 5385461 
3862.114 5373552 5362985 5352686 5341147 5327461 5314011 5305491 5307101 
3865.971 5322363 5350070 5384320 5414648 5430820 5423874 5391030 5338094 
3869.829 5278860 5230164 5203907 5203236 5221411 5247401 5268966 5277821 
3873.686 5272421 5257563 5242673 5237408 5248743 5277619 5319378 5366138 
3877.544 5408509 5438469 5450716 5443200 5419211 5385931 5352250 5327596 
3881.401 5318304 5325784 5346715 5374256 5400155 5415756 5415520 5397974 
3885.259 5368084 5335814 5312535 5307537 5323973 5357886 5400323 5440986 
3889.116 5469405 5478062 5464271 5430820 5385796 5340073 5304083 5284562 
3892.973 5284260 5300896 5330178 5367480 5408006 5448065 5484538 5515175 
3896.831 5537760 5551318 5555714 5551754 5542022 5529571 5516987 5505880 
3900.688 5496014 5485075 5470780 5450548 5423506 5390996 5357081 5325885 
3904.546 5302506 5289794 5288620 5297575 5314011 5335377 5359295 5384287 
3908.403 5409381 5434041 5457997 5480176 5500511 5518195 5533733 5547962 
3912.260 5562091 5576892 5592364 5607233 5619216 5624721 5621699 5608643 
3916.118 5586591 5558567 5529336 5503665 5485209 5475881 5475377 5482860 
3919.975 5496249 5513497 5533330 5553466 5572058 5586625 5595116 5595788 
3923.833 5588974 5576791 5562728 5551217 5545780 5548029 5557358 5571589 
3927.690 5587329 5601628 5612570 5618981 5621129 5619719 5615188 5607804 
3931.548 5598473 5587799 5577126 5568467 5563131 5561822 5564205 5568770 
3935.405 5573502 5577395 5579610 5580886 5582899 5587128 5594176 5603776 
3939.262 5614080 5622102 5625861 5623311 5614080 5599648 5582530 5565984 
3943.120 5553164 5546418 5546720 5553902 5566253 5580986 5595318 5606259 
3946.977 5611496 5610791 5604917 5595855 5586524 5579778 5576757 5578234 
3950.835 5583268 5590719 5599177 5608105 5616866 5625358 5633616 5640698 
3954.692 5645834 5648183 5647076 5643081 5637241 5631366 5627607 5627641 
3958.550 5632407 5641503 5654226 5668258 5681618 5692596 5699848 5702970 
3962.407 5702601 5699948 5696859 5695114 5695920 5699478 5705823 5713579 
3966.264 5721132 5727445 5731809 5733958 5734629 5734797 5735603 5738121 
3970.122 5742956 5750510 5760617 5773007 5786673 5800742 5814174 5826196 
3973.979 5836406 5845238 5852693 5859511 5865825 5871030 5874355 5874960 
3977.837 5872037 5865959 5857495 5848226 5839965 5833853 5830394 5829286 
3981.694 5829991 5831637 5833249 5834491 5835364 5835532 5835196 5834491 
3985.552 5833282 5832443 5832644 5834189 5837547 5842417 5847891 5853331 
3989.409 5857865 5861190 5864145 5867235 5871097 5875463 5879225 5880938 
3993.266 5879124 5873314 5863977 5852794 5842148 5833416 5827707 5824853 
3997.124 5823476 5822200 5820253 5816961 5812630 5807861 5803026 5798492 
##END=
