
##TITLE=Z351_3_e
##JCAMP-DX=5.01  $$ Nicolet v. 1
##DATATYPE=INFRARED SPECTRUM
##ORIGIN=UniL
##OWNER=Nicolet
##LONGDATE=2011/09/13
##TIME=15:06:23
##SPECTROMETER/DATA SYSTEM=Nicolet iS5
##DATA PROCESSING=
Ratio against background
%Transmittance->Absorbance
Truncated
ElementMultiply or ElementDivide
##COMMENTS=
Number of sample scans: 32
Collection length: 51.21 sec
Sample gain: 2.0
Background collected on: Mar Sep 13 14:49:03 2011 (GMT+02:00);
Number of background scans: 32
Background gain: 2.0
Sample spacing:  1.000
Number of scan points: 12415
Resolution points: 8192
Number of FFT points: 65536
Apodization: N-B fort;
Phase correction: Mertz;
Laser frequency: 15798.0 cm-1
Number of rejected sample scans: 0
Number of rejected background scans: 0
Bench serial number: ASB1000141;
##RESOLUTION=4.000
##XUNITS=1/CM
##YUNITS=ABSORBANCE
##FIRSTX=649.893372
##LASTX=4000.122314
##FIRSTY=0.115413
##MAXX=4000.122314
##MINX=649.893372
##MAXY=0.340234
##MINY=0.003288
##XFACTOR=1.000000
##YFACTOR=1.000000E-009
##NPOINTS=6950
##DELTAX=0.482117
##ZPD=6100
##XYDATA=(X++(Y..Y))
649.893 115413400 115007104 114692264 114500552 114433624 114465144 
652.786 114557752 114684496 114844392 115060776 115366856 115788280 
655.679 116330464 116979888 117720824 118551704 119495712 120595496 
658.571 121893112 123403720 125107440 126953456 128888864 130882560 
661.464 132943600 135110000 137426656 139909136 142529984 145218944 
664.357 147894864 150492512 152964912 155283968 157408192 159247472 
667.250 160661136 161495056 161662240 161195424 160217584 158858960 
670.142 157198720 155260096 153040080 150542928 147813168 144938784 
673.035 142027376 139188736 136496976 133981512 131640088 129456552 
675.928 127418888 125526312 123783808 122192192 120739808 119402224 
678.820 118149640 116953992 115799312 114680480 113599088 112555936 
681.713 111546848 110563048 109596360 108644072 107712928 106815336 
684.606 105965320 105171200 104431928 103739256 103081968 102452560 
687.498 101848904 101274464 100732264 100220680 99731032 99247688 98752904 
690.873 98233664 97683304 97102480 96495992 95868744 95224200 94565984 
694.248 93901576 93247048 92626264 92069984 91607152 91256000 91020952 
697.623 90890504 90843488 90854480 90903944 90984016 91097000 91253136 
700.998 91463240 91733312 92060400 92433848 92836744 93253656 93671832 
704.373 94084112 94487888 94884248 95274328 95660088 96043304 96426976 
707.747 96814304 97209608 97617800 98046712 98510264 99033080 99651336 
711.122 100415832 101379392 102584640 104048144 105744120 107596256 
714.015 109476880 111236640 112721960 113805560 114420296 114561848 
716.908 114294096 113726984 113012592 112320616 111811664 111640152 
719.800 111928136 112746400 114103680 115923488 118046352 120219280 
722.693 122145616 123533872 124134896 123820472 122604432 120650256 
725.586 118220360 115627136 113169720 111054200 109391704 108194056 
728.478 107404128 106930824 106682224 106591200 106610816 106712256 
731.371 106873648 107070544 107277328 107472872 107646008 107799632 
734.264 107946648 108103480 108280824 108478616 108687216 108894432 
737.156 109090920 109275352 109454880 109639896 109840312 110060112 
740.049 110297456 110547232 110804592 111066520 111331296 111596928 
742.942 111859024 112111760 112350616 112575896 112794600 113018520 
745.835 113259248 113520808 113796776 114069648 114318240 114525824 
748.727 114685968 114805544 114900288 114987280 115076200 115167112 
751.620 115251880 115321432 115371264 115406400 115438128 115480792 
754.513 115543256 115626792 115724528 115827296 115928288 116027392 
757.405 116130152 116245496 116381664 116542656 116728688 116938336 
760.298 117169704 117422728 117696968 117990304 118297664 118612440 
763.191 118930440 119255472 119604232 120006632 120507624 121162504 
766.083 122026808 123153080 124573840 126285848 128232656 130295488 
768.976 132303160 134039160 135304192 135966112 136005488 135539632 
771.869 134802272 134093032 133663344 133654552 134035200 134612720 
774.762 135069712 135059536 134330752 132774608 130466864 127616480 
777.654 124512088 121425712 118541600 115951304 113646392 111558792 
780.547 109594352 107673944 105751048 103812600 101874760 99970176 98139904 
783.922 96422264 94851144 93454296 92248840 91244016 90440968 89835680 
787.297 89422312 89197784 89163648 89326784 89697360 90285040 91098144 
790.671 92143104 93426312 94958792 96757704 98845240 101246048 103977456 
794.046 107041544 110415576 114050392 117867584 121759336 125606296 
796.939 129279496 132655920 135647632 138213872 140384688 142257792 
799.832 143998944 145805008 147848368 150243296 152984464 155928384 
802.724 158770976 161096752 162461728 162447808 160802752 157498768 
805.617 152760928 147010240 140774896 134587648 128829432 123696360 
808.510 119177160 115103880 111223024 107289408 103155072 98786512 94268584 
811.885 89749624 85402632 81369088 77730600 74516816 71712376 69279960 
815.259 67175504 65360560 63804516 62479740 61360832 60422632 59640756 
818.634 58995572 58473056 58064128 57763780 57567696 57471656 57471240 
822.009 57564216 57751480 58037432 58429572 58935872 59561928 60310048 
825.384 61177156 62154000 63222604 64354972 65513760 66650084 67713864 
828.759 68662608 69471880 70148400 70734960 71312664 71984872 72870464 
832.133 74087792 75725768 77832376 80387544 83293824 86354112 89279048 
835.508 91736544 93360584 93842384 93004064 90827560 87479168 83258664 
838.883 78563192 73781936 69236632 65166636 61692440 58841084 56571476 
842.258 54806960 53458532 52439452 51679752 51120260 50713056 50423364 
845.633 50225512 50103932 50051464 50064148 50137548 50263640 50430436 
849.008 50624996 50838044 51066440 51313788 51587912 51897164 52246056 
852.382 52635624 53064104 53530636 54037368 54591088 55199884 55872120 
855.757 56613676 57428200 58320080 59297800 60375456 61574900 62923564 
859.132 64451240 66191712 68181712 70459240 73065456 76033472 79374280 
862.507 83056264 86988248 91011672 94889608 98350912 101118816 102946760 
865.882 103684016 103289888 101851464 99557984 96683680 93545232 90431872 
869.256 87603808 85254792 83497576 82385184 81913024 82037120 82680568 
872.631 83744864 85117880 86662120 88229616 89669656 90829240 91586856 
876.006 91864992 91642216 90957912 89903040 88606456 87199944 85806480 
879.381 84519880 83388440 82419432 81582456 80827112 80093784 79333344 
882.756 78521184 77659272 76776568 75916328 75129432 74456680 73923048 
886.131 73536960 73293536 73182152 73194624 73329744 73593912 73997968 
889.505 74551400 75257912 76113888 77110032 78234408 79476880 80831896 
892.880 82297784 83875224 85564160 87360960 89255768 91231144 93255016 
896.255 95278168 97232656 99022880 100538936 101670120 102313896 102406088 
899.630 101929768 100922136 99465192 97675840 95692184 93644208 91653592 
903.005 89821624 88218864 86893928 85872824 85162864 84759768 84652008 
906.379 84826704 85271928 85979312 86945096 88168160 89649048 91388680 
909.754 93387400 95645312 98161840 100932840 103948752 107188848 110616992 
913.129 114185648 117837160 121513840 125174360 128800424 132405728 
916.022 136031680 139745136 143622624 147729440 152106944 156746752 
918.914 161577056 166437824 171086784 175224016 178499552 180602288 
921.807 181323536 180612832 178623008 175705664 172396896 169293168 
924.700 167010080 166099056 166926128 169657344 174198160 180215504 
927.593 187122128 194144432 200478016 205311120 208003424 208187200 
930.485 205763824 200901584 193944112 185355344 175622192 165208064 
933.378 154565168 144082192 134091544 124880424 116651008 109539680 
936.271 103621248 98909480 95381544 92990400 91678552 91376616 91994256 
939.646 93414184 95461824 97901848 100464096 102834600 104715080 105874240 
943.020 106159056 105535232 104078336 101961616 99410240 96660664 93940120 
946.395 91418336 89207464 87364608 85896928 84779944 83970376 83422368 
949.770 83090848 82934368 82918968 83012176 83184496 83412048 83675512 
953.145 83963176 84271264 84601040 84956520 85340712 85754368 86196048 
956.520 86663336 87154784 87670496 88211512 88777960 89367768 89976408 
959.894 90598304 91229632 91870032 92523264 93195096 93891168 94613904 
963.269 95361848 96130280 96914488 97712056 98523984 99354472 100207200 
966.644 101084480 101985584 102907288 103846976 104804280 105781696 
969.537 106784032 107815344 108877144 109967488 111083248 112221968 
972.429 113385192 114577456 115806360 117078144 118395488 119756728 
975.322 121158080 122596176 124071712 125589536 127157208 128782856 
978.215 130471960 132227288 134051664 135951168 137937568 140029136 
981.108 142246224 144606944 147122784 149795840 152618848 155576000 
984.000 158645056 161792064 164965456 168095664 171085904 173818736 
986.893 176177520 178051728 179362720 180077488 180211792 179828592 
989.786 179024832 177931776 176691824 175446480 174335616 173471456 
992.678 172935520 172777360 173009936 173620272 174578240 175851040 
995.571 177408896 179228928 181295760 183595024 186109520 188820512 
998.464 191706000 194745280 197920496 201211520 204589920 208014688 
1001.356 211423712 214740880 217888656 220794848 223412976 225727152 
1004.249 227753008 229532288 231126704 232615792 234084208 235623360 
1007.142 237325552 239266512 241503824 244066432 246953152 250138192 
1010.035 253581024 257240864 261077856 265057152 269144256 273295392 
1012.927 277457568 281575168 285593536 289473440 293191392 296730304 
1015.820 300065792 303149088 305894880 308194784 309931104 311002720 
1018.713 311358400 311008256 310031872 308562336 306784960 304919168 
1021.605 303181920 301795488 300951424 300785120 301377088 302736704 
1024.498 304814240 307508704 310695168 314245600 318026144 321911296 
1027.391 325773120 329463936 332831424 335719424 337981024 339508832 
1030.284 340234080 340127584 339189568 337436480 334895328 331603360 
1033.177 327616096 323009792 317872064 312298240 306372032 300156064 
1036.070 293698944 287040160 280223872 273312512 266384128 259526368 
1038.963 252834176 246391552 240270736 234533568 229220880 224352304 
1041.856 219912928 215845808 212041184 208337952 204556848 200510816 
1044.750 196049840 191098384 185662032 179833344 173762528 167645536 
1047.643 161681472 156041648 150871408 146265216 142270080 138894512 
1050.536 136113008 133878408 132128776 130801720 129838304 129185032 
1053.429 128798904 128638880 128660176 128812848 129032928 129244864 
1056.322 129372672 129339648 129081368 128555072 127738816 126636832 
1059.215 125278248 123719480 122039264 120330600 118703096 117263192 
1062.108 116106256 115314912 114944496 115025024 115561072 116533688 
1065.001 117900800 119596376 121538136 123620680 125720512 127715976 
1067.894 129484936 130925256 131968808 132578480 132751344 132508160 
1070.787 131887736 130935776 129697664 128218992 126539944 124696744 
1073.680 122725736 120663736 118552440 116444736 114399944 112486208 
1076.573 110777184 109337952 108225256 107479152 107117056 107134912 
1079.466 107504704 108179392 109089000 110144008 111245848 112281696 
1082.359 113143624 113746400 114034744 114003040 113696160 113211040 
1085.252 112676904 112238320 112046912 112229176 112883320 114070208 
1088.146 115804544 118055304 120740600 123743456 126907064 130051704 
1091.039 133008272 135619424 137765888 139379280 140433824 140943456 
1093.932 140946656 140500160 139666240 138507120 137089152 135478432 
1096.825 133741600 131952512 130182160 128496456 126949104 125565200 
1099.718 124334352 123201448 122075568 120833848 119342728 117494336 
1102.611 115218352 112506688 109414512 106056168 102584808 99158792 95938160 
1105.986 93054800 90600296 88635184 87182968 86240016 85782992 85776168 
1109.361 86175640 86929152 87981512 89271928 90729640 92281376 93843496 
1112.737 95324008 96635496 97693096 98427464 98796240 98783632 98403368 
1116.112 97690936 96699952 95491704 94125392 92659120 91141504 89610032 
1119.487 88093392 86609496 85168312 83775240 82434096 81149672 79929976 
1122.862 78784600 77723504 76753352 75875448 75085080 74373152 73731320 
1126.238 73155920 72652208 72234680 71926488 71753576 71737744 71893256 
1129.613 72220872 72707552 73324952 74033376 74784384 75520728 76187168 
1132.988 76734928 77127792 77352312 77419904 77367712 77248912 77126968 
1136.363 77063968 77105672 77279152 77586256 78005624 78493712 78991016 
1139.739 79432952 79749312 79876608 79766072 79382112 78708928 77748232 
1143.114 76516536 75041320 73357088 71505992 69531608 67479680 65397964 
1146.489 63328660 61310996 59377756 57551544 55847476 54272708 52828780 
1149.864 51514376 50327144 49265124 48326408 47508804 46808668 46221432 
1153.240 45741844 45365508 45089656 44913060 44835428 44856628 44975532 
1156.615 45190236 45499124 45902124 46401172 47000324 47703944 48515472 
1159.990 49435884 50463184 51592692 52816584 54124732 55501704 56925584 
1163.365 58368628 59793968 61159952 62425532 63549264 64496628 65240904 
1166.740 65762652 66051268 66105472 65933316 65551752 64985616 64266904 
1170.116 63428656 62504916 61528744 60528320 59530728 58560976 57641816 
1173.491 56795660 56042820 55398964 54876396 54482372 54220264 54091968 
1176.866 54099548 54246312 54537404 54978896 55576484 56335644 57261416 
1180.241 58359756 59638780 61108156 62779316 64663068 66767960 69099120 
1183.617 71657856 74439536 77431152 80604776 83916424 87294200 90639976 
1186.992 93840048 96760064 99268672 101253168 102621112 103319008 103334104 
1190.367 102695392 101468624 99747544 97649864 95293512 92793912 90257504 
1193.742 87767216 85389232 83170936 81139168 79306976 77674568 76232824 
1197.118 74965488 73851008 72865800 71981936 71170200 70401720 69645248 
1200.493 68871104 68053296 67169736 66207880 65165676 64054468 62896452 
1203.868 61722496 60569076 59469240 58450804 57533312 56725916 56030340 
1207.243 55442896 54957648 54567308 54264524 54041456 53889096 53797840 
1210.619 53760040 53770464 53828932 53939816 54111408 54353100 54673196 
1213.994 55077656 55569180 56148048 56812048 57557144 58376016 59257844 
1217.369 60188660 61151640 62129568 63108860 64079696 65036996 65980292 
1220.744 66911728 67835784 68758752 69690800 70646256 71642432 72700104 
1224.120 73837976 75069920 76402072 77831104 79344760 80921392 82533936 
1227.495 84149344 85728448 87231816 88619496 89856136 90917712 91793064 
1230.870 92487016 93018672 93422976 93748384 94051688 94404368 94886184 
1234.245 95578616 96568864 97937096 99750120 102063400 104912808 108317600 
1237.621 112281520 116794672 121832136 127348464 133280296 139538432 
1240.514 146007392 152563136 159068416 165382800 171378784 176928960 
1243.407 181913536 186228000 189777344 192487904 194311824 195224016 
1246.300 195221840 194320208 192552480 189969264 186637184 182641728 
1249.193 178072448 173012752 167532464 161676528 155472384 148941200 
1252.086 142112176 135037648 127802152 120512400 113299848 106304832 
1254.979 99651792 93453712 87793376 82714600 78229248 74314912 70924680 
1258.354 67990872 65436944 63185768 61158160 59285836 57513604 55798456 
1261.729 54115760 52455640 50820052 49218880 47665704 46174520 44756856 
1265.105 43422492 42179032 41031328 39982144 39030488 38171604 37397036 
1268.480 36696816 36062520 35488508 34973896 34521344 34135068 33818720 
1271.855 33573912 33400830 33299540 33271670 33321004 33452504 33669964 
1275.230 33972800 34354092 34799112 35284260 35780996 36254136 36664976 
1278.606 36978284 37161308 37193184 37068016 36796664 36404716 35925476 
1281.981 35395788 34845316 34293348 33749564 33216480 32695014 32190050 
1285.356 31711194 31272818 30890984 30578236 30343092 30189446 30118662 
1288.731 30132440 30233776 30426600 30713600 31094068 31562764 32109164 
1292.107 32719306 33376496 34059624 34743436 35398988 35992644 36493004 
1295.482 36876800 37133844 37271772 37314664 37300764 37271520 37267944 
1298.857 37325788 37470676 37720804 38085508 38564060 39142696 39791168 
1302.232 40465956 41107228 41650312 42038224 42224168 42183672 41914976 
1305.608 41437312 40785360 40002488 39139216 38243964 37361500 36531964 
1308.983 35783732 35134208 34588800 34143420 33788316 33513096 33310846 
1312.358 33178852 33117450 33126746 33204426 33345406 33543232 33792756 
1315.733 34092240 34442788 34846680 35303736 35809780 36355392 36929864 
1319.109 37524240 38133292 38756380 39394224 40045396 40702352 41350128 
1322.484 41966760 42529012 43014316 43405900 43697288 43893328 44012812 
1325.859 44085528 44154008 44266336 44467000 44792960 45261684 45868060 
1329.234 46584604 47368692 48174524 48960596 49701024 50386676 51022988 
1332.610 51623920 52206184 52786612 53377968 53991100 54634748 55314392 
1335.985 56031848 56783008 57558580 58344600 59125588 59888432 60622484 
1339.360 61320384 61976368 62585012 63140900 63640596 64083956 64475456 
1342.735 64823524 65138652 65429196 65699668 65949744 66175812 66373616 
1346.111 66540196 66674576 66773444 66826968 66815988 66708608 66465124 
1349.486 66048452 65430468 64603424 63584244 62416044 61161824 59894708 
1352.861 58695984 57639960 56788480 56189076 55864356 55811452 55998152 
1356.236 56370840 56858540 57383732 57879908 58293856 58591084 58758568 
1359.612 58800452 58737288 58602460 58446368 58333076 58330768 58507592 
1362.987 58911284 59555580 60415816 61432624 62525660 63598132 64556100 
1366.362 65311188 65782936 65914416 65676116 65074252 64149856 62973208 
1369.737 61632100 60208944 58778372 57398136 56106084 54932716 53906204 
1373.113 53055720 52415752 52015732 51869796 51969236 52282760 52767792 
1376.488 53380664 54092196 54892224 55788848 56804380 57971120 59330236 
1379.863 60926608 62810556 65029448 67607848 70525456 73688008 76929624 
1383.238 80001960 82609392 84470488 85325552 84998744 83432768 80724344 
1386.614 77135000 73043112 68895488 65070480 61809508 59210716 57245424 
1389.989 55815260 54793764 54064912 53530148 53110012 52748036 52401356 
1393.364 52041656 51656988 51249692 50834356 50428912 50047784 49696676 
1396.739 49372692 49070392 48787504 48529512 48311820 48155308 48079280 
1400.115 48097008 48210988 48415704 48701240 49057964 49479324 49961832 
1403.490 50505728 51112620 51783480 52515616 53302404 54133480 54997888 
1406.865 55886816 56796564 57729076 58690064 59686032 60721476 61796868 
1410.240 62909664 64055616 65229660 66424420 67626048 68807696 69930456 
1413.615 70946520 71807552 72483744 72971728 73302128 73530408 73732024 
1416.991 73989960 74377792 74956736 75759616 76780160 77971728 79257264 
1420.366 80552640 81781528 82891416 83858552 84687000 85412104 86095680 
1423.741 86819504 87657848 88656512 89819584 91111752 92476440 93854768 
1427.116 95206288 96509520 97760696 98967992 100145896 101314168 102496824 
1430.492 103729576 105056400 106519424 108152408 109968592 111962096 
1433.385 114113808 116409472 118855456 121481632 124338544 127474200 
1436.278 130906256 134591840 138439264 142343840 146217328 149996288 
1439.171 153621040 157021168 160083536 162652784 164565488 165652784 
1442.064 165780944 164875680 162921568 159970768 156134160 151586624 
1444.957 146541824 141221072 135857376 130655464 125789704 121409760 
1447.850 117616248 114450656 111883632 109830920 108178760 106820976 
1450.743 105696608 104798160 104166352 103857288 103912800 104327936 
1453.636 105049568 105977160 106985800 107955784 108778464 109396952 
1456.529 109828200 110179368 110602496 111230864 112154232 113404848 
1459.422 114984352 116882176 119077952 121536688 124196064 126972880 
1462.315 129744936 132348824 134609504 136349824 137448944 137889616 
1465.208 137776032 137297824 136650992 136002688 135454176 135047504 
1468.102 134789520 134659712 134615968 134582000 134443760 134047376 
1470.995 133207512 131768464 129667432 126993296 123968240 120871704 
1473.888 117938744 115298016 112995528 111037168 109425760 108182072 
1476.781 107332136 106881920 106801992 107023944 107461368 108024184 
1479.674 108646784 109300496 109992072 110757392 111644176 112702760 
1482.567 113975728 115502616 117330728 119516568 122122744 125201600 
1485.460 128770160 132779464 137085648 141463056 145585632 149057104 
1488.353 151476240 152454208 151709424 149151680 144923024 139387040 
1491.246 133016272 126291696 119574032 113066712 106865128 100978360 
1494.139 95394168 90136504 85275720 80934800 77259752 74363984 72289232 
1497.514 70994744 70390816 70366848 70822784 71683112 72885864 74375824 
1500.890 76100152 77997688 80001640 82045368 84042864 85889896 87455256 
1504.265 88546520 88919400 88299496 86459960 83365120 79270024 74666560 
1507.640 70047704 65723984 61785256 58186100 54846508 51713456 48772636 
1511.015 46050272 43587780 41412852 39533456 37931556 36574636 35427820 
1514.391 34461332 33652672 32981012 32426160 31970334 31599824 31311064 
1517.766 31108092 30995948 30972962 31026766 31134860 31274528 31434332 
1521.141 31624838 31874582 32216992 32667934 33217694 33838636 34499716 
1524.516 35181056 35879952 36612812 37407216 38290972 39277744 40362788 
1527.892 41527832 42751432 44017760 45319756 46661220 48052296 49506060 
1531.267 51037332 52660500 54386708 56218756 58144996 60135264 62144020 
1534.642 64124204 66035764 67852136 69548984 71102408 72490432 73685536 
1538.017 74665736 75416928 75938544 76236616 76316120 76185472 75858280 
1541.393 75361360 74730072 73995024 73168704 72240712 71189288 69999312 
1544.768 68684072 67290224 65886884 64535648 63262576 62054300 60866568 
1548.143 59650524 58377952 57064048 55763416 54554044 53496380 52609628 
1551.518 51871028 51234332 50656160 50115200 49620672 49201888 48887060 
1554.894 48680004 48550968 48439412 48271600 47964848 47440680 46644844 
1558.269 45577132 44325960 43050536 41909832 40983588 40264804 39697340 
1561.644 39214964 38760440 38287640 37766740 37186648 36561156 35923896 
1565.019 35318260 34782060 34328920 33946536 33602872 33262302 32898620 
1568.395 32506928 32106240 31733118 31424430 31199010 31053922 30969546 
1571.770 30922934 30894436 30870564 30840896 30793978 30717584 30601630 
1575.145 30447924 30277116 30127114 30040326 30040148 30122604 30260846 
1578.520 30422338 30579338 30716908 30834706 30942786 31055450 31183666 
1581.896 31331006 31493466 31663616 31833972 32000150 32159648 32308034 
1585.271 32436158 32530996 32578208 32569244 32505962 32403346 32285620 
1588.646 32181452 32118048 32114946 32184306 32332700 32562278 32869850 
1592.021 33242878 33657252 34072920 34437692 34700724 34818280 34768308 
1595.396 34554856 34207444 33771448 33295210 32823928 32391242 32020018 
1598.772 31727876 31527848 31429700 31438604 31553428 31766768 32067638 
1602.147 32446046 32894690 33407592 33976740 34586104 35207572 35804384 
1605.522 36330892 36741452 36999748 37080252 36973448 36684732 36231440 
1608.897 35636740 34925956 34128224 33274964 32400812 31543988 30735934 
1612.273 29997648 29334736 28737964 28188856 27666680 27155676 26650100 
1615.648 26157218 25696318 25291782 24964964 24726282 24573908 24496776 
1619.023 24479316 24502736 24547750 24597294 24638042 24666588 24691524 
1622.398 24733684 24817662 24961490 25168736 25427896 25719344 26025410 
1625.774 26337290 26655348 26984606 27329178 27687056 28049188 28403768 
1629.149 28741894 29061434 29367138 29665356 29958384 30241484 30500600 
1632.524 30717192 30873766 30957304 30965594 30908204 30807672 30690948 
1635.899 30581470 30491322 30419672 30356668 30289302 30204292 30088548 
1639.275 29929310 29718148 29453188 29142146 28800452 28447422 28098390 
1642.650 27758470 27421568 27071842 26689946 26259704 25776864 25254134 
1646.025 24723020 24224470 23796310 23460020 23216850 23051410 22941050 
1649.400 22862636 22792582 22704942 22570200 22355052 22033676 21609448 
1652.776 21139642 20723966 20445886 20326464 20325700 20384904 20451272 
1656.151 20492950 20496772 20462524 20397926 20313130 20215750 20107598 
1659.526 19985768 19845522 19684204 19503852 19312558 19121384 18942236 
1662.901 18783814 18649660 18538612 18446642 18368240 18296594 18223126 
1666.277 18137784 18029148 17887460 17708784 17498306 17271448 17049740 
1669.652 16854908 16699106 16582670 16495517 16423386 16352436 16270937 
1673.027 16170813 16047092 15899003 15731655 15557985 15395987 15262053 
1676.402 15163637 15096735 15048675 15003227 14946501 14871917 14781131 
1679.778 14683064 14588891 14505975 14432221 14355773 14257699 14120898 
1683.153 13939795 13731511 13533377 13387373 13315208 13308922 13341825 
1686.528 13384707 13417820 13431558 13425202 13403843 13373943 13340663 
1689.903 13306462 13272333 13239368 13209000 13182188 13157562 13129080 
1693.279 13086837 13019230 12918009 12785759 12639664 12508624 12419797 
1696.654 12382464 12384884 12400363 12400976 12363645 12279244 12158467 
1700.029 12033124 11941670 11906931 11925526 11974502 12028423 12067326 
1703.404 12080715 12066373 12028286 11974365 11914560 11858372 11811962 
1706.780 11778053 11755856 11742545 11734035 11725763 11714393 11697850 
1710.155 11676576 11652989 11630152 11609869 11592377 11574954 11553993 
1713.530 11526125 11489924 11446785 11399264 11350760 11303181 11257987 
1716.905 11217558 11186822 11173699 11186142 11227792 11295393 11379842 
1720.281 11469374 11552665 11621849 11674772 11714120 11746834 11780435 
1723.656 11820781 11869609 11925117 11983188 12040209 12094446 12144701 
1727.031 12189817 12227338 12253171 12262987 12253785 12225906 12182048 
1730.406 12125722 12057856 11974979 11868792 11730290 11555456 11353550 
1733.781 11150445 10979515 10867081 10817143 10813168 10828760 10839971 
1737.157 10831478 10796761 10738951 10667464 10596124 10537017 10496485 
1740.532 10474660 10467667 10470790 10480735 10495739 10514986 10537017 
1743.907 10559525 10580370 10598297 10613067 10625494 10636156 10644170 
1747.282 10647056 10641690 10625800 10599791 10566621 10531008 10497979 
1750.658 10470722 10449441 10432301 10417062 10401587 10385467 10367651 
1754.033 10346951 10321028 10287302 10244147 10193330 10139535 10089578 
1757.408 10048986 10018876 9995141 9970019 9935675 9886691 9823614 9752683 
1761.266 9684407 9629219 9592633 9573698 9565975 9561267 9553137 9538370 
1765.123 9516220 9488347 9455871 9420282 9382699 9344577 9308049 9274841 
1768.980 9245292 9216827 9184811 9144913 9095037 9039213 8987387 8953629 
1772.838 8948623 8975040 9025816 9088608 9151343 9204915 9247086 9280257 
1776.695 9308862 9336790 9364416 9388962 9405959 9412460 9408804 9399120 
1780.553 9390046 9386964 9391535 9401591 9412122 9419131 9420858 9419639 
1784.410 9419199 9423837 9434809 9450588 9467418 9481879 9492275 9499456 
1788.268 9504738 9509142 9510462 9504806 9487331 9454991 9409379 9357441 
1792.125 9309910 9275349 9258594 9256969 9264450 9273522 9279140 9279546 
1795.982 9275079 9266785 9255142 9239233 9217842 9191174 9161596 9133780 
1799.840 9113377 9104850 9108910 9123223 9142647 9162849 9181698 9199838 
1803.697 9219095 9241298 9266413 9292207 9315598 9334082 9346675 9355207 
1807.555 9361843 9368309 9375080 9380769 9383748 9383071 9380531 9379245 
1811.412 9382190 9390485 9402675 9414323 9421907 9423465 9421298 9420959 
1815.270 9430169 9455160 9499388 9560861 9634503 9714088 9793451 9869100 
1819.127 9939235 10002634 10058346 10104534 10139738 10163955 10178337 
1822.502 10186308 10191058 10195772 10202218 10210800 10221757 10235225 
1825.877 10252051 10272746 10296836 10322011 10344882 10362119 10372605 
1829.253 10379087 10388012 10406440 10439768 10488203 10547168 10608891 
1832.628 10666785 10717555 10761810 10803963 10849517 10902891 10965990 
1836.003 11037628 11115873 11199470 11288797 11385658 11491557 11606092 
1839.378 11725831 11846727 11964148 12076082 12184092 12292401 12406670 
1842.754 12532189 12672244 12826710 12993420 13169005 13349785 13532249 
1846.129 13711438 13881053 14032802 14157970 14249722 14305021 14325088 
1849.504 14314130 14278072 14221338 14145578 14050528 13935553 13801966 
1852.879 13653615 13497042 13338340 13182256 13029815 12880020 12730686 
1856.255 12581234 12433640 12291447 12158569 12036803 11925764 11822892 
1859.630 11725695 11633012 11545622 11465462 11393855 11330117 11271250 
1863.005 11213036 11152961 11090821 11029369 10972990 10925179 10886888 
1866.380 10855734 10827878 10800227 10773222 10751043 10739665 10743978 
1869.756 10765105 10798765 10838374 10876933 10910263 10937072 10958548 
1873.131 10975539 10988112 10994297 10991646 10978528 10955728 10926301 
1876.506 10894464 10863140 10832769 10801109 10764629 10720917 10670419 
1879.881 10616904 10565262 10520281 10483960 10454905 10430299 10407390 
1883.257 10385331 10364970 10348478 10335923 10325269 10311968 10291304 
1886.632 10260634 10221757 10180203 10144385 10121118 10113860 10120678 
1890.007 10136856 10155849 10173521 10189022 10203676 10218941 10235801 
1893.382 10253408 10270100 10285299 10300296 10317057 10337755 10362561 
1896.758 10388725 10411938 10428024 10436510 10440413 10446182 10459929 
1900.133 10485522 10521843 10563395 10602949 10635613 10660027 10679588 
1903.508 10699352 10723363 10752333 10783174 10810995 10831206 10842723 
1906.883 10847275 10848667 10850061 10852337 10854001 10852948 10848464 
1910.259 10842179 10837661 10838578 10845882 10856652 10864839 10864295 
1913.634 10851963 10828591 10799784 10771999 10751043 10738068 10731378 
1917.009 10725808 10717453 10704446 10688349 10671302 10655070 10639076 
1920.384 10621861 10601726 10580744 10562818 10554840 10561630 10584038 
1923.760 10616700 10651266 10679520 10697450 10707129 10714566 10727269 
1927.135 10749514 10780151 10813304 10841907 10861645 10872381 10879821 
1930.510 10890421 10909856 10938499 10972820 11006701 11036064 11059483 
1933.885 11078958 11097517 11116655 11134400 11146434 11148541 11140383 
1937.260 11125187 11110502 11103194 11107035 11120700 11138989 11155885 
1940.636 11169245 11181145 11198620 11229153 11276349 11337667 11405591 
1944.011 11471858 11530616 11581861 11628757 11676066 11725864 11776758 
1947.386 11824287 11865625 11901279 11937004 11979986 12035747 12103542 
1950.761 12175982 12240185 12283983 12301639 12294924 12272701 12245332 
1954.137 12220896 12200926 12183206 12163339 12140680 12120373 12112571 
1957.512 12128210 12172506 12243662 12331669 12424638 12511557 12587953 
1960.887 12653924 12712058 12763238 12805551 12835242 12851112 12856879 
1964.262 12862442 12878518 12913538 12967644 13031965 13091652 13133964 
1967.638 13153635 13157255 13158314 13171053 13203809 13254979 13314764 
1971.013 13370184 13411908 13438633 13456370 13474894 13504118 13550776 
1974.388 13619457 13716157 13848931 14028318 14259342 14535850 14835710 
1977.763 15122466 15354107 15499057 15542360 15490714 15366876 15202754 
1981.139 15026105 14855425 14698007 14552604 14414717 14281223 14151397 
1984.514 14027703 13911535 13802377 13698887 13601611 13512833 13440341 
1987.889 13392395 13374319 13384570 13413958 13448885 13475612 13485866 
1991.264 13480294 13466145 13453363 13449261 13455447 13467819 13479508 
1994.640 13484943 13481764 13471100 13454900 13433403 13405073 13366153 
1998.015 13315380 13254637 13191444 13135158 13093872 13070310 13060954 
2001.390 13056857 13049003 13033844 13014689 13002227 13009636 13048832 
2004.765 13125597 13238240 13378898 13536625 13699366 13856046 13996219 
2008.141 14111931 14197099 14250441 14275949 14283653 14284750 14290262 
2011.516 14305637 14330123 14357656 14381152 14396530 14406702 14418964 
2014.891 14442771 14483844 14541469 14608046 14672371 14725051 14762585 
2018.266 14787679 14807562 14829539 14858991 14896709 14941288 14990640 
2021.642 15044867 15103940 15166863 15229074 15282989 15318443 15330354 
2025.017 15319508 15296133 15275300 15273345 15299669 15354450 15427812 
2028.392 15505410 15575088 15630282 15672017 15706714 15742479 15783675 
2031.767 15832057 15887421 15948601 16017113 16094506 16180616 16270628 
2035.143 16354775 16420633 16457729 16461859 16437426 16394516 16346311 
2038.518 16302655 16267806 16240323 16214836 16186599 16154408 16119987 
2041.893 16087286 16059469 16036503 16014431 15989371 15958432 15923234 
2045.268 15889723 15867591 15867624 15898351 15962901 16058095 16173152 
2048.644 16289789 16383642 16430061 16407797 16307160 16133673 15909692 
2052.019 15669819 15451399 15288583 15200009 15185117 15225093 15290951 
2055.394 15353661 15393309 15403540 15390186 15364851 15337939 15314531 
2058.769 15294177 15273413 15250591 15227118 15208279 15198876 15200420 
2062.145 15209000 15216068 15213288 15195788 15164598 15126651 15089565 
2065.520 15059892 15038796 15022675 15005525 14983471 14955726 14925239 
2068.895 14895816 14870065 14846751 14822648 14793575 14758094 14718607 
2072.270 14680733 14649409 14627373 14612364 14598588 14580392 14554797 
2075.646 14523345 14492237 14468770 14458117 14460720 14472812 14487612 
2079.021 14500150 14507208 14509161 14507619 14503748 14496827 14484666 
2082.396 14465276 14438797 14408175 14378514 14353923 14335807 14321116 
2085.771 14304371 14279203 14241881 14193059 14137431 14080749 14027703 
2089.146 13978699 13931311 13881190 13825020 13763796 13702000 13647631 
2092.522 13608928 13592483 13601577 13636176 13693519 13769166 13857312 
2095.897 13950471 14039817 14117783 14177893 14218085 14241195 14253899 
2099.272 14264547 14279648 14301904 14329711 14358924 14385570 14408860 
2102.647 14431125 14457637 14492819 14538556 14592523 14649305 14703662 
2106.023 14751856 14794227 14833413 14873460 14916528 14962482 15009023 
2109.398 15054027 15096392 15137356 15179181 15223549 15269329 15312780 
2112.773 15348100 15370619 15378273 15372918 15359016 15342402 15327230 
2116.148 15315114 15305332 15296237 15286970 15278938 15274031 15274546 
2119.524 15281307 15293078 15307529 15322734 15338043 15355274 15377210 
2122.899 15406149 15441922 15482678 15523953 15562484 15596313 15625095 
2126.274 15649656 15670402 15685380 15691632 15685553 15666006 15635263 
2129.649 15599645 15567326 15546720 15544660 15565163 15611254 15685484 
2133.025 15790993 15930280 16102552 16301313 16512347 16717803 16899792 
2136.400 17045640 17152996 17228352 17284100 17332996 17382550 17434490 
2139.775 17485334 17529904 17565750 17593284 17616298 17638280 17660260 
2143.150 17679896 17693046 17697292 17693702 17686800 17681898 17682416 
2146.526 17686040 17685522 17671304 17635932 17578274 17503100 17419350 
2149.901 17334790 17253312 17171954 17084856 16985234 16870168 16740015 
2153.276 16599365 16452223 16303170 16158089 16028974 15939631 15927222 
2156.651 16034886 16302895 16748279 17353720 18059094 18780146 19428344 
2160.027 19932584 20258240 20407582 20410046 20308060 20145358 19958362 
2163.402 19771306 19598302 19444664 19310204 19188736 19071144 18946492 
2166.777 18805092 18641222 18456254 18257060 18053222 17853072 17661502 
2170.152 17476988 17296168 17115048 16934760 16761813 16608521 16487189 
2173.528 16407007 16370293 16371772 16399024 16435465 16465403 16473079 
2176.903 16447131 16381234 16275890 16139794 15989197 15846215 15734507 
2180.278 15670815 15661884 15701801 15772920 15852092 15919281 15962729 
2183.653 15979435 15975483 15957883 15932824 15901959 15863914 15816489 
2187.029 15759589 15697163 15635537 15581544 15539750 15512140 15497512 
2190.404 15494250 15500877 15516845 15540643 15568803 15595695 15614517 
2193.779 15619737 15610326 15590166 15566845 15548094 15538445 15536418 
2197.154 15536590 15530512 15513926 15485837 15451879 15419607 15396056 
2200.530 15383457 15378994 15375699 15365881 15344736 15311751 15269878 
2203.905 15223823 15178357 15136669 15100578 15071864 15052448 15045176 
2207.280 15051076 15068948 15094402 15121196 15144012 15160344 15171254 
2210.655 15180896 15193832 15212053 15233226 15251929 15261333 15258004 
2214.031 15242423 15219774 15196405 15178871 15168990 15165490 15163775 
2217.406 15160034 15152349 15141816 15130288 15119446 15108605 15095535 
2220.781 15077078 15051694 15021234 14989645 14962448 14943209 14932337 
2224.156 14926988 14922907 14916631 14907270 14896845 14888547 14885118 
2227.531 14886696 14891153 14894685 14894823 14890776 14884639 14879049 
2230.907 14876477 14877369 14880352 14883232 14884433 14884398 14885187 
2234.282 14889165 14897634 14909808 14923181 14934772 14943105 14948935 
2237.657 14954560 14962859 14974589 14988684 15001547 15009435 15009915 
2241.032 15003844 14993726 14984226 14978670 14979150 14985186 14996264 
2244.408 15010704 15028883 15051007 15077147 15105827 15133616 15155642 
2247.783 15167686 15167342 15155677 15135675 15111178 15085585 15061435 
2251.158 15039071 15019450 15004290 14997259 15002061 15021372 15054747 
2254.533 15097936 15143943 15184808 15213288 15226157 15222589 15204470 
2257.909 15174034 15133856 15085346 15030358 14971193 14911282 14854465 
2261.284 14804546 14763613 14732798 14711443 14699618 14697391 14705924 
2264.659 14725565 14755421 14791586 14828030 14857996 14876031 14880386 
2268.034 14873117 14859744 14846099 14836533 14832659 14832967 14834373 
2271.410 14834133 14831150 14825801 14819939 14814557 14810168 14806328 
2274.785 14802557 14799472 14799301 14804752 14818808 14842259 14873391 
2278.160 14908504 14942728 14971845 14993829 15008749 15018319 15025007 
2281.535 15030598 15036258 15041471 15046205 15049670 15051145 15050013 
2284.911 15045107 15035606 15020308 14998871 14971913 14940671 14907133 
2288.286 14872294 14836945 14800912 14763854 14725325 14686628 14648997 
2291.661 14614659 14585122 14561376 14542874 14528895 14519027 14513135 
2295.036 14511902 14516013 14525435 14538523 14552844 14565042 14572340 
2298.412 14573574 14568846 14559663 14547328 14533246 14517829 14500938 
2301.787 14482953 14464488 14447190 14432803 14422630 14416738 14414032 
2305.162 14412764 14411360 14409306 14406907 14405915 14407456 14412764 
2308.537 14421499 14432905 14445853 14459453 14473224 14487167 14500973 
2311.913 14514334 14526188 14535884 14543285 14549213 14555106 14562781 
2315.288 14573540 14587691 14604516 14622849 14642040 14662020 14684297 
2318.663 14711546 14746919 14793026 14851516 14921810 14999866 15078347 
2322.038 15146001 15188308 15190469 15140581 15032210 14867802 14658422 
2325.414 14423246 14183748 13961078 13771730 13623458 13516046 13442563 
2328.789 13393592 13359251 13333010 13311827 13295188 13283539 13276808 
2332.164 13274348 13275032 13278516 13285280 13296588 13313672 13336631 
2335.539 13364103 13393318 13421409 13446391 13467853 13486857 13505041 
2338.915 13523703 13543529 13564587 13586842 13610911 13638126 13669651 
2342.290 13706205 13746217 13786917 13824370 13855635 13879821 13898535 
2345.665 13916017 13937401 13966758 14006827 14057374 14116790 14181967 
2349.040 14249481 14315876 14378240 14433556 14480007 14516492 14543285 
2352.416 14561890 14574979 14585018 14594202 14603454 14612569 14621411 
2355.791 14630183 14640121 14653212 14671857 14697424 14729198 14765122 
2359.166 14801803 14835916 14864923 14887999 14905418 14918758 14929491 
2362.541 14939505 14950719 14965328 14985495 15013551 15050665 15096872 
2365.917 15150496 15209137 15269981 15331280 15391558 15450334 15507058 
2369.292 15560595 15609193 15651304 15685998 15714444 15739318 15764432 
2372.667 15793948 15830407 15874842 15926499 15983732 16044857 16108811 
2376.042 16175456 16245620 16319787 16398473 16481992 16570311 16663503 
2379.417 16761709 16864724 16972072 17082616 17194774 17306892 17417798 
2382.793 17527006 17634620 17740812 17844994 17945366 18039198 18123310 
2386.168 18195380 18254536 18301604 18339070 18369658 18395548 18417742 
2389.543 18436272 18450548 18460092 18465034 18466142 18464170 18460058 
2392.918 18454110 18446538 18437690 18428388 18420610 18416152 18416636 
2396.294 18422616 18433784 18449098 18467836 18490034 18517314 18551476 
2399.669 18594878 18648416 18711820 18783572 18861702 18944450 19031402 
2403.044 19123012 19220978 19326414 19440332 19563118 19694294 19833176 
2406.419 19978864 20130260 20285668 20443420 20601442 20758302 20913866 
2409.795 21068960 21225852 21386768 21553210 21724732 21899074 22072302 
2413.170 22240262 22398938 22545596 22678794 22797820 22902800 22994008 
2416.545 23071992 23137966 23193572 23240200 23279422 23311724 23336932 
2419.920 23354308 23363540 23365288 23361862 23356302 23352280 23352456 
2423.296 23358434 23370288 23387840 23411234 23441484 23480864 23531860 
2426.671 23596576 23676276 23770516 23879026 24000970 24136892 24287748 
2430.046 24454324 24636464 24832222 25038318 25251080 25467386 25686546 
2433.421 25909858 26140536 26381160 26633894 26899112 27175322 27460286 
2436.797 27752182 28049930 28353364 28662852 28978508 29300210 29627646 
2440.172 29960548 30299250 30644650 30997976 31359498 31729412 32106452 
2443.547 32489288 32876604 33268024 33663520 34063532 34467860 34875508 
2446.922 35284692 35692604 36097084 36496676 36890328 37277836 37658716 
2450.298 38032228 38397452 38753520 39099948 39437220 39765964 40086856 
2453.673 40399512 40702532 40993488 41269268 41526916 41764256 41979568 
2457.048 42171656 42339032 42479900 42592272 42674076 42723864 42740828 
2460.423 42724744 42676012 42595052 42482240 42338188 42164500 41963988 
2463.799 41740948 41501580 41252364 41000520 40752968 40515784 40294176 
2467.174 40093216 39916684 39768436 39651420 39567460 39517996 39503768 
2470.549 39525068 39581980 39674396 39801372 39960416 40147400 40356676 
2473.924 40581808 40816264 41055144 41294520 41532240 41766372 41994936 
2477.300 42215184 42423600 42616324 42790188 42942800 43072708 43179232 
2480.675 43261880 43319788 43352556 43359404 43340548 43297200 43231896 
2484.050 43147612 43048304 42937864 42819588 42696484 42570780 42444276 
2487.425 42317260 42189440 42059324 41925012 41784028 41634120 41473656 
2490.801 41301628 41117244 40920016 40709152 40483632 40242480 39985048 
2494.176 39711608 39422852 39120396 38805400 38478900 38141428 37792984 
2497.551 37433616 37063760 36684300 36297104 35903884 35506488 35106796 
2500.926 34705820 34305108 33906556 33512126 33124458 32745854 32378714 
2504.302 32024440 31683966 31357504 31045058 30746140 30460542 30187600 
2507.677 29926540 29676672 29437480 29208730 28990694 28783918 28588846 
2511.052 28405148 28231958 28068062 27912318 27764474 27625366 27496856 
2514.427 27381122 27279286 27191266 27115398 27049274 26990740 26938948 
2517.802 26894882 26860866 26839754 26832952 26840740 26861148 26891394 
2521.178 26928196 26969408 27013976 27062040 27113740 27169750 27229648 
2524.553 27292870 27358148 27424072 27488842 27550268 27605626 27652412 
2527.928 27687974 27710646 27719900 27716368 27701112 27675542 27640124 
2531.303 27594612 27538652 27472146 27396226 27313122 27226366 27139698 
2534.679 27055586 26975790 26900348 26828828 26760492 26695584 26634598 
2538.054 26578728 26528816 26485284 26447674 26415032 26386792 26362568 
2541.429 26342324 26326166 26313598 26303458 26293920 26283182 26269878 
2544.804 26253088 26233130 26210920 26187410 26163410 26139164 26114638 
2548.180 26089620 26064392 26038744 26012992 25987276 25961808 25936872 
2551.555 25913130 25891534 25873494 25859814 25850318 25844164 25839628 
2554.930 25834494 25827284 25817616 25806432 25795182 25785300 25777002 
2558.305 25769408 25760408 25747154 25727394 25699868 25664120 25620814 
2561.681 25570978 25515736 25455934 25392556 25326694 25259754 25193594 
2565.056 25129378 25068400 25011186 24957980 24909168 24865588 24828574 
2568.431 24799526 24779634 24769356 24767918 24773812 24785036 24799806 
2571.806 24816856 24835694 24856432 24879798 24906676 24937768 24973458 
2575.182 25014276 25059694 25109016 25160344 25211258 25259964 25304706 
2578.557 25344888 25381702 25416726 25452736 25491384 25534466 25582330 
2581.932 25635084 25692626 25755556 25824192 25899308 25980840 26068016 
2585.307 26158940 26251750 26344262 26435456 26524766 26612968 26700800 
2588.683 26789002 26878384 26969444 27062780 27158638 27257164 27357796 
2592.058 27459120 27559234 27655592 27746356 27830566 27908786 27982604 
2595.433 28053996 28124726 28195788 28267036 28338190 28408792 28479190 
2598.808 28550380 28623776 28700654 28781722 28867054 28956228 29048858 
2602.184 29144732 29243888 29346682 29453224 29563408 29676922 29793230 
2605.559 29912804 30036490 30165542 30301274 30444478 30595016 30751476 
2608.934 30912082 31075026 31238636 31402200 31565082 31726736 31886350 
2612.309 32042776 32194688 32340874 32480896 32614674 32742460 32864704 
2615.685 32981190 33092026 33196378 33294066 33385050 33469718 33548600 
2619.060 33622628 33692200 33757872 33819800 33878396 33934036 33987492 
2622.435 34039056 34089444 34138692 34187224 34235084 34283128 34331716 
2625.810 34381992 34434108 34488164 34543408 34599492 34655396 34711096 
2629.186 34766660 34822624 34879888 34938672 34999288 35061644 35125440 
2632.561 35190508 35256624 35323180 35389356 35454172 35515944 35573804 
2635.936 35627068 35676524 35723472 35770168 35818416 35869728 35924504 
2639.311 35982492 36043040 36105724 36170252 36236628 36305244 36376036 
2642.687 36448892 36523348 36599332 36676764 36756052 36838028 36923116 
2646.062 37011436 37102880 37196576 37291916 37388796 37487544 37589020 
2649.437 37694280 37803936 37918032 38035884 38156556 38278884 38401972 
2652.812 38525388 38649196 38773628 38899248 39026500 39155892 39288012 
2656.188 39423104 39561220 39702208 39845460 39989880 40134932 40280036 
2659.563 40424856 40569624 40714868 40860748 41007400 41154724 41302320 
2662.938 41450180 41598564 41747916 41898808 42051660 42206460 42362884 
2666.313 42520056 42677472 42834616 42991636 43148676 43306612 43465704 
2669.688 43626612 43789560 43955060 44123156 44294036 44467656 44643848 
2673.064 44821912 45001664 45182480 45364588 45548244 45733856 45921460 
2676.439 46110736 46300600 46490076 46678044 46864436 47050056 47236976 
2679.814 47427524 47624072 47828548 48042080 48265160 48498020 48740388 
2683.189 48992640 49254732 49526672 49807920 50097948 50395864 50701328 
2686.565 51013968 51334148 51661988 51997880 52341436 52692296 53049352 
2689.940 53412252 53780404 54153708 54532292 54916324 55305772 55700580 
2693.315 56100880 56506940 56919652 57339944 57768284 58205308 58650392 
2696.690 59102656 59560824 60023776 60490728 60961380 61435904 61914084 
2700.066 62395616 62879756 63365660 63852184 64338604 64824024 65307872 
2703.441 65789528 66267616 66740988 67208024 67667048 68116128 68553528 
2706.816 68977192 69385104 69775064 70145440 70495168 70824032 71132424 
2710.191 71421544 71692912 71947608 72186320 72409320 72616648 72808040 
2713.567 72983224 73141368 73282000 73403584 73504704 73583080 73637136 
2716.942 73664960 73665912 73639840 73588024 73513136 73418056 73307304 
2720.317 73185992 73058640 72930936 72806984 72691296 72587384 72498344 
2723.692 72427168 72376552 72348336 72344376 72365360 72411352 72481544 
2727.068 72574936 72690312 72826616 72983256 73159952 73355872 73570440 
2730.443 73802000 74048856 74308976 74580384 74861112 75149376 75443496 
2733.818 75741304 76040456 76338392 76632656 76921112 77202272 77475272 
2737.193 77739480 77994880 78241784 78480456 78711592 78936376 79155944 
2740.569 79372048 79586264 79799992 80014784 80232232 80454048 80682176 
2743.944 80918512 81164888 81422680 81692416 81974048 82266472 82568392 
2747.319 82877504 83191000 83505288 83815824 84117176 84403928 84670968 
2750.694 84914168 85131224 85321440 85485728 85625456 85742904 85839960 
2754.070 85917880 85977496 86018976 86041872 86044792 86025680 85982016 
2757.445 85911104 85810768 85679128 85515296 85319504 85091640 84832192 
2760.820 84541168 84218968 83866144 83483760 83074432 82641776 82189800 
2764.195 81723448 81247944 80768120 80289144 79816240 79354344 78908640 
2767.571 78483600 78083040 77710072 77366408 77053048 76770752 76519664 
2770.946 76299648 76110136 75950776 75820248 75716768 75638160 75581376 
2774.321 75543400 75520728 75509064 75504016 75500984 75494512 75480160 
2777.696 75453120 75409440 75345520 75258464 75145904 75006040 74838432 
2781.072 74644128 74425848 74188016 73936640 73677848 73417904 73161880 
2784.447 72913024 72673240 72442352 72218992 72000592 71783904 71565184 
2787.822 71340856 71107520 70863040 70606064 70336616 70055536 69764792 
2791.197 69466280 69162376 68855808 68548832 68244912 67947392 67659920 
2794.573 67386264 67130048 66894332 66681372 66493152 66330732 66195220 
2797.948 66087492 66007524 65955260 65930112 65930768 65955416 66002316 
2801.323 66069284 66153972 66254264 66368020 66492692 66626012 66766104 
2804.698 66910988 67059404 67209920 67361608 67512848 67661936 67806504 
2808.073 67944184 68072216 68187576 68287368 68368304 68426824 68460072 
2811.449 68464992 68440288 68385360 68301752 68191712 68058416 67905552 
2814.824 67736440 67554696 67364128 67169272 66975080 66788240 66615240 
2818.199 66463040 66338412 66246972 66193560 66181792 66214204 66291860 
2821.574 66414544 66580324 66785732 67026080 67295800 67588336 67897496 
2824.950 68217032 68540528 68861744 69174376 69471688 69747944 69998192 
2828.325 70218896 70408616 70567744 70698424 70803512 70886520 70951392 
2831.700 71001416 71040088 71071040 71097408 71123216 71152176 71188088 
2835.075 71235360 71297712 71379328 71484272 71616672 71780816 71981312 
2838.451 72223648 72514200 72861096 73272872 73760216 74335048 75009584 
2841.826 75797560 76714136 77774752 78997384 80401968 82007904 83834592 
2845.201 85895672 88194872 90718408 93429592 96265952 99129816 101900144 
2848.576 104438584 106592936 108228568 109237048 109549320 109149232 
2851.469 108069912 106391520 104219632 101682168 98913648 96033960 93155552 
2854.845 90370992 87746728 85331168 83150152 81210392 79503896 78011688 
2858.220 76709152 75567848 74560328 73662376 72851104 72108232 71418024 
2861.595 70766856 70144512 69543080 68956880 68383816 67823424 67278240 
2864.970 66752584 66252992 65787940 65366224 64997436 64690180 64450548 
2868.346 64282276 64185120 64155624 64186348 64267516 64387476 64532304 
2871.721 64687604 64839184 64973996 65081836 65156668 65196940 65205716 
2875.096 65189624 65157860 65118900 65081260 65050968 65031992 65027492 
2878.471 65039076 65068172 65115668 65181924 65266596 65368876 65487528 
2881.847 65621236 65768980 65929844 66103272 66288076 66482960 66685780 
2885.222 66894292 67106308 67320216 67535376 67752048 67971144 68194544 
2888.597 68424272 68662728 68913120 69178496 69463128 69772144 70111216 
2891.972 70487408 70909576 71387328 71932544 72557896 73275104 74094992 
2895.348 75023760 76061736 77199312 78417104 79683264 80951728 82170624 
2898.723 83281464 84226576 84961192 85455920 85704272 85722960 85550520 
2902.098 85241160 84852896 84446584 84075640 83781432 83597424 83546568 
2905.473 83644264 83901432 84325216 84920736 85692536 86644768 87782664 
2908.849 89113080 90643080 92379040 94323504 96472448 98810880 101311064 
2912.224 103934056 106625592 109319808 111946016 114425432 116680608 
2915.117 118644352 120259664 121489960 122322112 122765728 122849784 
2918.010 122615512 122112032 121384392 120469064 119391976 118165504 
2920.903 116791976 115267128 113586352 111749472 109765776 107655136 
2923.796 105449936 103192728 100928400 98704696 96564808 94541352 92659000 
2927.171 90930496 89358168 87936320 86652696 85492096 84436688 83469832 
2930.547 82576608 81744496 80964584 80230760 79539152 78887856 78275352 
2933.922 77700360 77161152 76655824 76181760 75735944 75314416 74912288 
2937.297 74523944 74142696 73762576 73379056 72989960 72597104 72205176 
2940.672 71822376 71457944 71121184 70819896 70559088 70339536 70158064 
2944.048 70007184 69875736 69748920 69612144 69450536 69253256 69015488 
2947.423 68739456 68435208 68118184 67808360 67526552 67289728 67111176 
2950.798 66997504 66948792 66959000 67017956 67112688 67227832 67348688 
2954.173 67461952 67555776 67621904 67655008 67652992 67615704 67545360 
2957.549 67445120 67318704 67170544 67005544 66828356 66644208 66457944 
2960.924 66273720 66095092 65925220 65766044 65619424 65486716 65368920 
2964.299 65266864 65180688 65110436 65055588 65015444 64989200 64975692 
2967.674 64973808 64982116 64998856 65022760 65052928 65089264 65133184 
2971.050 65186740 65252496 65333060 65429972 65543620 65672800 65814428 
2974.425 65963744 66114148 66256776 66381188 66475780 66528456 66528456 
2977.800 66468596 66345552 66160916 65921128 65636844 65320044 64984388 
2981.175 64643228 64308168 63989380 63694804 63428500 63191248 62979564 
2984.551 62786244 62600776 62411644 62208560 61983592 61732920 61457244 
2987.926 61160448 60848120 60524740 60192688 59850288 59492460 59111504 
2991.301 58700116 58252704 57768396 57251588 56711944 56163132 55618664 
2994.676 55090524 54586580 54108296 53652392 53211460 52777296 52342480 
2998.052 51902280 51455472 51003832 50550392 50099136 49653140 49214612 
3001.427 48784652 48364112 47953412 47553232 47164248 46786968 46421856 
3004.802 46068988 45728332 45400084 45084400 44781760 44491956 44214972 
3008.177 43949784 43695164 43449844 43212500 42982268 42758196 42539904 
3011.552 42326572 42117256 41911220 41707684 41506320 41307676 41112724 
3014.928 40922892 40739468 40563692 40396096 40236924 40085804 39942076 
3018.303 39804636 39672184 39543108 39415956 39289712 39164124 39039732 
3021.678 38918020 38800544 38689116 38584700 38488060 38399404 38319088 
3025.053 38247908 38187376 38139476 38105980 38088184 38085688 38096104 
3028.429 38115276 38137488 38156048 38163932 38154820 38123596 38066916 
3031.804 37983552 37874540 37742888 37592668 37428924 37256864 37080468 
3035.179 36903388 36728256 36556616 36389620 36228200 36072564 35923140 
3038.554 35779844 35643108 35512672 35388816 35271572 35160792 35055680 
3041.930 34955440 34858564 34763860 34670180 34577496 34486156 34397736 
3045.305 34313608 34235084 34163276 34098188 34039704 33987312 33940592 
3048.680 33899108 33862100 33828824 33797988 33768044 33737496 33705340 
3052.055 33671036 33634840 33597464 33559552 33522006 33485212 33449390 
3055.431 33414926 33382260 33351988 33324796 33301328 33281974 33266984 
3058.806 33256576 33251320 33251568 33257972 33270742 33289808 33314242 
3062.181 33343364 33376284 33412818 33453326 33498958 33550356 33607704 
3065.556 33670180 33735600 33801460 33864716 33922856 33974092 34017268 
3068.932 34051348 34075788 34090448 34095680 34092420 34083136 34070448 
3072.307 34057228 34046188 34038588 34034684 34033824 34034864 34037048 
3075.682 34040132 34044216 34049484 34056008 34062924 34069016 34073064 
3079.057 34074424 34072812 34069268 34064712 34060344 34056900 34054500 
3082.433 34052924 34051744 34050952 34050704 34051776 34055112 34061348 
3085.808 34071276 34085176 34103172 34125392 34151488 34181204 34213860 
3089.183 34248708 34284740 34321532 34358576 34395944 34434000 34473168 
3092.558 34513956 34556648 34601784 34649728 34701300 34757040 34817492 
3095.934 34882724 34952028 35024144 35097384 35169848 35240488 35308556 
3099.309 35374364 35438388 35501888 35565640 35630628 35697244 35765596 
3102.684 35835760 35907520 35980764 36055356 36131288 36208536 36287340 
3106.059 36367500 36448928 36530916 36612560 36692956 36771056 36846396 
3109.435 36919332 36990728 37062280 37135540 37212132 37292604 37377604 
3112.810 37466448 37558456 37652612 37747476 37841928 37934880 38025216 
3116.185 38112420 38196024 38276532 38354488 38430860 38506200 38581076 
3119.560 38655716 38730408 38805036 38880004 38955820 39032336 39109880 
3122.936 39187840 39265452 39341840 39416320 39489036 39560640 39632288 
3126.311 39705364 39780852 39859220 39940292 40023304 40107572 40191668 
3129.686 40275128 40357404 40438640 40519312 40600216 40682628 40767964 
3133.061 40857032 40950304 41047496 41147404 41248752 41350168 41450836 
3136.437 41550944 41650748 41751420 41853164 41956396 42060164 42163700 
3139.812 42265692 42365620 42463092 42558320 42651668 42743792 42834836 
3143.187 42925612 43016768 43109296 43204336 43302912 43405464 43512032 
3146.562 43621408 43732760 43844868 43957372 44070160 44183644 44298512 
3149.938 44414952 44532596 44650788 44768648 44885172 44999676 45112040 
3153.313 45222264 45330896 45438416 45545560 45653244 45762016 45872336 
3156.688 45984260 46097248 46210156 46322316 46432696 46541636 46649788 
3160.063 46758480 46869232 46982820 47099468 47218876 47339868 47461932 
3163.438 47584620 47708196 47833176 47960372 48089604 48220728 48352480 
3166.814 48483612 48612664 48738312 48860136 48977956 49092208 49203816 
3170.189 49313932 49423332 49532504 49641104 49747916 49851252 49949340 
3173.564 50041132 50126728 50207248 50285032 50362564 50441712 50523296 
3176.939 50607088 50692240 50777408 50862404 50947720 51034316 51123356 
3180.315 51215316 51309724 51405420 51500796 51594740 51686732 51777212 
3183.690 51866808 51956276 52046064 52135796 52225208 52314004 52402476 
3187.065 52491124 52580500 52671088 52762516 52853968 52943976 53031348 
3190.440 53115664 53197112 53276708 53356200 53437392 53521640 53610252 
3193.816 53703532 53801028 53902000 54004648 54107168 54207612 54304624 
3197.191 54397752 54487216 54573844 54658576 54742268 54824776 54905572 
3200.566 54984272 55060772 55136040 55211436 55288688 55368816 55451780 
3203.941 55536532 55621560 55705328 55787376 55867972 55948056 56028460 
3207.317 56108832 56188280 56264764 56336848 56404268 56467956 56530984 
3210.692 56596128 56665696 56740488 56819412 56900616 56981420 57060196 
3214.067 57136568 57211444 57285764 57360548 57435764 57510616 57583628 
3217.442 57654112 57721736 57787476 57852884 57919816 57989976 58064240 
3220.818 58142648 58224404 58308636 58393908 58479008 58562796 58644324 
3224.193 58723288 58799500 58873600 58946272 59018496 59091040 59164544 
3227.568 59239124 59314740 59391396 59468712 59546764 59625132 59703708 
3230.943 59781952 59859604 59936548 60012744 60088308 60163424 60237908 
3234.319 60311456 60383676 60454240 60523596 60592348 60662148 60734164 
3237.694 60809048 60887156 60967368 61048584 61129476 61209280 61287952 
3241.069 61366136 61444148 61522404 61600672 61678268 61754544 61828992 
3244.444 61902352 61975720 62050940 62128956 62211276 62297736 62388040 
3247.820 62481272 62576176 62671588 62766448 62859768 62950952 63039592 
3251.195 63126148 63211216 63296192 63382336 63470492 63560964 63653104 
3254.570 63745952 63838400 63929184 64017908 64104156 64187692 64268016 
3257.945 64344748 64417340 64485796 64550528 64612888 64674720 64737752 
3261.321 64803332 64872108 64944096 65018640 65095232 65173416 65252768 
3264.696 65333136 65414332 65495656 65576224 65655188 65732008 65806336 
3268.071 65878788 65949708 66020100 66089884 66159256 66227944 66295452 
3271.446 66361808 66427356 66492728 66559308 66628060 66700108 66775880 
3274.822 66855216 66937276 67020780 67104416 67187296 67269344 67351552 
3278.197 67435832 67524392 67619504 67722224 67832176 67947976 68066984 
3281.572 68186600 68305128 68421792 68537192 68653096 68771360 68893824 
3284.947 69022208 69157120 69298928 69447536 69602504 69762968 69927656 
3288.323 70095056 70264232 70434104 70604464 70776296 70951160 71131288 
3291.698 71318400 71514544 71720544 71937320 72164608 72402272 72649504 
3295.073 72905224 73167992 73436416 73709408 73986184 74266872 74552064 
3298.448 74842528 75138768 75440896 75748600 76061336 76378960 76702120 
3301.823 77032432 77371792 77721840 78083352 78456080 78838512 79228752 
3305.199 79624592 80024584 80427856 80834448 81244544 81659144 82079352 
3308.574 82506048 82941224 83386000 83841512 84308360 84785944 85273416 
3311.949 85769584 86273272 86783696 87300880 87824808 88355088 88891016 
3315.324 89431520 89975504 90522376 91072608 91627160 92187304 92753920 
3318.700 93327144 93905848 94488872 95074624 95662568 96252472 96844496 
3322.075 97438736 98034296 98629968 99224368 99816624 100406440 100994624 
3325.450 101582144 102169120 102754784 103336464 103910864 104474496 
3328.343 105024536 105559104 106077280 106578120 107061040 107524440 
3331.236 107967464 108388656 108788040 109165216 109520448 109853280 
3334.129 110162240 110445272 110700312 110925808 111121720 111289304 
3337.022 111430216 111545688 111636040 111700104 111735624 111739616 
3339.916 111709824 111644736 111543032 111404352 111228168 111013888 
3342.809 110761408 110470560 110142296 109777592 109377432 108942368 
3345.702 108472016 107965552 107422168 106841608 106224928 105574352 
3348.595 104893024 104184752 103453032 102700888 101931568 101147256 
3351.488 100350160 99542392 98725408 97900480 97068464 96230472 95387688 
3354.863 94542384 93697152 92855256 92019808 91193496 90378584 89577288 
3358.238 88790968 88021320 87270216 86538360 85826304 85133560 84458776 
3361.614 83800400 83156656 82527280 81912432 81312744 80729136 80161928 
3364.989 79611016 79076160 78556760 78053608 77567552 77100136 76652576 
3368.364 76225120 75816536 75424424 75045304 74675568 74312360 73953496 
3371.739 73597640 73244192 72892560 72542432 72192736 71842584 71490720 
3375.115 71135976 70777192 70413376 70042960 69665280 69279928 68886520 
3378.490 68485208 68076320 67659848 67235216 66801964 66358872 65905088 
3381.865 65440216 64964072 64477376 63980976 63476280 62964820 62448868 
3385.240 61930780 61413080 60898592 60389124 59885580 59388168 58895948 
3388.615 58407664 57921784 57437428 56954028 56471808 55991480 55513788 
3391.991 55040008 54571628 54110208 53657116 53213740 52779988 52355380 
3395.366 51938500 51527432 51120556 50716928 50316724 49920680 49529828 
3398.741 49144556 48764520 48388852 48015396 47643040 47270704 46898356 
3402.116 46526772 46157160 45790296 45426644 45065908 44707932 44352492 
3405.492 43999720 43650060 43304412 42963324 42627324 42295968 41968948 
3408.867 41645972 41326224 41009732 40696964 40388060 40083804 39784668 
3412.242 39490812 39202128 38918272 38638404 38361976 38088040 37816840 
3415.617 37548376 37283904 37024356 36770444 36522372 36279348 36039620 
3418.993 35801504 35563804 35326416 35090560 34858564 34632900 34415708 
3422.368 34207588 34007704 33814032 33624172 33435792 33247490 33059164 
3425.743 32871102 32684404 32500036 32318708 32140668 31965912 31794182 
3429.118 31624734 31456880 31289946 31122758 30954958 30786474 30618054 
3432.494 30450946 30286566 30126120 29969956 29818038 29669118 29521700 
3435.869 29374796 29227550 29080106 28932996 28786536 28641544 28498014 
3439.244 28355876 28214490 28073610 27932424 27790824 27648352 27505328 
3442.619 27361678 27217972 27074558 26931650 26789108 26646542 26503810 
3445.995 26360280 26216800 26074948 25936588 25804218 25679726 25562966 
3449.370 25452384 25344818 25236260 25123200 25003148 24875412 24741118 
3452.745 24602134 24460878 24319494 24179698 24042784 23910322 23783290 
3456.120 23662980 23549560 23442394 23339274 23237194 23132828 23023636 
3459.496 22908598 22788634 22666016 22543258 22422872 22306216 22193532 
3462.871 22083422 21975084 21867156 21759252 21651658 21545166 21440582 
3466.246 21338528 21239492 21142738 21047608 20952564 20856084 20756704 
3469.621 20653596 20546586 20436370 20324866 20213632 20104926 19999786 
3472.997 19898452 19800400 19704626 19610052 19515880 19422384 19329532 
3476.372 19238296 19148634 19060448 18973316 18886860 18800282 18713446 
3479.747 18626212 18538960 18451518 18364786 18279036 18195344 18114882 
3483.122 18038716 17967640 17901616 17839298 17778816 17717826 17654188 
3486.498 17586936 17516346 17443494 17371066 17301238 17236176 17176988 
3489.873 17124250 17077688 17036404 16999774 16966388 16935138 16905064 
3493.248 16874714 16843370 16810750 16777035 16743181 16710296 16679961 
3496.623 16653690 16632449 16616922 16607145 16602498 16601706 16602807 
3499.999 16604356 16604872 16603874 16602084 16601397 16604666 16615063 
3503.374 16634962 16665742 16706990 16757267 16814196 16875472 16939136 
3506.749 17004082 17070210 17138002 17208736 17283964 17365274 17454186 
3510.124 17551156 17656018 17767322 17882660 17999514 18115364 18228654 
3513.500 18339034 18446748 18552964 18658308 18762952 18865820 18966014 
3516.875 19062248 19154072 19241828 19326068 19407174 19484550 19556188 
3520.250 19618822 19669298 19704210 19721548 19721028 19703760 19671448 
3523.625 19626310 19569668 19501774 19422142 19329360 19222226 19099812 
3527.000 18962448 18811424 18649558 18479866 18305786 18130012 17954276 
3530.376 17779126 17604256 17428870 17251140 17070038 16883636 16690532 
3533.751 16489977 16281670 16066587 15847659 15629046 15415762 15212465 
3537.126 15022811 14847504 14685463 14533829 14388275 14245441 14102551 
3540.501 13958306 13812603 13665548 13517482 13368681 13219350 13069217 
3543.877 12918795 12768595 12619641 12472887 12329624 12190634 12056765 
3547.252 11928591 11806753 11690872 11580501 11473865 11369365 11265332 
3550.627 11160984 11056661 10954130 10856108 10765410 10683730 10611539 
3554.002 10546896 10486675 10427414 10366090 10300363 10229796 10154730 
3557.378 10076623 9997142 9917539 9838967 9762070 9686847 9613262 9540572 
3561.235 9468401 9395395 9320913 9243667 9162408 9076597 8985188 8888116 
3565.093 8785522 8679536 8573340 8471090 8378152 8298677 8234951 8186632 
3568.950 8150640 8122484 8096962 8069586 8036979 7997355 7950614 7897602 
3572.807 7840818 7782759 7726091 7672837 7624006 7579463 7537891 7496998 
3576.665 7455064 7410235 7362007 7311290 7259872 7210078 7164196 7123102 
3580.522 7086896 7054632 7024762 6995702 6966071 6934692 6900084 6861068 
3584.380 6816132 6763057 6701272 6630917 6554754 6477831 6407075 6348939 
3588.237 6308393 6286272 6279952 6283818 6291180 6295483 6291483 6276624 
3592.094 6249866 6212657 6168393 6121378 6075846 6035426 6001998 5975190 
3595.952 5953321 5933704 5913148 5889469 5861660 5829823 5795336 5760482 
3599.809 5727981 5700418 5679738 5667217 5662786 5665606 5673897 5685110 
3603.667 5696490 5704950 5706864 5699008 5678899 5645397 5599144 5543700 
3607.524 5484706 5429511 5384689 5354230 5338329 5332594 5329876 5322899 
3611.382 5306162 5277552 5238950 5195892 5154984 5121623 5098189 5083270 
3615.239 5072777 5060675 5041769 5012707 4972788 4923590 4869573 4816533 
3619.096 4769865 4734993 4714929 4709837 4718144 4736299 4760184 4785644 
3622.954 4809765 4830069 4845649 4855566 4858414 4852317 4832984 4796197 
3626.811 4738544 4660066 4567003 4473625 4399915 4362395 4369156 4415145 
3630.669 4485510 4561880 4629523 4677951 4703373 4707459 4696440 4678654 
3634.526 4662344 4652162 4649851 4653435 4658760 4661774 4660167 4652765 
3638.384 4640608 4625538 4610067 4596069 4585152 4578321 4576111 4578790 
3642.241 4585922 4595935 4606517 4613884 4613884 4602398 4576212 4533052 
3646.098 4473559 4400484 4317784 4231687 4148818 4075430 4017906 3981857 
3649.956 3971792 3989616 4033825 4098777 4175179 4252231 4319892 4369524 
3653.813 4396066 4398811 4381205 4351518 4320729 4300416 4298810 4318487 
3657.671 4356037 4404936 4456854 4504158 4541891 4567740 4582004 4588065 
3661.528 4590778 4595198 4604943 4621553 4643857 4668941 4694028 4716771 
3665.385 4737472 4757906 4779915 4805712 4836770 4875436 4928416 5009456 
3669.243 5139862 5346615 5654662 6075578 6606593 7233324 7939073 8710096 
3673.100 9535830 10403249 11277166 12090050 12742287 13117400 13132563 
3676.476 12772382 12089334 11174141 10124781 9034950 7981526 7028871 6227009 
3680.333 5599177 5142913 4832180 4629958 4497495 4404936 4336023 4283216 
3684.190 4244000 4215527 4191037 4161330 4117876 4055263 3974635 3883992 
3688.048 3797011 3727393 3684350 3670449 3682078 3713256 3757404 3809412 
3691.905 3864201 3916656 3961861 3995200 4014060 4018575 4012054 3999982 
3695.763 3987776 3980486 3980253 3986037 3994765 4002122 4003694 3995936 
3699.620 3976909 3947049 3908832 3867410 3829401 3802092 3791195 3799151 
3703.478 3824755 3863532 3909434 3955943 3997808 4031283 4054193 4065296 
3707.335 4063992 4049644 4022755 3984700 3938924 3890210 3845480 3810381 
3711.192 3789758 3785313 3796644 3821078 3855108 3895225 3937820 3979416 
3715.050 4015633 4042888 4057805 4059310 4049008 4031250 4010950 3993360 
3718.907 3981088 3973398 3967546 3960256 3949389 3935413 3921404 3910671 
3722.765 3905556 3905957 3908832 3909769 3905355 3894423 3879545 3865605 
3726.622 3858451 3862462 3878609 3904352 3934142 3962664 3984198 3994765 
3730.479 3992792 3978580 3954204 3923175 3888672 3852467 3815061 3775352 
3734.337 3732138 3687090 3644386 3610907 3593968 3598512 3623837 3665337 
3738.194 3715027 3765426 3810415 3846750 3873060 3888839 3891949 3878476 
3742.052 3841369 3774316 3674827 3551541 3426286 3329513 3287712 3308880 
3745.909 3379934 3474613 3566373 3634329 3665069 3655078 3610072 3543724 
3749.767 3472643 3412861 3374825 3362703 3376328 3413829 3472509 3548066 
3753.624 3633694 3721243 3801156 3865037 3907763 3927689 3926620 3909467 
3757.481 3882788 3852400 3822917 3798449 3782037 3778127 3790293 3820276 
3761.339 3865972 3920768 3975236 4019612 4045765 4050580 4036869 4012723 
3765.196 3988043 3972127 3969251 3977711 3991287 4002356 4005098 3997039 
3769.054 3979851 3958484 3939626 3928960 3929094 3940127 3959554 3983462 
3772.911 4007406 4027638 4041283 4046701 4044494 4036534 4025732 4014763 
3776.769 4005198 3997173 3989682 3981088 3970990 3960357 3952331 3950025 
3780.626 3955775 3969485 3988813 4009780 4028474 4041785 4048841 4050447 
3784.483 4048540 4045229 4042052 4039310 4037136 4035196 4033658 4032788 
3788.341 4033223 4034862 4037370 4040012 4042554 4044962 4048306 4053223 
3792.198 4059611 4066166 4069811 4066567 4053323 4028508 3993628 3953268 
3796.056 3914483 3883892 3865371 3859086 3860456 3862529 3857615 3838928 
3799.913 3804064 3755733 3703298 3660224 3640844 3652606 3694910 3757705 
3803.771 3826928 3888304 3930030 3944909 3933440 3903851 3870352 3848823 
3807.628 3851531 3880883 3931668 3992458 4052587 4103827 4142094 4167083 
3811.485 4180766 4185717 4182038 4168923 4143934 4104764 4052520 3992792 
3815.343 3935480 3893687 3877239 3888672 3922072 3965740 4005433 4027872 
3819.200 4024495 3991923 3935045 3866674 3805702 3770807 3771676 3807306 
3823.058 3866039 3933306 3993193 4034694 4052453 4047236 4025598 3997373 
3826.915 3972461 3957113 3952766 3955909 3960858 3962563 3957648 3946380 
3830.772 3931768 3918395 3910404 3910170 3917759 3930966 3946213 3959688 
3834.630 3967646 3967780 3958484 3940361 3915285 3887669 3862228 3844043 
3838.487 3836388 3839998 3852801 3871522 3892718 3912878 3929996 3942769 
3842.345 3950359 3952934 3951094 3946313 3941197 3938489 3940562 3948620 
3846.202 3961728 3977577 3993260 4005834 4013392 4015666 4012857 4004730 
3850.060 3989682 3963466 3919698 3853236 3762317 3653842 3545561 3462957 
3853.917 3427288 3447059 3514127 3611141 3719472 3824454 3917592 3994598 
3857.774 4054159 4095800 4120351 4128346 4120987 4100516 4070815 4035932 
3861.632 4000082 3966108 3934142 3903884 3875300 3849926 3832276 3828633 
3865.489 3842906 3875166 3919832 3966877 4003627 4020114 4010349 3976173 
3869.347 3928124 3882454 3855409 3855108 3880314 3920768 3964302 3999380 
3873.204 4019478 4024294 4018575 4010114 4005767 4009412 4020013 4033023 
3877.062 4042219 4041584 4027872 4000985 3964302 3925048 3892049 3872859 
3880.919 3872391 3889976 3921203 3957882 3991053 4013626 4020983 4012990 
3884.776 3994464 3974902 3965439 3974501 4005098 4053156 4109514 4162199 
3888.634 4200940 4217367 4208099 4175045 4125503 4071116 4023792 3993026 
3892.491 3983195 3993026 4017839 4051250 4087873 4122893 4153334 4176751 
3896.349 4191806 4197025 4191639 4175815 4151160 4120184 4087137 4055363 
3900.206 4027738 4005333 3987007 3971692 3958116 3946213 3937252 3934376 
3904.063 3939626 3954940 3979818 4012221 4049075 4087137 4124232 4158821 
3907.921 4190535 4219274 4245338 4268828 4289507 4307578 4322804 4335789 
3911.778 4346966 4356839 4365274 4371298 4373306 4369457 4357476 4337228 
3915.636 4309652 4278130 4247346 4222419 4207798 4205590 4215460 4234966 
3919.493 4260998 4289273 4316245 4339671 4357308 4368219 4371666 4367750 
3923.351 4357275 4342482 4326652 4313567 4306372 4306741 4313869 4325214 
3927.208 4336592 4344256 4345561 4339738 4328025 4312965 4297438 4283919 
3931.065 4273846 4268091 4266786 4270300 4279100 4293523 4313099 4336358 
3934.923 4360990 4383983 4403329 4417622 4426995 4432685 4436267 4438978 
3938.780 4440518 4440150 4435831 4426493 4411631 4392485 4371666 4352389 
3942.638 4337562 4329095 4327523 4331974 4340641 4351585 4362596 4371834 
3946.495 4377691 4378728 4374611 4365843 4354095 4341746 4331873 4326786 
3950.353 4328091 4336291 4350247 4368219 4388435 4408451 4426392 4440886 
3954.210 4450661 4454979 4454009 4448418 4440049 4431413 4424919 4423078 
3958.067 4427296 4437606 4452669 4470613 4488356 4503589 4514771 4520931 
3961.925 4522773 4521802 4519659 4518688 4520295 4525251 4533520 4544435 
3965.782 4556690 4568678 4579594 4588903 4596336 4602029 4606115 4608559 
3969.640 4609396 4608727 4606852 4604708 4603637 4604909 4609463 4617434 
3973.497 4628485 4641043 4653736 4665023 4674267 4681334 4686291 4689674 
3977.354 4692085 4693559 4694396 4694664 4694497 4694028 4693324 4692721 
3981.212 4691817 4691147 4690444 4689741 4689238 4688568 4687564 4685922 
3985.069 4683645 4680631 4677851 4676377 4677281 4681367 4688769 4698516 
3988.927 4709469 4719886 4728093 4733553 4736032 4735864 4733385 4728964 
3992.784 4722264 4713556 4703138 4691583 4680262 4670582 4663047 4658325 
3996.642 4656114 4655177 4654674 4654138 4653033 4651660 4650153 4648512 
4000.499 4646301 
##END=
