
##TITLE=Z351_2_e
##JCAMP-DX=5.01  $$ Nicolet v. 1
##DATATYPE=INFRARED SPECTRUM
##ORIGIN=UniL
##OWNER=Nicolet
##LONGDATE=2011/09/13
##TIME=13:47:02
##SPECTROMETER/DATA SYSTEM=Nicolet iS5
##DATA PROCESSING=
Ratio against background
%Transmittance->Absorbance
Truncated
ElementMultiply or ElementDivide
##COMMENTS=
Number of sample scans: 32
Collection length: 51.20 sec
Sample gain: 2.0
Background collected on: Mar Sep 13 11:10:05 2011 (GMT+02:00);
Number of background scans: 32
Background gain: 2.0
Sample spacing:  1.000
Number of scan points: 12415
Resolution points: 8192
Number of FFT points: 65536
Apodization: N-B fort;
Phase correction: Mertz;
Laser frequency: 15798.0 cm-1
Number of rejected sample scans: 0
Number of rejected background scans: 0
Bench serial number: ASB1000141;
##RESOLUTION=4.000
##XUNITS=1/CM
##YUNITS=ABSORBANCE
##FIRSTX=649.893372
##LASTX=4000.122314
##FIRSTY=0.108969
##MAXX=4000.122314
##MINX=649.893372
##MAXY=0.317082
##MINY=-0.004851
##XFACTOR=1.000000
##YFACTOR=1.000000E-009
##NPOINTS=6950
##DELTAX=0.482117
##ZPD=6100
##XYDATA=(X++(Y..Y))
649.893 108969448 108420592 107940064 107564632 107302352 107139872 
652.786 107060792 107060584 107153784 107369720 107734496 108256888 
655.679 108920064 109688944 110524408 111401816 112321088 113302856 
658.571 114373816 115552336 116840456 118229584 119713912 121301928 
661.464 123021064 124907408 126992152 129288912 131793872 134499408 
664.357 137412976 140565744 143988304 147673120 151498832 155140208 
667.250 158096016 159811376 159951872 158601936 156185040 153215456 
670.142 150061872 146924304 143859008 140847072 137866512 134920192 
673.035 132039888 129278200 126679016 124262928 122028168 119959648 
675.928 118043264 116273256 114651704 113179784 111847880 110633064 
678.820 109499480 108407624 107328104 106244272 105156128 104073200 
681.713 103008080 101969112 100958088 99972344 99008904 98067640 97153280 
685.088 96273560 95436928 94650696 93918680 93242448 92619664 92044712 
688.463 91508152 90995664 90489328 89970488 89421584 88831056 88195720 
691.838 87519536 86811984 86085104 85351328 84620960 83906336 83222096 
695.212 82584984 82014864 81530648 81144400 80860272 80672112 80565920 
698.587 80523088 80526952 80566720 80638768 80745536 80891768 81080104 
701.962 81308552 81569664 81852696 82148520 82451160 82759384 83075200 
705.337 83400320 83734656 84075152 84416960 84756864 85096192 85440832 
708.712 85802568 86196048 86641008 87160576 87783800 88546640 89485872 
712.086 90629936 91987336 93532000 95196184 96866688 98412048 99697688 
715.461 100615920 101115136 101203720 100951312 100464512 99880632 99343016 
718.836 98979432 98908656 99223832 99981528 101192672 102802144 104682904 
722.211 106622880 108363096 109639648 110218352 109971288 108898728 
725.104 107140504 104932176 102559168 100296896 98336656 96781096 95641136 
728.478 94865248 94371096 94078520 93931272 93893144 93943776 94067856 
731.853 94245288 94452176 94667048 94874312 95070296 95259888 95451960 
735.228 95651584 95857296 96061944 96257600 96440384 96612984 96782712 
738.603 96958552 97146072 97345080 97552080 97763264 97977744 98198352 
741.978 98430080 98675000 98930408 99188440 99439984 99679304 99908032 
745.352 100134336 100369240 100619848 100883552 101147840 101394584 
748.245 101607600 101778168 101909408 102013072 102104392 102194192 
751.138 102286136 102377352 102463472 102543144 102620440 102704168 
754.031 102802184 102917320 103044704 103173096 103290304 103389552 
756.923 103472208 103547736 103629832 103732312 103863688 104027056 
759.816 104221224 104442672 104688176 104954880 105239336 105537856 
762.709 105846752 106164720 106497232 106859152 107274864 107780776 
765.601 108421664 109243392 110290832 111593240 113150200 114914920 
768.494 116785656 118612784 120206168 121391480 122054368 122184328 
771.387 121894696 121404104 120988800 120876296 121185800 121867752 
774.279 122716808 123405216 123576328 122971416 121476728 119169792 
777.172 116268752 113079952 109897576 106928696 104283824 101965464 99906664 
780.547 98006064 96173360 94351256 92519696 90692896 88905984 87203384 
783.922 85624728 84201600 82954824 81892864 81015568 80316536 79787768 
787.297 79423320 79223264 79194712 79351680 79711336 80289264 81098752 
790.671 82148720 83445856 84999992 86826432 88944976 91378904 94144488 
794.046 97242720 100648208 104307632 108135736 112014920 115816056 119398952 
797.421 122630752 125415992 127709616 129541544 131014976 132306728 
800.314 133631888 135185008 137109056 139429840 142033952 144644768 
803.206 146865280 148257792 148396208 147005264 144024848 139640288 
806.099 134237088 128316176 122396160 116857808 111909352 107560816 
808.992 103666264 99992248 96304208 92453032 88394400 84194552 79983632 
812.367 75918936 72133936 68708368 65675580 63025108 60724484 58732056 
815.742 57009680 55525988 54252360 53164196 52238396 51454132 50796592 
819.116 50256756 49830628 49517868 49317940 49229236 49248348 49371432 
822.491 49595712 49921276 50350508 50887292 51536092 52299724 53177528 
825.866 54163616 55242364 56386648 57558240 58705160 59773360 60716332 
829.241 61505224 62143676 62671548 63168028 63734332 64488100 65546588 
832.616 66999092 68897160 71228488 73907264 76753904 79499912 81833096 
835.990 83405504 83918120 83192128 81197888 78081448 74119512 69686600 
839.365 65155088 60836608 56966308 53664424 50960500 48816608 47159552 
842.740 45903488 44965352 44278512 43786260 43441568 43208988 43060088 
846.115 42975796 42945984 42965188 43029460 43134144 43271760 43434500 
849.490 43618112 43823204 44055972 44325484 44639920 45002544 45411008 
852.865 45859152 46340932 46853988 47401432 47990936 48632416 49336352 
856.239 50110776 50964932 51909972 52960556 54136444 55461868 56962040 
859.614 58666096 60606372 62817260 65336832 68196176 71406040 74937288 
862.989 78704448 82558248 86274848 89598344 92266424 94044856 94788824 
866.364 94455760 93122296 90961264 88225720 85210312 82186752 79401960 
869.739 77043592 75224976 74004728 73387336 73338568 73792264 74658960 
873.113 75835400 77193256 78594640 79899312 80964664 81677016 81962768 
876.488 81798328 81215504 80293096 79144848 77888432 76634880 75470504 
879.863 74441176 73557016 72794368 72110576 71454664 70783392 70073800 
883.238 69325552 68561208 67816304 67132800 66545524 66075876 65732816 
886.613 65514648 65416256 65434864 65574684 65845044 66257896 66821440 
889.987 67536544 68395296 69384368 70487376 71690808 72986904 74372320 
893.362 75846760 77410040 79058744 80784200 82572000 84396280 86216976 
896.737 87977864 89597896 90981400 92028456 92643456 92762120 92361784 
900.112 91467984 90149224 88508208 86670376 84756264 82880872 81142368 
903.487 79610112 78333720 77341464 76642696 76235464 76109904 76253784 
906.862 76654720 77304288 78197744 79334056 80713688 82337520 84205736 
910.236 86317736 88671472 91261808 94078552 97102520 100300984 103632024 
913.611 107045568 110491888 113937136 117368632 120802736 124280928 
916.504 127866672 131631120 135633680 139910768 144452304 149190128 
919.397 153974496 158578688 162721088 166069776 168324672 169277024 
922.289 168862528 167207920 164630256 161625808 158756944 156611248 
925.182 155723088 156455168 158984016 163240832 168929248 175511952 
928.075 182271072 188451968 193282288 196136976 196637056 194647072 
930.967 190283728 183838384 175729264 166413616 156342224 145967776 
933.860 135688560 125849720 116751440 108605560 101554432 95675456 90982136 
937.235 87449704 85029368 83662896 83282024 83800232 85106392 87033592 
940.610 89355808 91811320 94094112 95912128 97037680 97319408 96722024 
943.985 95317576 93273904 90808984 88151480 85520784 83080216 80937320 
947.359 79147040 77716336 76621784 75822536 75274856 74935320 74764512 
950.734 74729720 74799416 74945088 75143416 75375352 75629840 75903464 
954.109 76198656 76520648 76873608 77258960 77674840 78117424 78582968 
957.484 79069640 79576920 80105064 80653408 81219256 81798928 82389432 
960.859 82990200 83603688 84234344 84887056 85564112 86265072 86986752 
964.233 87725120 88478032 89245800 90030864 90835816 91661328 92505672 
967.608 93365672 94238280 95123544 96024704 96947872 97898736 98880608 
970.983 99893192 100933592 101998736 103087976 104203744 105351400 106536528 
974.358 107762520 109029928 110337224 111682960 113068296 114497408 
977.251 115975760 117508664 119098656 120746160 122451104 124217672 
980.143 126055512 127981928 130017056 132180112 134484576 136935440 
983.036 139527824 142248512 145077696 147984608 150922912 153831152 
985.929 156623408 159194688 161439888 163257088 164570816 165345760 
988.821 165589040 165350944 164714624 163795648 162723152 161627056 
991.714 160637776 159861568 159377008 159233376 159446368 160007520 
994.607 160892352 162073600 163525616 165229008 167170288 169335456 
997.500 171707488 174266816 176990512 179857008 182848352 185945888 
1000.392 189125488 192352656 195574000 198723696 201732896 204536400 
1003.285 207090160 209376832 211406688 213213280 214848480 216380848 
1006.178 217884176 219439888 221131392 223029040 225187712 227637344 
1009.070 230380352 233395760 236647680 240098528 243710080 247447872 
1011.963 251279056 255162208 259049600 262891776 266640784 270262112 
1014.856 273735936 277047360 280175616 283078432 285681920 287892096 
1017.748 289605376 290732000 291222624 291079136 290362208 289178432 
1020.641 287682464 286062848 284511840 283232480 282405696 282163744 
1023.534 282591040 283706016 285470304 287797632 290578112 293698016 
1026.427 297038272 300488064 303933888 307244064 310281440 312903360 
1029.320 314973376 316389344 317082336 317018368 316190784 314608832 
1032.213 312293408 309277184 305612864 301374624 296648512 291528128 
1035.106 286095936 280411840 274519680 268451552 262240864 255935280 
1037.999 249596944 243297728 237117632 231129824 225399248 219984320 
1040.892 214926608 210249712 205947360 201973920 198234800 194586272 
1043.785 190866160 186902912 182557824 177760064 172514096 166905408 
1046.678 161073888 155203104 149479824 144064912 139093872 134654592 
1049.571 130789456 127505136 124777472 122562688 120804664 119447240 
1052.464 118437008 117725264 117272040 117038760 116983272 117059536 
1055.357 117209368 117364240 117455944 117414304 117179472 116709784 
1058.250 115981128 114992384 113765392 112346800 110805024 109223064 
1061.144 107700312 106334544 105214264 104417000 103995224 103979312 
1064.037 104376600 105172936 106334672 107806680 109518832 111379384 
1066.930 113278992 115108072 116754520 118121800 119144256 119783184 
1069.823 120031184 119903480 119431928 118655496 117613088 116343896 
1072.716 114882896 113261184 111511040 109665024 107760480 105845320 
1075.609 103973120 102206264 100612280 99252272 98179744 97434256 97034944 
1078.984 96981632 97252384 97808424 98589384 99517400 100504864 101449872 
1082.359 102252976 102833384 103135576 103148056 102906648 102495312 
1085.252 102029872 101642856 101474736 101644952 102247184 103342464 
1088.146 104949096 107043456 109555368 112380232 115374120 118368376 
1091.039 121200432 123715472 125792312 127358112 128381896 128873840 
1093.932 128871472 128432840 127624256 126511424 125163880 123648032 
1096.825 122027952 120371648 118741552 117193480 115770672 114490808 
1099.718 113339808 112264448 111180824 109977512 108534208 106754072 
1102.611 104574048 101987552 99045072 95851640 92548568 89282992 86204856 
1105.986 83437864 81069120 79155784 77720256 76759168 76250744 76162176 
1109.361 76453320 77076864 77983224 79117616 80416728 81814488 83235584 
1112.737 84596488 85817064 86817976 87532872 87919232 87958224 87658256 
1116.112 87048568 86176496 85097568 83866024 82536256 81154112 79755200 
1119.487 78367736 77009960 75692312 74420808 73198544 72028712 70916600 
1122.862 69868616 68891608 67990448 67165288 66411220 65719172 65080800 
1126.238 64491824 63957132 63490816 63117444 62865660 62761128 62823348 
1129.613 63057980 63456184 63993028 64630920 65323280 66014848 66651664 
1132.988 67185936 67581096 67821568 67914536 67891496 67799296 67696088 
1136.363 67640024 67675608 67831368 68113416 68505688 68971640 69458384 
1139.739 69907224 70252432 70433128 70400864 70118888 69568976 68748776 
1143.114 67670848 66357792 64839684 63153656 61338852 59437024 57492308 
1146.489 55545156 53633380 51789716 50037412 48393224 46866428 45461372 
1149.864 44179644 43022000 41988952 41080092 40293200 39623612 39064348 
1153.240 38607516 38246788 37977988 37799780 37712492 37716756 37811524 
1156.615 37995236 38265352 38621348 39064708 39599584 40230744 40962248 
1159.990 41795264 42727632 43753828 44865592 46053076 47302364 48594360 
1163.365 49905292 51203312 52452052 53615352 54656844 55545716 56258168 
1166.740 56775836 57087780 57189860 57085552 56786216 56310976 55687020 
1170.116 54944524 54115988 53234152 52327496 51422200 50542356 49708156 
1173.491 48940016 48256272 47672180 47200552 46849672 46623664 46523528 
1176.866 46547940 46695164 46963220 47351584 47861844 48499616 49275512 
1180.241 50206208 51314236 52622832 54153596 55922356 57935184 60189492 
1183.617 62675564 65378888 68279144 71346712 74540736 77797096 81027624 
1186.992 84128392 86974360 89441288 91420984 92823824 93596072 93722400 
1190.367 93225816 92163456 90619080 88699104 86512520 84168128 81768448 
1193.742 79395992 77117744 74982648 73019360 71241768 69651120 68239248 
1197.118 66991164 65886764 64904124 64017104 63197992 62419528 61652644 
1200.493 60870684 60050904 59174188 58229592 57215564 56141372 55026356 
1203.868 53898176 52790280 51733944 50756104 49875968 49101816 48434560 
1207.243 47868836 47397292 47012320 46706788 46474144 46307424 46198836 
1210.619 46141796 46131588 46167808 46254268 46398848 46610644 46897360 
1213.994 47264536 47714776 48247828 48861804 49553336 50316912 51143072 
1217.369 52019916 52931960 53863104 54800456 55735052 56662864 57584532 
1220.744 58502852 59422360 60348348 61288940 62255860 63264644 64334332 
1224.120 65483676 66726692 68070736 69513448 71043248 72639520 74276184 
1227.495 75921616 77538448 79088320 80531296 81830088 82957064 83895328 
1230.870 84643064 85212736 85632112 85943488 86198792 86465696 86822184 
1234.245 87349696 88138328 89272856 90826176 92860176 95417280 98521824 
1237.621 102182112 106392152 111131656 116360784 122022984 128036664 
1240.514 134293648 140675424 147047744 153270576 159213968 164745664 
1243.407 169738704 174081296 177669920 180423184 182288784 183239440 
1246.300 183275520 182417920 180709072 178208384 174990400 171145600 
1249.193 166764752 161930352 156708912 151140544 145246720 139040208 
1252.086 132540584 125788776 118857896 111845608 104877328 98091520 91614272 
1255.461 85562384 80023024 75043696 70638768 66787860 63446060 60549456 
1258.836 58026104 55804072 53809244 51977004 50253076 48594212 46974108 
1262.212 45381064 43815324 42284972 40801740 39377028 38019536 36736404 
1265.587 35533528 34416064 33388734 32453686 31609126 30849006 30164228 
1268.962 29546136 28988284 28489204 28051448 27679534 27377098 27145306 
1272.337 26982772 26887690 26859914 26902144 27019230 27215572 27491384 
1275.713 27840494 28248434 28692548 29146292 29577950 29953946 30244006 
1279.088 30420310 30463884 30368216 30140502 29801428 29379190 28906186 
1282.463 28409782 27908044 27410414 26919418 26435596 25963428 25512432 
1285.838 25097150 24734208 24437218 24214904 24071150 24006502 24021036 
1289.214 24116296 24294720 24557882 24904640 25329468 25822890 26372356 
1292.589 26964332 27581900 28204980 28809976 29367562 29849304 30232142 
1295.964 30504154 30668972 30746390 30768938 30772850 30794830 30866330 
1299.339 31010006 31242232 31572242 32000900 32517996 33098820 33705340 
1302.715 34284632 34778220 35133704 35308448 35279840 35045588 34622744 
1306.090 34041280 33339214 32560206 31747450 30940972 30177974 29485422 
1309.465 28880722 28369882 27949634 27611840 27348198 27154088 27028996 
1312.840 26974838 26991940 27076146 27218536 27408650 27637160 27900306 
1316.216 28200206 28542526 28933174 29374014 29862188 30391028 30952964 
1319.591 31541992 32154404 32786726 33432678 34081272 34715152 35312688 
1322.966 35852600 36316268 36691584 36975180 37173584 37304448 37394328 
1326.341 37481260 37609036 37819408 38147832 38612440 39208292 39908288 
1329.717 40669892 41446684 42196380 42893496 43529428 44110468 44650864 
1333.092 45167112 45674036 46182732 46702432 47241776 47807796 48405224 
1336.467 49034036 49689248 50362044 51042924 51725360 52406664 53086456 
1339.842 53763152 54430760 55077960 55691052 56257112 56769224 57227244 
1343.218 57636328 58003196 58332132 58622860 58871364 59071904 59220744 
1346.593 59316640 59359144 59343608 59257540 59076952 58769532 58303596 
1349.968 57654752 56816804 55806028 54662520 53444516 52218256 51057420 
1353.343 50028896 49189456 48584240 48237312 48149312 48293816 48622080 
1356.719 49066832 49551888 50010196 50385632 50640264 50757112 50736964 
1360.094 50599200 50379088 50133348 49936256 49867980 50007524 50407404 
1363.469 51077772 51982268 53046356 54175964 55267236 56227992 56981308 
1366.844 57464204 57637612 57484820 57015380 56261260 55274088 54116212 
1370.219 52845884 51516912 50174072 48851908 47588168 46428384 45426388 
1373.595 44646012 44142708 43946156 44049188 44408088 44960352 45639916 
1376.970 46401392 47226672 48124732 49124444 50266056 51595864 53159512 
1380.345 55003004 57167332 59672268 62494896 65541968 68650920 71577720 
1383.720 74032624 75740672 76453272 76010024 74372512 71657392 68140048 
1387.096 64200408 60270836 56703148 53707280 51351300 49584796 48296336 
1390.471 47351988 46632520 46039296 45496764 44958924 44403612 43834492 
1393.846 43275236 42761524 42323688 41972524 41693712 41454844 41222668 
1397.221 40975468 40715888 40470208 40283488 40199848 40244992 40417840 
1400.597 40692268 41030124 41393500 41758820 42119448 42486552 42883624 
1403.972 43340696 43885224 44531644 45279152 46110624 47000692 47921444 
1407.347 48851236 49779424 50705200 51635716 52581396 53552264 54554908 
1410.722 55591772 56660676 57753788 58855768 59938944 60964776 61885424 
1414.098 62650004 63221068 63581748 63744880 63750252 63664996 63580104 
1417.473 63595600 63821592 64350972 65225968 66418400 67827648 69318240 
1420.848 70752160 72029304 73102440 73972712 74691624 75346536 76046656 
1424.223 76884248 77907576 79106448 80423192 81777848 83095904 84334752 
1427.599 85483592 86561448 87603080 88648632 89734144 90885808 92128152 
1430.974 93483016 94965672 96580616 98314600 100141392 102028240 103957968 
1434.349 105947432 108058352 110395536 113078832 116200896 119763320 
1437.242 123668776 127759280 131876856 135896480 139719808 143265200 
1440.135 146426864 149068304 151047696 152216624 152455040 151693488 
1443.028 149913328 147156272 143516976 139150848 134252880 129031328 
1445.921 123715520 118519880 113639592 109253752 105488416 102398824 
1448.814 99952240 98046008 96541056 95305896 94262032 93390568 92724792 
1452.190 92314408 92190952 92335840 92680904 93115680 93520576 93804272 
1455.565 93930816 93956696 94027168 94344744 95067496 96247840 97849336 
1458.940 99790400 101991360 104386664 106923576 109547144 112185456 
1461.833 114761784 117179808 119327904 121101896 122414072 123229080 
1464.726 123581832 123581264 123371944 123078608 122790176 122543752 
1467.619 122338976 122153472 121952032 121688112 121293824 120679696 
1470.512 119738096 118360984 116487280 114148112 111492744 108741224 
1473.406 106109088 103736728 101670232 99902152 98418488 97226064 96358392 
1476.781 95851432 95711632 95902048 96343872 96944640 97616928 98307248 
1480.156 99006232 99743208 100571224 101544552 102705680 104076784 105670784 
1483.531 107506912 109621176 112067032 114901112 118157336 121814016 
1486.424 125761200 129805464 133651896 136933664 139276528 140319728 
1489.317 139805792 137653968 133991432 129136504 123494552 117467504 
1492.210 111346624 105286672 99353264 93549224 87874656 82385824 77200336 
1495.586 72500968 68498088 65355748 63145264 61830716 61308516 61444300 
1498.961 62109916 63202328 64629808 66305332 68146016 70060048 71953624 
1502.336 73738152 75309496 76551912 77331256 77476096 76799184 75137472 
1505.711 72446152 68891136 64865648 60848960 57175648 53938352 51042032 
1509.087 48339852 45714752 43119288 40567984 38122476 35856524 33818332 
1512.462 32022480 30443090 29032776 27740562 26531176 25393294 24341116 
1515.837 23407878 22632190 22041624 21636438 21383914 21223172 21086700 
1519.212 20916368 20683480 20408936 20172604 20098714 20295076 20804010 
1522.588 21576332 22507558 23481948 24416012 25277876 26081316 26877046 
1525.963 27727210 28684866 29771088 30973352 32256532 33579136 34905380 
1529.338 36204464 37455360 38644492 39768688 40844728 41917676 43068352 
1532.713 44392932 45977484 47845344 49928416 52084056 54143760 55971688 
1536.089 57462580 58552368 59212044 59444772 59301332 58882976 58357484 
1539.464 57906528 57665652 57677344 57885136 58182464 58458268 58633556 
1542.839 58656008 58493336 58134088 57588280 56891284 56095112 55252904 
1546.214 54396324 53523892 52605776 51602168 50487936 49273508 48013176 
1549.590 46786636 45673484 44711936 43888120 43148416 42431964 41699332 
1552.965 40948192 40209188 39523000 38907548 38333204 37721780 36963528 
1556.340 35952688 34615172 32956992 31103394 29345654 28066012 27531202 
1559.715 27728976 28395172 29215288 29944610 30454108 30699020 30676580 
1563.091 30417574 29976630 29430992 28861354 28330694 27865116 27444368 
1566.466 27015456 26518040 25916786 25222318 24504558 23872442 23444596 
1569.841 23291866 23403088 23691114 24032768 24320336 24471816 24443072 
1573.216 24220020 23811082 23249462 22599066 21970100 21499034 21309852 
1576.592 21461992 21918136 22568178 23277532 23941622 24496704 24922782 
1579.967 25235346 25470022 25668020 25859744 26059748 26266602 26471198 
1583.342 26664896 26845146 27013376 27169504 27305220 27404768 27447966 
1586.717 27420544 27322120 27170384 26996524 26837604 26728600 26692484 
1590.093 26741322 26878492 27102242 27406356 27776518 28188114 28600738 
1593.468 28962570 29223156 29339946 29292658 29086732 28751062 28327652 
1596.843 27858298 27380242 26919736 26495746 26126600 25830098 25623660 
1600.218 25521148 25527614 25640252 25850600 26150566 26533924 26995288 
1603.594 27525344 28103658 28695664 29258348 29742454 30104422 30315308 
1606.969 30361358 30244930 29978300 29579334 29065616 28453542 27762990 
1610.344 27017786 26245766 25474450 24719476 23979120 23232090 22445306 
1613.719 21585488 20636048 19610328 18566554 17608466 16856286 16411789 
1617.094 16307333 16495036 16867102 17301892 17700638 17987704 18118750 
1620.470 18077608 17876548 17561714 17210908 16928730 16808754 16903754 
1623.845 17202910 17641590 18130428 18589518 18978162 19296418 19579582 
1627.220 19876530 20232550 20668954 21175648 21717174 22245842 22717894 
1630.595 23095192 23347632 23450402 23378154 23109626 22634704 21971320 
1633.971 21178606 20367540 19699080 19325792 19332686 19691626 20285042 
1637.346 20963414 21599906 22120936 22490946 22704036 22770826 22710038 
1640.721 22543048 22287694 21955670 21547812 21052962 20450542 19716588 
1644.096 18834538 17810990 16690498 15562828 14561479 13820061 13423630 
1647.472 13368169 13563733 13868121 14130756 14231781 14075479 13591629 
1650.847 12736760 11519184 10056243 8609029 7581958 7315435 7856540 8953460 
1654.704 10257513 11508943 12561384 13368476 13937058 14295467 14481343 
1658.080 14528895 14463975 14299542 14039817 13688252 13256277 12774020 
1661.455 12294856 11883672 11605479 11498395 11557191 11732128 11945075 
1664.830 12118737 12183887 12094547 11828782 11387358 10796388 10107010 
1668.205 9401219 8774668 8316881 8085485 8083257 8258624 8521131 8776798 
1672.063 8944328 8969798 8836850 8567596 8226307 7903743 7702380 7690846 
1675.920 7872735 8187780 8542386 8852405 9057076 9130566 9074297 8905162 
1679.778 8641374 8288511 7833699 7248080 6502080 5593102 4572729 3578500 
1683.635 2829167 2531315 2769740 3442650 4339370 5243679 6011639 6586072 
1687.492 6964220 7180803 7285311 7332318 7366489 7414077 7481121 7553097 
1691.350 7600874 7584318 7461671 7196030 6762013 6158646 5423304 4647406 
1695.207 3953502 3456644 3197747 3120381 3097689 2994784 2725359 2273201 
1699.065 1720176 1233541 1030796 1251850 1864605 2686783 3501969 4157047 
1702.922 4573031 4744640 4715096 4565363 4391648 4283818 4301152 4453305 
1706.780 4708799 5013780 5318807 5586625 5797519 5947040 6038148 6074872 
1710.637 6058240 5983790 5843928 5631602 5344267 4987200 4571724 4115367 
1714.494 3635799 3149283 2675581 2242792 1896253 1700283 1718812 1990043 
1718.352 2501354 3187033 3950158 4691449 5339403 5850443 6213127 6442956 
1722.209 6574197 6650397 6710425 6782307 6875274 6982570 7087603 7172584 
1726.067 7223722 7231673 7192223 7104241 6969708 6793582 6583078 6345341 
1729.924 6081726 5783382 5429712 4995043 4459733 3832009 3164770 2572110 
1733.781 2200796 2157805 2448470 2963323 3545828 4047504 4375917 4497596 
1737.639 4425823 4214857 3944775 3708945 3577732 3580171 3699455 3891146 
1741.496 4105868 4307009 4477978 4615223 4720255 4792143 4824574 4807789 
1745.354 4734457 4604440 4427999 4223088 4013325 3821345 3663800 3552777 
1749.211 3496591 3504006 3585182 3748013 3991756 4300249 4642651 4978318 
1753.069 5265244 5472291 5581053 5590283 5516651 5393546 5265914 5173694 
1756.926 5141773 5167222 5222719 5265277 5253807 5164372 4995781 4774086 
1760.783 4545440 4368219 4289239 4328393 4471082 4675841 4890985 5067648 
1764.641 5174365 5196596 5135839 5005635 4827188 4622725 4406978 4182539 
1768.498 3937619 3653174 3311016 2907981 2464631 2034882 1697988 1535292 
1772.356 1603163 1900579 2370205 2920123 3464660 3945176 4334350 4631466 
1776.213 4848731 5000272 5094467 5132855 5115622 5047769 4946111 4839417 
1780.071 4758944 4731007 4763534 4844443 4945977 5038450 5102245 5132922 
1783.928 5141841 5148345 5171581 5219634 5287413 5358456 5412367 5429981 
1787.785 5395425 5297542 5127691 4881636 4561445 4183309 3783441 3414096 
1791.643 3140373 3018206 3070292 3278164 3587420 3933039 4253536 4508778 
1795.500 4681200 4768626 4779614 4726954 4625270 4490532 4340909 4200103 
1799.358 4092388 4040347 4056901 4140723 4275219 4435028 4596069 4741291 
1803.215 4864044 4966554 5053971 5129569 5192505 5237475 5258435 5251828 
1807.073 5218058 5161891 5090645 5012707 4936895 4872052 4828628 4817639 
1810.930 4848631 4925266 5042205 5184424 5329642 5456822 5551016 5608072 
1814.787 5634119 5642846 5649124 5662987 5687325 5718447 5750007 5777372 
1818.645 5800877 5824081 5851215 5881509 5907975 5916977 5893600 5826902 
1822.502 5715089 5567461 5405020 5255920 5145361 5088298 5082331 5107609 
1826.360 5132721 5124305 5060239 4935252 4767955 4597576 4479852 4467633 
1830.217 4590811 4845213 5191667 5573367 5930077 6219850 6423788 6545201 
1834.074 6603431 6625232 6636300 6652820 6682227 6725837 6783418 6857298 
1837.932 6951526 7067531 7199769 7332116 7441615 7501549 7490627 7400225 
1841.789 7238781 7034292 6830942 6685289 6649455 6754879 7003043 7365006 
1845.647 7792744 8231879 8639312 8984647 9253618 9446830 9575155 9654593 
1849.504 9699587 9719104 9715139 9684374 9622579 9528988 9408398 9270271 
1853.362 9125017 8979979 8836783 8692179 8541879 8383861 8221309 8062362 
1857.219 7916329 7788831 7679750 7582666 7489447 7393922 7295184 7197343 
1861.076 7106430 7025974 6953479 6880828 6796308 6690303 6556739 6394802 
1864.934 6205767 5992054 5755177 5498732 5233316 4980866 4774388 4654339 
1868.791 4652464 4779513 5017165 5324510 5650265 5948652 6191717 6369651 
1872.649 6487719 6558656 6595794 6608780 6602119 6578806 6542342 6499053 
1876.506 6456441 6419618 6388951 6359194 6322748 6273935 6212522 6144733 
1880.364 6080382 6028136 5990811 5964138 5939247 5907639 5865153 5814309 
1884.221 5760751 5709516 5660100 5605487 5534706 5438805 5316929 5179662 
1888.078 5047233 4943530 4889007 4893028 4950468 5045054 5156057 5264405 
1891.936 5356041 5424110 5466888 5487357 5491383 5487860 5487189 5499202 
1895.793 5529504 5577965 5637945 5698840 5749906 5785464 5806048 5818137 
1899.651 5830293 5848797 5874724 5903945 5929136 5945259 5951339 5951306 
1903.508 5950936 5954463 5961249 5966019 5961282 5941363 5906061 5861223 
1907.365 5816894 5782173 5763605 5762396 5775559 5798727 5828446 5862936 
1911.223 5901358 5941363 5978280 6004920 6013622 5998000 5954698 5882920 
1915.080 5784255 5662383 5523732 5379188 5245960 5144020 5092992 5102681 
1918.938 5167893 5266686 5367212 5439811 5465077 5441858 5386837 5329575 
1922.795 5299823 5314950 5375162 5463365 5556285 5633347 5685244 5714351 
1926.653 5730399 5742922 5756151 5767970 5773913 5771126 5763303 5758132 
1930.510 5764646 5786236 5818338 5849368 5866496 5862768 5840267 5809641 
1934.367 5783718 5771798 5774685 5785229 5792885 5790803 5778681 5761422 
1938.225 5744870 5729224 5706193 5663222 5588907 5482089 5355571 5234859 
1942.082 5149451 5119746 5150357 5227682 5330547 5437664 5538901 5635898 
1945.940 5737046 5849167 5971562 6093689 6200422 6279683 6326951 6348199 
1949.797 6354621 6357244 6360337 6361379 6353141 6331624 6299484 6267279 
1953.655 6247211 6249429 6274305 6313368 6352973 6380478 6390733 6386395 
1957.512 6375232 6363565 6354083 6342853 6324496 6296458 6262606 6232152 
1961.369 6214573 6214136 6227076 6242975 6250269 6244085 6227648 6211817 
1965.227 6207985 6222808 6252892 6287987 6315587 6329943 6333877 6337675 
1969.084 6350351 6375837 6406705 6430244 6433002 6409597 6366187 6318075 
1972.942 6281431 6267279 6276221 6301030 6332632 6368978 6414036 6477730 
1976.799 6565721 6672671 6781297 6868440 6915940 6918533 6886181 6837809 
1980.656 6792606 6761105 6741115 6721597 6690168 6641145 6578100 6512507 
1984.514 6455265 6412456 6381453 6353108 6318041 6274573 6227547 6188255 
1988.371 6165670 6161537 6167821 6171955 6162780 6138348 6107869 6087943 
1992.229 6094125 6132971 6197532 6272792 6342450 6396382 6434078 6463235 
1996.086 6493033 6527912 6565417 6597611 6618066 6626510 6630648 6641313 
1999.944 6668196 6710997 6759186 6795601 6804150 6779548 6728260 6666749 
2003.801 6612615 6578469 6565922 6566830 6571506 6573525 6575072 6584020 
2007.658 6607468 6644745 6685390 6713622 6716986 6691884 6647941 6602993 
2011.516 6575442 6575105 6599764 6636031 6669912 6691514 6700801 6705579 
2015.373 6716516 6738759 6770696 6803342 6828048 6842016 6849657 6861506 
2019.231 6887190 6930013 6985802 7044496 7097943 7142840 7184071 7230258 
2023.088 7286625 7351391 7414380 7461569 7482469 7475693 7450008 7420245 
2026.946 7400899 7398000 7408617 7423447 7434401 7437974 7439390 7447412 
2030.803 7469760 7507651 7555693 7604617 7648724 7688552 7730678 7784176 
2034.660 7852525 7932020 8011902 8079206 8125927 8153375 8170391 8187340 
2038.518 8211449 8240557 8266053 8278075 8270815 8248020 8220296 8201218 
2042.375 8198179 8209322 8223268 8226577 8209795 8173532 8127142 8085384 
2046.233 8060472 8056624 8069586 8090042 8109621 8126096 8142504 8164010 
2050.090 8194296 8231034 8267033 8294692 8310059 8315327 8318671 8329108 
2053.948 8352110 8386733 8425346 8459434 8482375 8494606 8501736 8511400 
2057.805 8528160 8550496 8570705 8580303 8573611 8551577 8521165 8492004 
2061.662 8470887 8459029 8451291 8440751 8422947 8398928 8375451 8360284 
2065.520 8359101 8370653 8387172 8399164 8398421 8383388 8357649 8328330 
2069.377 8300264 8275205 8249675 8219452 8182546 8142132 8105267 8080792 
2073.235 8072455 8078970 8091966 8101520 8099461 8084540 8060775 8036642 
2077.092 8019563 8012678 8014264 8020103 8025909 8030195 8034853 8042515 
2080.949 8053856 8067290 8077519 8080185 8073974 8062666 8053417 8053856 
2084.807 8068235 8094734 8127007 8155806 8174442 8180993 8178562 8171945 
2088.664 8165192 8158034 8147230 8128121 8098380 8060033 8019597 7985442 
2092.522 7963775 7956688 7961481 7972651 7984631 7994352 8001810 8008425 
2096.379 8014635 8019090 8018922 8012374 8000157 7987298 7980784 7986421 
2100.237 8006164 8036338 8070633 8102026 8127581 8148952 8172383 8203818 
2104.094 8246501 8298339 8353595 8405785 8450953 8489843 8527247 8568306 
2107.951 8615451 8666623 8716078 8758169 8790086 8813991 8835970 8862719 
2111.809 8897992 8940471 8984986 9025207 9057854 9083703 9107456 9134491 
2115.666 9168094 9206709 9245732 9279716 9306627 9328665 9352567 9385001 
2119.524 9430237 9486586 9548396 9607606 9659234 9703381 9745025 9791621 
2123.381 9848559 9916352 9991141 10065230 10131565 10186376 10230238 
2126.756 10266436 10298430 10326898 10350548 10366802 10374336 10374201 
2130.132 10371214 10371146 10378917 10396835 10424835 10460744 10503444 
2133.507 10552803 10608925 10671098 10734570 10793093 10839461 10869493 
2136.882 10884340 10890829 10898746 10914579 10940096 10969830 10994603 
2140.257 11006565 11003269 10988859 10973194 10964868 10967111 10975063 
2143.633 10977781 10963882 10925859 10864533 10787081 10704107 10622506 
2147.008 10545776 10470926 10395376 10318449 10245809 10184850 10142519 
2150.383 10118778 10106061 10091342 10061737 10010636 9941031 9862422 
2153.758 9785860 9717443 9655033 9590363 9515102 9428612 9341733 9275586 
2157.616 9252129 9284353 9369900 9489499 9617667 9730285 9815717 9872726 
2161.473 9908827 9929437 9936692 9927167 9896792 9843916 9774270 9696199 
2165.331 9619632 9549174 9482929 9413307 9333303 9240384 9139364 9041412 
2169.188 8957147 8893697 8850884 8820517 8791573 8756445 8712867 8664799 
2173.045 8620149 8585135 8562087 8549415 8542791 8537689 8533431 8529511 
2176.903 8525321 8517921 8500519 8465583 8408792 8331607 8242212 8152733 
2180.760 8075190 8016222 7974777 7943898 7914777 7881609 7842774 7801212 
2184.618 7761103 7725079 7692566 7661101 7628795 7597367 7572315 7560953 
2188.475 7567156 7590691 7624984 7660359 7688620 7706057 7715669 7725045 
2192.333 7741438 7769367 7807587 7851141 7893586 7930671 7961784 7988715 
2196.190 8013556 8036067 8053789 8063173 8062058 8052405 8039342 8029520 
2200.047 8027326 8032692 8040996 8045350 8039612 8023039 7999278 7974237 
2203.905 7953246 7937892 7924428 7907455 7881744 7846891 7806845 7769840 
2207.762 7743462 7732128 7735434 7749128 7767714 7787718 7808498 7831878 
2211.620 7859340 7891326 7924900 7956925 7984834 8008560 8030398 8053012 
2215.477 8076877 8098751 8112592 8111310 8091258 8053789 8005995 7957600 
2219.334 7917206 7889403 7873477 7864739 7857181 7848038 7837276 7828200 
2223.192 7824084 7826277 7833159 7840886 7845643 7845777 7842269 7837781 
2227.049 7835791 7837646 7842943 7849623 7856574 7863591 7871790 7883127 
2230.907 7897366 7912044 7923112 7926149 7918928 7903912 7886804 7874388 
2234.764 7873275 7886164 7911841 7946227 7984261 8022432 8058886 8092742 
2238.622 8124475 8153172 8177616 8196255 8209221 8218270 8225767 8234715 
2242.479 8246163 8259502 8272740 8283986 8293915 8305432 8323265 8351467 
2246.336 8392070 8443150 8499708 8555565 8605785 8647830 8681633 8708709 
2250.194 8731055 8749109 8763376 8773958 8782614 8791946 8805877 8826333 
2254.051 8853285 8883246 8911351 8932658 8944835 8948590 8947236 8944395 
2257.909 8942299 8940641 8937394 8930190 8918487 8904180 8890856 8882638 
2261.766 8881826 8888049 8898566 8910066 8920482 8929377 8938815 8949942 
2265.624 8963574 8977848 8989890 8996385 8996655 8992122 8986880 8984681 
2269.481 8988199 8996825 9007921 9018306 9025511 9029436 9032074 9035931 
2273.338 9042325 9050817 9058733 9062929 9062150 9057144 9051426 9049566 
2277.196 9054640 9067496 9085800 9105053 9120652 9129212 9129821 9123832 
2281.053 9114595 9105053 9098759 9097948 9104444 9119264 9142206 9172967 
2284.911 9209720 9250437 9293052 9336316 9380092 9425700 9474937 9528988 
2288.768 9588195 9651680 9717578 9784402 9851338 9918725 9987717 10059295 
2292.625 10134074 10211919 10292051 10374302 10458843 10546998 10639823 
2296.001 10738544 10843164 10952567 11064818 11177949 11290292 11400727 
2299.376 11508875 11614634 11718137 11820304 11922427 12027333 12138363 
2302.751 12259305 12392590 12538942 12696330 12861282 13029985 13199129 
2306.126 13367588 13535907 13706410 13882079 14064800 14255713 14455000 
2309.502 14661746 14874351 15090766 15307941 15521583 15727086 15920004 
2312.877 16097017 16258279 16406972 16549898 16695421 16852462 17028788 
2316.252 17229042 17454600 17703228 17970058 18247658 18527376 18801010 
2319.627 19061106 19301890 19519690 19712186 19877466 20013526 20118010 
2323.003 20188882 20226164 20233454 20218076 20192042 20170002 20165732 
2326.378 20190932 20252236 20349832 20477702 20624340 20775958 20917134 
2329.753 21033626 21115292 21155784 21155366 21119536 21059920 20991268 
2333.128 20929094 20886956 20873848 20893108 20942514 21016584 21108510 
2336.504 21211692 21322694 21438946 21559408 21683108 21807992 21931066 
2339.879 22049120 22159396 22259932 22349226 22425280 22483060 22513770 
2343.254 22501834 22427268 22268514 22006384 21633094 21157870 20611204 
2346.629 20041528 19507804 19074262 18793052 18701684 18817514 19136654 
2350.005 19634700 20269594 20993214 21752808 22501800 23208460 23853786 
2353.380 24432450 24946366 25401550 25804500 26161124 26478418 26763804 
2356.755 27023180 27260976 27477370 27669082 27831272 27961012 28058378 
2360.130 28128014 28175492 28204908 28215552 28203530 28161810 28085770 
2363.506 27975536 27837560 27682358 27520434 27359172 27200122 27039928 
2366.881 26871548 26688010 26484826 26259810 26012218 25742442 25450030 
2370.256 25135170 24798930 24444648 24076930 23700980 23320430 22935670 
2373.631 22544478 22142590 21726614 21296142 20853650 20404838 19956314 
2377.007 19514214 19081740 18661282 18253638 17860218 17483886 17128454 
2380.382 16797424 16493659 16217519 15968230 15744265 15544591 15369314 
2383.757 15219157 15094814 14995373 14917900 14857756 14809893 14769990 
2387.132 14735711 14706748 14683475 14666510 14654892 14646838 14639607 
2390.508 14631143 14620519 14607908 14594304 14580701 14567098 14553495 
2393.883 14539585 14525880 14513717 14505118 14501555 14503337 14509778 
2397.258 14519131 14530162 14542634 14558258 14579741 14609587 14649032 
2400.633 14697767 14753947 14815242 14880523 14949827 15024767 15107268 
2404.009 15198533 15298399 15405771 15519283 15637632 15760757 15889071 
2407.384 16022682 16161425 16304271 16449779 16597575 16748520 16904788 
2410.759 17068314 17240142 17418834 17600358 17779058 17949094 18106590 
2414.134 18249560 18378196 18493284 18595464 18684390 18759248 18819104 
2417.510 18864158 18896170 18917834 18931366 18938566 18940262 18936214 
2420.885 18927456 18915482 18903160 18894024 18890322 18892674 18900148 
2424.260 18910774 18923788 18940090 18963038 18997236 19047188 19115014 
2427.635 19201064 19303170 19418920 19546100 19684378 19834042 19995622 
2431.010 20168578 20351256 20541758 20738562 20941994 21154426 21379076 
2434.386 21618782 21874544 22144856 22426606 22716254 23010988 23310116 
2437.761 23614174 23924326 24241076 24564090 24892360 25225198 25563282 
2441.136 25908170 26261606 26625544 26999166 27380946 27767688 28157108 
2444.511 28548152 28941744 29339592 29743588 30153786 30568424 30984276 
2447.887 31398318 31808194 32213140 32613746 33010684 33403262 33790320 
2451.262 34169124 34537492 34893856 35238332 35571608 35894312 36205728 
2454.637 36503924 36785664 37047412 37286144 37500368 37689036 37851508 
2458.012 37986448 38091296 38162956 38198340 38194904 38151524 38068216 
2461.388 37946200 37787020 37593212 37367924 37115328 36840772 36550920 
2464.763 36252476 35951968 35655016 35366280 35089984 34830592 34592960 
2468.138 34382604 34205256 34064644 33963340 33901612 33878256 33891332 
2471.513 33938836 34019240 34130340 34268784 34430592 34609824 34800364 
2474.889 34997244 35196792 35397084 35597140 35795712 35990592 36177888 
2478.264 36352436 36509328 36644788 36756596 36844916 36910168 36953568 
2481.639 36975864 36977196 36957680 36917600 36858228 36781440 36689748 
2485.014 36586172 36473364 36354492 36232016 36108352 35985192 35863148 
2488.390 35741420 35618220 35490988 35357184 35215048 35063940 34903948 
2491.765 34735360 34557688 34369800 34169300 33954100 33722992 33475872 
2495.140 33213976 32939080 32652396 32354544 32044880 31722352 31386246 
2498.515 31037692 30678822 30313248 29944752 29576816 29211742 28850412 
2501.891 28493166 28140528 27792732 27450756 27115784 26788896 26471726 
2505.266 26165592 25872226 25593400 25330242 25083004 24850396 24629592 
2508.641 24417520 24211296 24009620 23813112 23623654 23444038 23275786 
2512.016 23119654 22974828 22839760 22713566 22596170 22488784 22392414 
2515.392 22307820 22234054 22169576 22112080 22060276 22014470 21976374 
2518.767 21948388 21932076 21928068 21934656 21949398 21969542 21993418 
2522.142 22020570 22051874 22088652 22131396 22180072 22233462 22290102 
2525.517 22348354 22406962 22464148 22517956 22565664 22604580 22632190 
2528.893 22647340 22649958 22641476 22623150 22596866 22562976 22521620 
2532.268 22472836 22417742 22357634 22295508 22233882 22174632 22118112 
2535.643 22063518 22009626 21955462 21901234 21848096 21798168 21752774 
2539.018 21712714 21677744 21646886 21619722 21596006 21576540 21561672 
2542.394 21551958 21546038 21542312 21538586 21532910 21524032 21512160 
2545.769 21497676 21481312 21463350 21443856 21423038 21401422 21379806 
2549.144 21359446 21341348 21325478 21311280 21297708 21284344 21271296 
2552.519 21259986 21251880 21247668 21247042 21248120 21248052 21244850 
2555.895 21237752 21227802 21217712 21210160 21206542 21206022 21205256 
2559.270 21200246 21186538 21161558 21124198 21075536 21017348 20952008 
2562.645 20881740 20808738 20734878 20662770 20594388 20531370 20474506 
2566.020 20423174 20376500 20333580 20294208 20259490 20231232 20211134 
2569.396 20200372 20198638 20204052 20214812 20228628 20244632 20261920 
2572.771 20280598 20300180 20320178 20339936 20359276 20379348 20402232 
2576.146 20430120 20465336 20508132 20557320 20609676 20662040 20711212 
2579.521 20756460 20798066 20838390 20880316 20926242 20977740 21035642 
2582.896 21099952 21170186 21245442 21324608 21406260 21488972 21571908 
2586.272 21654932 21738910 21825412 21915558 22009730 22106782 22204168 
2589.647 22299310 22389832 22475314 22556974 22637252 22718766 22803092 
2593.022 22890470 22979476 23068322 23155160 23238904 23318856 23394870 
2596.397 23466350 23532840 23593846 23649756 23702592 23755572 23812342 
2599.773 23876748 23950548 24033958 24125332 24222508 24323174 24426528 
2603.148 24532570 24642284 24756658 24875974 24999920 25127870 25259298 
2606.523 25394100 25532674 25675402 25822678 25974260 26129204 26286950 
2609.898 26446794 26608706 26772544 26937962 27103370 27266550 27424356 
2613.274 27573744 27712660 27840388 27957620 28065800 28166972 28262226 
2616.649 28352338 28437516 28517544 28592420 28662426 28727876 28789370 
2620.024 28847296 28901936 28953644 29002878 29050064 29096120 29141402 
2623.399 29186900 29232476 29278694 29325554 29373802 29423758 29475706 
2626.775 29529680 29584832 29640238 29695192 29748982 29802422 29856438 
2630.150 29912626 29972194 30035746 30102822 30172432 30243190 30313960 
2633.525 30383744 30452120 30518586 30583000 30644794 30703926 30760580 
2636.900 30815212 30868998 30923040 30978192 31034988 31093284 31153086 
2640.276 31214248 31277306 31342688 31411390 31483884 31559948 31639128 
2643.651 31720500 31803348 31887420 31973046 32061004 32152016 32246682 
2647.026 32344836 32446440 32550852 32658290 32768610 32882430 32999672 
2650.401 33120166 33243198 33367730 33492946 33618124 33743512 33869908 
2653.777 33998100 34129548 34265272 34405880 34552128 34703808 34860536 
2657.152 35021592 35185544 35350712 35515512 35678864 35840544 36001176 
2660.527 36162188 36324808 36490480 36659496 36831644 37005884 37180836 
2663.902 37355576 37529156 37701360 37871860 38040624 38207272 38371788 
2667.278 38534440 38695632 38856160 39017332 39180372 39346120 39515056 
2670.653 39687140 39862344 40040204 40220420 40402712 40587120 40773204 
2674.028 40960868 41149516 41338976 41529072 41718952 41908664 42097984 
2677.403 42286324 42473764 42660656 42847380 43034984 43224688 43418132 
2680.779 43617012 43822912 44037124 44260760 44494564 44738820 44993576 
2684.154 45258524 45533636 45818312 46112760 46417104 46731360 47055484 
2687.529 47388796 47730012 48077760 48430412 48787024 49147448 49512412 
2690.904 49883252 50261220 50647188 51041360 51443276 51852100 52266872 
2694.280 52687580 53114128 53547092 53986900 54434104 54888540 55350032 
2697.655 55817972 56291700 56770848 57254460 57741904 58232280 58724732 
2701.030 59218616 59713248 60208220 60703260 61197872 61691024 62181488 
2704.405 62667608 63147640 63619612 64081536 64531156 64966112 65383748 
2707.781 65781504 66157640 66510880 66841036 67148304 67433896 67698640 
2711.156 67943136 68167920 68373384 68559808 68727536 68876496 69006320 
2714.531 69116136 69204456 69269232 69308680 69321584 69307280 69265968 
2717.906 69198312 69105800 68990248 68853984 68700408 68533744 68359224 
2721.281 68182296 68008856 67843376 67690128 67552176 67431688 67330960 
2724.657 67251576 67195184 67163240 67156472 67175304 67219240 67288176 
2728.032 67381152 67498064 67638312 67801080 67984704 68187032 68404984 
2731.407 68635520 68876072 69124720 69380712 69643616 69912904 70187584 
2734.782 70465824 70745096 71022920 71296856 71564976 71826432 72080776 
2738.158 72327632 72567104 72799384 73024616 73243600 73457216 73666776 
2741.533 73873872 74080048 74287392 74497464 74712752 74935400 75167648 
2744.908 75411296 75667344 75935944 76216000 76505520 76802304 77102944 
2748.283 77403912 77701392 77990552 78267264 78526784 78765448 78980920 
2751.659 79171768 79338240 79481568 79603704 79706632 79792504 79862752 
2755.034 79918464 79959568 79985624 79994624 79984232 79951248 79893136 
2758.409 79807160 79691744 79545992 79369416 79161952 78923896 78655520 
2761.784 78358008 78032952 77683048 77311848 76923048 76521008 76109464 
2765.160 75692080 75272616 74854496 74441608 74038208 73648128 73274944 
2768.535 72921880 72591264 72284928 72004784 71751816 71527784 71333680 
2771.910 71169232 71034040 70925768 70841544 70777584 70730200 70695656 
2775.285 70670624 70651952 70636472 70619976 70598344 70567008 70520808 
2778.661 70455488 70367312 70252856 70110632 69939920 69741800 69519040 
2782.036 69275880 69017824 68751144 68481792 68215216 67954952 67703176 
2785.411 67460064 67224816 66994912 66767456 66539460 66307648 66069052 
2788.786 65821604 65563664 65294356 65014212 64724444 64426676 64123704 
2792.162 63818640 63514932 63216120 62926128 62648052 62385096 62139776 
2795.537 61913852 61708248 61524044 61361748 61221640 61104344 61009616 
2798.912 60937360 60886732 60856660 60845908 60853148 60877204 60917116 
2802.287 60971716 61039092 61117084 61203212 61294816 61389532 61485948 
2805.663 61583452 61682012 61781468 61881144 61979504 62074060 62161416 
2809.038 62237888 62300412 62346004 62372436 62377904 62361228 62321756 
2812.413 62259228 62174300 62068252 61942968 61801032 61644932 61477776 
2815.788 61302640 61122880 60942472 60766632 60600616 60450888 60324588 
2819.164 60228012 60167076 60146984 60170656 60239924 60354096 60510872 
2822.539 60706384 60935340 61192492 61471824 61767528 62074060 62385632 
2825.914 62696584 63000596 63291364 63563452 63811848 64032844 64224840 
2829.289 64387248 64520584 64626380 64706824 64764328 64801908 64823448 
2832.665 64833216 64835868 64836064 64838604 64847372 64866340 64898616 
2836.040 64947180 65014980 65104580 65219156 65362176 65537804 65751820 
2839.415 66012032 66327176 66708380 67167688 67716920 68368688 69135680 
2842.790 70030656 71068808 72267240 73643960 75217720 77003000 79005088 
2846.166 81213184 83595376 86095768 88626888 91079752 93330264 95242352 
2849.541 96695272 97591328 97867688 97508080 96540440 95034912 93085424 
2852.916 90806488 88319064 85731680 83145736 80645104 78289992 76124432 
2856.291 74172608 72441336 70923928 69603240 68456696 67457152 66578276 
2859.667 65796428 65089800 64441396 63837096 63265144 62716948 62185960 
2863.042 61667652 61159880 60662796 60178460 59710932 59265552 58849352 
2866.417 58469488 58133896 57850120 57623612 57458760 57356692 57315444 
2869.792 57329884 57391824 57491096 57614988 57750536 57885328 58007852 
2873.167 58109804 58186364 58236148 58261796 58268544 58263392 58253200 
2876.543 58244292 58241756 58249032 58268016 58300224 58346188 58405656 
2879.918 58478628 58564084 58661504 58770368 58890636 59022520 59166400 
2883.293 59322108 59488620 59664244 59846560 60032984 60221616 60411704 
2886.668 60603516 60798076 60996996 61201688 61413500 61633744 61864220 
2890.044 62107016 62365588 62643916 62946776 63280396 63651876 64069212 
2893.419 64542680 65083296 65702132 66409328 67211192 68108104 69092240 
2896.794 70146496 71243008 72343208 73403464 74375312 75211216 75873904 
2900.169 76338192 76597128 76662144 76562944 76342656 76048232 75729984 
2903.545 75433136 75193096 75039240 74992616 75067872 75276632 75627272 
2906.920 76126752 76781000 77595568 78575264 79726656 81055496 82567472 
2910.295 84265312 86146752 88200800 90405424 92728152 95122800 97531224 
2913.670 99891056 102130592 104179104 105974544 107462896 108608368 
2916.563 109395792 109830072 109934232 109742784 109298360 108641128 
2919.457 107804696 106814152 105683336 104417000 103014800 101475280 
2922.350 99800536 98000288 96092912 94106576 92077760 90044568 88047216 
2925.725 86121904 84296208 82591232 81018208 79580256 78274040 77090752 
2929.100 76019616 75047232 74160848 73348768 72600040 71906192 71260736 
2932.475 70658496 70096344 69572168 69084552 68632576 68214936 67830168 
2935.851 67475656 67147920 66841608 66550932 66269316 65990588 65710224 
2939.226 65426388 65139652 64853684 64574092 64307668 64060300 63837288 
2942.601 63641824 63474512 63333488 63213708 63107328 63003392 62890016 
2945.976 62754884 62588036 62384676 62146160 61881260 61603764 61332020 
2949.352 61084740 60877356 60721016 60620464 60574524 60576696 60617036 
2952.727 60683788 60764268 60846636 60920624 60977432 61011140 61018156 
2956.102 60997068 60948188 60873088 60774444 60655136 60518756 60369360 
2959.477 60211152 60048468 59885392 59724996 59569832 59421560 59281240 
2962.853 59150268 59030148 58922588 58829624 58752880 58693064 58649596 
2966.228 58621648 58607504 58605380 58613796 58632000 58658928 58694580 
2969.603 58738652 58791532 58853568 58925512 59008440 59103072 59209652 
2972.978 59327692 59455640 59590660 59728796 59865080 59992656 60103676 
2976.354 60189532 60240344 60247732 60204644 60107104 59954728 59750888 
2979.729 59502680 59219068 58911056 58590172 58266836 57951280 57651612 
2983.104 57373328 57119108 56887960 56675588 56474976 56277364 56074712 
2986.479 55860136 55630072 55383872 55123324 54851656 54570992 54281608 
2989.854 53980860 53662812 53319596 52943824 52530052 52077140 51589036 
2993.230 51074900 50547860 50021536 49508512 49017088 48550300 48105852 
2996.605 47677576 47258104 46840148 46419128 45993616 45564988 45135936 
2999.980 44709880 44289484 43876612 43471964 43076260 42689976 42313936 
3003.355 41949096 41595940 41254840 40925548 40607348 40299596 40002380 
3006.731 39715824 39440376 39176308 38923712 38681616 38448708 38223412 
3010.106 38004168 37789948 37580420 37375656 37176540 36983764 36798176 
3013.481 36620200 36449940 36286800 36130100 35978568 35831012 35686596 
3016.856 35544820 35405352 35268520 35134636 35003924 34876624 34752736 
3020.232 34632252 34515748 34403512 34295820 34193248 34095536 34002504 
3023.607 33914224 33831080 33754184 33685864 33628608 33584864 33555940 
3026.982 33541658 33539940 33547242 33558408 33568360 33571940 33564460 
3030.357 33542052 33501890 33441876 33361256 33260688 33141874 33007610 
3033.733 32861486 32707124 32548104 32387782 32229054 32074024 31924434 
3037.108 31781170 31644620 31514380 31389772 31269722 31153868 31041998 
3040.483 30934568 30832038 30734724 30642162 30553422 30467438 30383034 
3043.858 30299924 30218430 30139828 30065182 29995234 29930090 29869074 
3047.234 29811472 29756858 29705588 29658510 29617040 29581640 29552200 
3050.609 29526736 29502940 29477370 29447480 29411348 29368520 29319882 
3053.984 29267314 29213692 29162026 29115322 29076032 29045884 29025266 
3057.359 29013292 29008438 29008404 29010920 29014284 29017544 29020164 
3060.735 29022254 29023566 29024520 29025832 29028596 29034972 29047442 
3064.110 29068698 29100514 29143032 29194946 29253704 29316160 29378978 
3067.485 29439750 29496982 29549364 29595510 29634174 29663866 29683200 
3070.860 29692106 29691502 29683272 29670074 29654146 29636976 29619734 
3074.236 29602744 29586320 29571708 29560144 29553052 29551278 29554612 
3077.611 29561528 29569758 29576354 29579476 29578058 29572132 29562984 
3080.986 29552342 29542092 29534078 29529254 29528404 29530992 29536242 
3084.361 29542766 29549188 29554826 29559932 29565892 29574760 29588732 
3087.737 29608846 29634920 29665106 29696648 29726806 29753914 29778078 
3091.112 29800684 29823608 29848914 29877380 29908900 29942694 29978334 
3094.487 30015934 30056552 30101616 30152366 30209160 30270934 30335846 
3097.862 30401690 30466870 30530600 30593168 30655744 30719646 30785582 
3101.238 30854272 30925566 30999008 31073958 31149312 31224146 31297140 
3104.613 31367510 31434794 31499166 31561624 31623806 31686854 31751868 
3107.988 31818998 31887706 31957458 32027402 32097250 32166966 32236870 
3111.363 32307108 32377500 32448440 32519710 32592102 32666222 32743030 
3114.739 32822818 32905302 32989270 33072930 33154748 33233684 33309306 
3118.114 33381864 33451502 33518034 33581104 33640248 33695640 33748672 
3121.489 33801960 33858264 33920136 33988532 34062276 34138724 34214612 
3124.864 34287360 34356532 34423204 34490100 34560236 34635804 34716732 
3128.240 34801660 34887608 34971492 35050936 35124900 35193704 35258992 
3131.615 35323288 35389212 35459636 35536800 35621600 35714148 35812948 
3134.990 35915616 36019100 36120956 36219448 36313820 36404608 36492280 
3138.365 36577124 36658884 36737052 36811124 36881384 36949420 37017464 
3141.740 37088372 37164556 37247328 37336440 37430944 37529232 37629920 
3145.116 37732372 37836032 37940628 38045756 38150260 38253300 38354304 
3148.491 38453232 38550912 38648944 38748300 38849604 38952592 39056336 
3151.866 39159700 39261676 39362336 39461856 39561220 39660932 39760916 
3155.241 39860820 39959764 40057348 40153724 40249684 40346748 40446276 
3158.617 40549032 40655048 40763380 40872792 40981184 41087556 41191120 
3161.992 41292004 41391460 41491156 41592952 41698380 41808252 41922276 
3165.367 42039464 42157748 42274928 42389260 42499448 42604952 42705952 
3168.742 42803424 42897812 42990244 43081456 43172204 43263632 43356324 
3172.118 43450432 43545512 43639984 43731364 43816720 43893620 43960784 
3175.493 44018716 44069724 44117840 44167836 44224216 44290220 44367204 
3178.868 44454592 44549376 44647336 44743852 44834840 44917288 44990416 
3182.243 45055324 45114944 45172736 45232156 45295588 45364552 45438492 
3185.619 45516048 45595752 45676136 45756496 45836912 45917852 46000136 
3188.994 46084428 46171056 46259760 46349928 46440660 46530752 46619164 
3192.369 46704940 46787524 46866244 46941400 47012804 47080228 47143896 
3195.744 47203656 47260320 47315444 47371424 47430996 47497196 47571276 
3199.120 47653540 47742072 47834024 47925996 48015692 48101964 48184848 
3202.495 48265900 48346444 48426892 48507580 48587280 48664696 48739016 
3205.870 48810048 48877456 48941908 49003588 49062380 49119068 49174204 
3209.245 49229348 49286504 49347336 49412420 49480996 49550956 49619596 
3212.621 49685536 49748544 49810228 49873552 49941276 50013876 50090360 
3215.996 50167192 50240352 50306384 50364648 50416592 50466756 50520352 
3219.371 50581364 50652324 50733312 50821916 50914896 51008904 51100876 
3222.746 51188620 51271168 51347348 51417052 51480392 51538180 51592056 
3226.122 51644372 51697444 51753544 51814352 51880364 51951276 52026156 
3229.497 52103328 52181376 52259172 52335904 52411528 52486224 52560488 
3232.872 52634280 52707672 52779840 52850372 52918376 52984252 53048980 
3236.247 53114164 53182096 53253932 53330236 53410116 53491956 53573744 
3239.623 53654000 53731952 53807744 53881820 53953772 54022772 54087728 
3242.998 54147516 54202540 54255324 54309392 54369132 54438236 54517528 
3246.373 54605444 54698448 54792036 54882220 54967088 55046740 55122760 
3249.748 55197252 55271528 55345968 55420420 55493984 55566316 55638172 
3253.124 55710676 55784404 55860024 55936712 56013040 56087948 56160452 
3256.499 56230936 56300488 56370352 56441584 56514640 56588804 56662940 
3259.874 56735920 56806988 56875688 56942092 57006164 57068168 57128216 
3263.249 57186684 57243876 57300808 57358580 57417648 57478540 57541064 
3266.625 57604356 57667768 57730664 57792432 57853148 57912888 57971308 
3270.000 58028112 58083408 58137076 58189660 58242360 58296356 58353200 
3273.375 58413772 58478476 58547288 58619600 58694960 58772644 58852732 
3276.750 58935040 59019520 59106076 59194656 59284884 59376656 59469736 
3280.125 59563980 59659344 59756060 59854472 59955300 60059196 60166736 
3283.501 60278180 60393580 60512512 60634408 60758972 60886428 61016900 
3286.876 61151756 61291460 61436248 61586088 61740180 61897424 62057552 
3290.251 62220412 62386932 62558264 62735936 62921116 63114344 63315436 
3293.626 63523984 63739352 63960776 64187424 64419188 64655452 64896004 
3297.002 65141572 65392644 65649792 65914036 66185692 66464312 66749216 
3300.377 67039260 67333752 67632352 67935664 68244640 68560208 68882864 
3303.752 69212184 69547352 69887368 70231512 70579944 70933648 71293920 
3307.127 71662432 72039904 72426144 72821048 73223520 73632144 74045944 
3310.503 74464392 74886816 75313984 75747064 76187840 76638904 77102352 
3313.878 77579160 78068800 78568512 79074688 79582888 80090000 80594480 
3317.253 81097392 81600888 82107888 82620888 83140480 83666072 84195880 
3320.628 84728232 85261560 85794816 86327720 86859736 87390344 87918792 
3324.004 88444600 88967464 89488064 90007016 90525072 91042160 91557032 
3327.379 92068064 92572872 93069408 93555512 94029264 94489128 94932736 
3330.754 95358176 95763928 96148968 96513376 96857872 97183120 97488920 
3334.129 97773720 98035584 98272128 98481672 98664064 98820704 98953680 
3337.505 99064672 99153880 99220496 99262384 99276544 99261304 99215504 
3340.880 99138264 99029584 98887976 98711720 98499160 98248872 97960808 
3344.255 97636504 97278496 96889056 96470176 96021856 95543480 95033840 
3347.630 94492376 93919960 93318928 92692592 92044672 91377928 90694280 
3351.006 89994216 89278112 88546160 87798888 87038088 86267128 85489232 
3354.381 84709104 83931464 83159984 82397880 81646952 80907184 80177984 
3357.756 79457936 78745992 78042464 77348912 76668120 76003232 75356984 
3361.131 74730184 74122336 73531704 72955392 72391392 71839024 71299112 
3364.507 70773800 70265320 69775728 69306040 68855848 68423688 68007488 
3367.882 67605528 67216104 66837980 66470644 66113228 65764660 65424116 
3371.257 65090148 64761020 64435168 64110608 63785516 63458452 63128248 
3374.632 62794244 62456596 62115844 61772228 61426132 61077800 60726544 
3378.008 60371228 60010880 59643872 59268860 58884152 58488748 58081364 
3381.383 57661752 57229776 56786972 56335492 55878528 55419328 54961408 
3384.758 54507088 54057484 53612764 53171832 52732960 52294528 51855084 
3388.133 51413248 50968808 50521620 50072028 49621568 49171640 48724964 
3391.509 48284672 47853780 47434656 47028936 46635840 46253052 45877528 
3394.884 45505488 45133620 44760712 44386912 44014060 43644676 43281788 
3398.259 42926888 42580796 42242100 41908664 41578000 41247404 40915172 
3401.634 40580752 40244376 39907096 39570620 39236944 38907220 38582564 
3405.010 38263180 37948876 37638808 37331892 37026952 36723132 36420064 
3408.385 36117496 35816224 35517092 35221372 34930376 34645240 34366788 
3411.760 34095284 33830688 33571940 33318036 33067532 32819066 32571706 
3415.135 32324706 32077306 31829372 31580794 31331398 31081682 30832216 
3418.510 30584812 30341816 30105948 29880680 29668372 29470776 29287944 
3421.886 29118228 28958814 28805728 28655170 28503568 28348448 28188080 
3425.261 28022398 27852080 27678510 27503562 27329460 27157968 26990316 
3428.636 26827488 26669440 26515502 26364470 26215110 26066398 25917948 
3432.011 25769936 25623520 25479966 25339830 25203146 25069032 24935486 
3435.387 24800226 24661818 24519424 24373744 24226432 24079416 23934094 
3438.762 23791236 23650140 23509544 23368644 23227092 23085338 22945416 
3442.137 22808366 22674394 22542560 22409754 22272664 22129166 21978952 
3445.512 21824682 21672032 21527758 21397872 21286294 21193252 21115466 
3448.888 21047154 20981946 20914214 20839884 20757086 20665618 20566596 
3452.263 20461620 20352158 20239980 20126476 20012762 19899840 19788610 
3455.638 19678832 19570502 19462614 19354442 19244980 19133226 19018420 
3459.013 18899978 18777758 18652222 18525232 18399352 18277792 18163558 
3462.389 18059302 17965118 17879658 17799666 17721692 17642662 17561404 
3465.764 17478642 17396104 17315926 17238866 17163680 17087372 17005976 
3469.139 16916674 16817398 16710021 16597368 16484058 16374318 16270731 
3472.514 16173771 16082438 15994629 15908420 15822606 15737085 15652334 
3475.890 15569043 15487486 15406698 15325652 15242320 15155025 15062602 
3479.265 14964676 14862282 14757992 14655406 14559423 14474765 14404887 
3482.640 14351252 14312521 14284339 14260575 14234793 14201686 14158243 
3486.015 14105050 14045293 13984106 13926520 13876537 13835726 13803539 
3489.391 13777237 13752954 13727271 13696528 13658983 13613816 13561750 
3492.766 13504425 13444852 13386518 13333214 13288389 13254501 13232126 
3496.141 13220853 13218462 13221810 13227548 13232126 13231989 13223995 
3499.516 13205756 13175288 13132495 13080144 13023190 12970068 12930435 
3502.892 12913163 12925383 12969453 13042004 13135466 13239606 13343635 
3506.267 13438940 13520935 13588825 13646195 13698922 13754220 13818658 
3509.642 13896652 13990128 14098170 14218120 14345601 14475998 14605784 
3513.017 14731735 14851653 14964643 15069943 15167515 15257077 15338798 
3516.393 15413050 15480275 15541638 15597790 15648555 15693247 15729629 
3519.768 15755190 15767766 15766598 15752785 15730178 15702419 15673151 
3523.143 15643781 15612181 15572615 15518356 15442437 15340961 15214765 
3526.518 15068948 14912448 14755352 14606435 14470997 14350122 14240408 
3529.894 14135754 14030132 13917659 13794749 13659564 13511979 13352144 
3533.269 13181402 13001306 12813536 12621721 12429923 12242128 12062421 
3536.644 11892526 11732503 11580365 11432055 11283355 11131034 10972106 
3540.019 10805627 10631368 10450901 10266028 10080150 9896420 9718426 
3543.395 9549242 9391197 9245495 9112801 8993544 8888049 8797017 8720338 
3547.252 8656247 8600513 8546374 8485551 8410582 8317016 8204967 8080522 
3551.109 7953685 7836027 7738065 7664473 7614665 7581284 7555862 7528452 
3554.967 7492515 7445086 7386440 7318805 7244610 7165712 7082854 6995534 
3558.824 6903417 6805698 6702315 6593103 6477865 6355899 6225564 6084650 
3562.682 5929774 5757695 5565514 5351714 5119511 4876810 4639905 4432317 
3566.539 4279234 4203851 4218772 4320260 4489528 4697076 4912498 5106805 
3570.396 5260817 5364360 5415386 5419245 5384388 5321927 5242371 5154816 
3574.254 5066039 4981234 4902880 4831811 4767788 4709670 4655980 4606249 
3578.111 4560474 4519157 4483267 4452435 4425020 4398041 4366947 4326251 
3581.969 4271203 4196691 4098308 3972695 3817133 3630921 3417669 3187733 
3585.826 2957919 2753367 2603609 2533181 2556644 2670114 2852613 3070358 
3589.684 3285409 3466497 3591396 3650401 3645121 3586752 3492549 3381169 
3593.541 3271521 3177420 3106465 3060181 3034722 3022810 3015570 3005527 
3597.398 2986810 2957118 2917355 2872458 2829967 2799352 2788614 2803021 
3601.256 2842874 2902110 2969896 3033087 3076698 3087444 3055743 2975500 
3605.113 2846109 2672514 2466864 2246389 2032685 1848966 1712957 1632729 
3608.971 1601833 1601966 1607719 1594151 1546431 1463109 1357134 1250421 
3612.828 1168518 1130213 1139615 1183967 1237229 1269163 1251717 1168618 
3616.686 1018275 817157 597851 402168 276823 257859 360913 577213 876716 
3621.025 1216096 1549158 1839682 2062580 2204826 2264641 2244957 2149513 
3624.883 1979658 1732684 1404268 994928 519720 17296 -447476 -786783 -920712 
3629.222 -813506 -493052 -39759 451686 899127 1256901 1511352 1673706 
3633.080 1769644 1830299 1882076 1938685 2001261 2060815 2105229 2125772 
3636.937 2120745 2095007 2058185 2019336 1983153 1949735 1914324 1871527 
3640.794 1817189 1750182 1671212 1579585 1470024 1331110 1144930 892221 
3644.652 556345 129772 -382463 -960387 -1567918 -2161644 -2692063 -3112597 
3648.509 -3385132 -3480662 -3382370 -3088515 -2618723 -2017114 -1345739 
3651.885 -680272 -90579 371492 673706 811746 807630 709183 578906 482865 
3656.224 473810 570876 760362 1003928 1259127 1490106 1676467 1812331 
3660.082 1901910 1954861 1981256 1990143 1988212 1979059 1963881 1941381 
3663.939 1907168 1853192 1769711 1645534 1469260 1232644 932232 575090 
3667.796 181844 -205680 -521283 -686689 -627138 -303468 266413 1007116 
3671.654 1812165 2586875 3262841 3814159 4255343 4628585 4984686 5355303 
3675.511 5727579 6037308 6199683 6142717 5843693 5329407 4667267 3943939 
3679.369 3251157 2667913 2235898 1958788 1804812 1726895 1677897 1624348 
3683.226 1549956 1447783 1312199 1131774 888967 565336 151216 -343331 
3687.083 -882489 -1409584 -1851157 -2144532 -2255728 -2185842 -1963055 
3690.459 -1626482 -1214220 -755825 -277938 191789 626519 1000905 1296579 
3694.316 1508858 1645800 1726629 1773703 1806109 1831430 1843509 1824409 
3698.174 1753309 1614571 1405531 1140977 852314 585309 385586 288660 309383 
3702.513 436130 636474 863867 1074074 1228856 1302761 1283552 1170245 969556 
3706.853 692722 353551 -31741 -447079 -871907 -1281389 -1646948 -1934325 
3710.710 -2109450 -2145356 -2027931 -1763948 -1380784 -923754 -442643 15275 
3714.568 410393 718940 929476 1043583 1074074 1041391 969888 880003 786153 
3718.907 693352 599841 501541 398387 297048 210949 155890 143030 174021 
3723.247 239625 323243 407209 480610 543108 604354 677058 770320 880368 
3727.586 988850 1065405 1074872 988286 787780 472947 60440 -412885 -898361 
3731.926 -1349009 -1726987 -2016224 -2221842 -2359152 -2441168 -2469371 
3735.301 -2432601 -2315254 -2111098 -1832021 -1507530 -1177212 -879083 
3738.677 -639678 -475577 -394513 -400637 -500234 -703726 -1023628 -1467311 
3742.534 -2024435 -2653666 -3267023 -3743867 -3979630 -3938096 -3680561 
3745.909 -3328153 -3013465 -2828171 -2816814 -2980395 -3283564 -3660289 
3749.284 -4024279 -4294800 -4411023 -4343976 -4096496 -3692947 -3172367 
3752.660 -2581670 -1976447 -1412457 -934864 -575984 -348231 -245023 -244592 
3756.517 -315387 -423908 -537366 -630282 -684142 -683580 -616220 -475047 
3760.375 -264229 -3015 272182 514014 681604 746621 704537 575820 402201 
3764.714 235017 114758 59380 55768 70581 63290 7223 -99457 -231247 -342801 
3769.536 -385575 -323036 -147355 120293 437258 756645 1038833 1257100 
3773.393 1401376 1473582 1482791 1439572 1352614 1226098 1060190 856231 
3777.251 620944 370198 133219 -52812 -153946 -147785 -37009 151216 371027 
3781.590 574692 726441 808626 826453 802352 769590 757673 785356 855767 
3785.930 958564 1075635 1188917 1286809 1363018 1416435 1448647 1461680 
3789.787 1457757 1439505 1409720 1370064 1318713 1248128 1145129 994928 
3793.645 785688 516402 202032 -124864 -422187 -650894 -789892 -848230 
3797.502 -864500 -896244 -997017 -1204308 -1523082 -1921757 -2326328 
3800.877 -2637364 -2766444 -2666904 -2361986 -1931455 -1483458 -1112969 
3804.253 -879579 -806726 -875413 -1032156 -1193239 -1272898 -1208339 -983628 
3808.110 -632928 -221875 179126 520018 773008 930970 1000440 989880 903709 
3812.450 738522 486315 142201 -285587 -764425 -1236259 -1630542 -1882170 
3816.307 -1968135 -1917336 -1805459 -1719264 -1729528 -1874384 -2148291 
3819.682 -2499384 -2833373 -3042552 -3033142 -2770724 -2295347 -1704412 
3823.058 -1111978 -605466 -238764 -24551 57723 52487 14314 -9840 9675 73596 
3827.879 158674 227557 246222 193479 67399 -115688 -326976 -533660 -711996 
3832.219 -852430 -961015 -1054204 -1153089 -1275277 -1430853 -1620936 
3835.594 -1837333 -2064702 -2279988 -2455171 -2563686 -2584041 -2507982 
3838.969 -2342806 -2110571 -1839906 -1559169 -1292357 -1052683 -843336 
3842.345 -657312 -482395 -304461 -112906 94309 309582 516867 696140 826851 
3846.684 892586 883755 795613 627946 379849 48411 -373491 -894823 -1520771 
3851.024 -2242609 -3027549 -3800003 -4445100 -4829962 -4850802 -4492784 
3854.399 -3841321 -3040907 -2223292 -1478307 -847801 -338001 58850 353087 
3858.257 553293 663684 687478 631264 506848 331234 122845 -100318 -324857 
3862.596 -540576 -736144 -896939 -1003992 -1039528 -998406 -895715 -770775 
3866.454 -673920 -654467 -744579 -946501 -1226809 -1516908 -1736590 -1815325 
3870.311 -1727746 -1503799 -1213130 -929772 -702171 -545375 -439797 -346642 
3874.168 -222471 -41150 194407 453178 688972 855999 919481 865826 702877 
3878.508 460907 184098 -73352 -260785 -347503 -329823 -234161 -104624 7157 
3882.848 59280 31080 -73650 -223696 -369088 -449561 -420896 -272740 -34955 
3887.187 235613 476795 636474 687545 628742 484092 296518 119829 6792 -10238 
3892.009 76380 247681 470692 706030 918983 1085069 1186791 1214800 1166226 
3896.349 1042919 852447 607672 328681 40060 -232638 -465912 -645435 -768294 
3900.688 -843369 -884804 -906726 -917009 -912446 -880373 -802658 -663631 
3904.546 -456810 -188988 122613 452382 774801 1069391 1321339 1522457 
3908.403 1671511 1771674 1829700 1854822 1858216 1849698 1837586 1825973 
3912.260 1813462 1793799 1757335 1694662 1600403 1475477 1328717 1176026 
3916.118 1037870 931169 868383 852646 878542 935652 1012097 1097559 1183269 
3920.458 1262351 1328152 1374219 1395293 1389310 1359561 1315556 1270991 
3924.315 1241981 1240618 1271157 1327986 1398384 1465204 1512948 1532732 
3928.172 1522191 1486216 1433721 1375548 1321605 1278435 1251119 1242479 
3932.030 1254442 1288039 1341878 1412080 1491436 1571005 1642341 1698787 
3935.887 1738206 1762791 1777862 1788708 1799288 1809203 1813895 1806209 
3939.745 1779891 1731786 1664692 1587799 1513779 1456959 1428668 1433189 
3943.602 1467498 1521493 1582179 1634958 1669083 1678629 1663162 1628073 
3947.459 1581680 1535059 1497620 1476075 1473249 1488044 1516206 1552450 
3951.317 1592521 1633029 1672243 1709764 1745225 1777796 1806342 1829467 
3955.174 1846004 1856353 1862076 1865471 1869763 1876652 1887101 1900379 
3959.032 1914623 1927869 1938819 1946906 1952531 1956758 1961052 1966044 
3962.889 1972602 1980789 1990542 2001494 2013377 2025128 2035514 2043804 
3966.747 2048897 2050662 2049862 2047299 2044569 2042505 2041174 2040108 
3970.604 2038311 2034815 2029622 2023331 2017572 2014409 2015974 2023264 
3974.461 2036813 2056221 2079925 2106194 2133297 2159003 2181981 2200796 
3978.319 2215116 2225141 2231868 2236664 2240827 2245357 2250619 2256015 
3982.176 2260578 2263476 2263409 2260178 2253750 2244424 2232634 2219213 
3986.034 2204426 2189074 2173389 2158304 2144152 2131799 2121544 2113586 
3989.891 2108059 2104796 2103231 2102732 2102399 2101366 2098836 2094741 
3993.749 2089214 2083488 2078660 2075930 2076329 2079659 2085052 2091511 
3997.606 2097671 2102765 2106228 2108591 2109424 2109424 2108358 
##END=
