
##TITLE=Z351_2_a
##JCAMP-DX=5.01  $$ Nicolet v. 1
##DATATYPE=INFRARED SPECTRUM
##ORIGIN=UniL
##OWNER=Nicolet
##LONGDATE=2011/09/13
##TIME=13:36:31
##SPECTROMETER/DATA SYSTEM=Nicolet iS5
##DATA PROCESSING=
Ratio against background
%Transmittance->Absorbance
Truncated
ElementMultiply or ElementDivide
##COMMENTS=
Number of sample scans: 32
Collection length: 51.19 sec
Sample gain: 2.0
Background collected on: Mar Sep 13 11:10:05 2011 (GMT+02:00);
Number of background scans: 32
Background gain: 2.0
Sample spacing:  1.000
Number of scan points: 12415
Resolution points: 8192
Number of FFT points: 65536
Apodization: N-B fort;
Phase correction: Mertz;
Laser frequency: 15798.0 cm-1
Number of rejected sample scans: 0
Number of rejected background scans: 0
Bench serial number: ASB1000141;
##RESOLUTION=4.000
##XUNITS=1/CM
##YUNITS=ABSORBANCE
##FIRSTX=649.893372
##LASTX=4000.122314
##FIRSTY=0.107306
##MAXX=4000.122314
##MINX=649.893372
##MAXY=0.303600
##MINY=-0.004322
##XFACTOR=1.000000
##YFACTOR=1.000000E-009
##NPOINTS=6950
##DELTAX=0.482117
##ZPD=6100
##XYDATA=(X++(Y..Y))
649.893 107306464 106860432 106450912 106097672 105806424 105576256 
652.786 105409184 105320072 105337048 105495648 105820416 106313464 
655.679 106949136 107684728 108475592 109295936 110147848 111055776 
658.571 112053008 113160944 114383600 115710424 117129912 118644440 
661.464 120276224 122058880 124024184 126186240 128538328 131063712 
664.357 133754176 136621632 139680768 142921504 146246928 149398480 
667.250 151976384 153533088 153790368 152801904 150892176 148462480 
670.142 145804544 143077648 140331216 137560000 134762368 131963016 
673.035 129208464 126559808 124063336 121739288 119586072 117590368 
675.928 115740616 114032632 112466896 111040976 109741032 108542120 
678.820 107411256 106316560 105238120 104168576 103112176 102077064 
681.713 101068840 100087072 99126984 98184104 97258512 96356864 95491008 
685.088 94672824 93909880 93204008 92551552 91946512 91381976 90852312 
688.463 90351248 89869416 89393944 88908384 88395208 87841112 87239960 
691.838 86594536 85914776 85215960 84515208 83827800 83169656 82556128 
695.212 82001704 81520328 81122400 80812376 80587984 80440048 80356000 
698.587 80322392 80330008 80375296 80460712 80591928 80774544 81010256 
701.962 81295528 81622040 81978768 82355744 82744864 83140600 83538424 
705.337 83932024 84314352 84677896 85018008 85336120 85641440 85949832 
708.712 86281928 86658160 87101536 87634576 88283128 89078056 90050192 
712.086 91222272 92597152 94145224 95796352 97437456 98939528 100171480 
715.461 101030160 101467656 101494912 101182976 100639856 100003672 99420536 
718.836 99021424 98928456 99237408 100005216 101241368 102886416 104808960 
722.211 106792504 108575264 109892200 110510136 110302368 109270200 
725.104 107553640 105387264 103056088 100834608 98914560 97400088 96304000 
728.478 95576312 95136456 94903792 94820480 94847152 94958752 95134768 
731.853 95349800 95576472 95791936 95982960 96151448 96310160 96476384 
735.228 96661616 96867312 97084664 97300464 97503808 97690608 97864496 
738.603 98034336 98208904 98393056 98588384 98794328 99011016 99240400 
741.978 99485440 99746328 100019392 100296224 100568048 100828712 101079000 
745.352 101325792 101578712 101843888 102118776 102390776 102642384 
748.245 102856768 103024248 103146712 103235000 103304640 103367480 
751.138 103429232 103489112 103543696 103590976 103634048 103679136 
754.031 103733368 103799928 103875344 103951528 104019304 104073320 
756.923 104115056 104152952 104198992 104264904 104358480 104482624 
759.816 104635816 104814648 105015512 105234904 105470000 105718080 
762.709 105977160 106248376 106537544 106858056 107230536 107685704 
765.601 108262328 109002288 109949432 111135416 112565208 114198968 
768.494 115940664 117644792 119121808 120193720 120739640 120737624 
771.387 120288072 119597160 118931696 118518136 118486536 118813280 
774.279 119330088 119755992 119779688 119172368 117828768 115807536 
777.172 113287760 110522872 107755600 105154320 102805040 100704192 98792504 
780.547 96984944 95209512 93423680 91617664 89810256 88036664 86339200 
783.922 84754856 83312656 82031800 80920632 79979688 79204608 78590152 
787.297 78132856 77834672 77702584 77748352 77985480 78425600 79078184 
790.671 79949856 81046200 82376128 83953368 85795344 87921720 90345656 
794.046 93067448 96066128 99298576 102696400 106166240 109606080 112905232 
797.421 115959704 118695080 121077680 123134648 124951728 126673248 
800.314 128471736 130498368 132853240 135529728 138396688 141176048 
803.206 143486272 144917456 145079488 143731120 140835376 136587360 
806.099 131365864 125652376 119938848 114581384 109768424 105499536 
808.992 101629576 97934896 94198104 90288256 86178512 81948040 77732624 
812.367 73691152 69954128 66597588 63650376 61098508 58906272 57028832 
815.742 55424640 54058304 52897040 51911952 51076912 50368556 49770988 
819.116 49274808 48876712 48577088 48376924 48275968 48272340 48363556 
822.491 48547964 48826024 49199808 49672940 50248612 50929540 51715136 
825.866 52600952 53574456 54613372 55685740 56747588 57753144 58663328 
829.241 59454956 60133132 60734964 61332252 62015888 62891968 64066448 
832.616 65620264 67599480 69989936 72706968 75574360 78328680 80663504 
835.990 82237080 82756128 82046128 80079528 77001224 73084712 68698584 
839.365 64209396 59923920 56074864 52783056 50080320 47933172 46272404 
842.740 45014892 44078820 43396824 42910468 42570672 42340492 42190976 
846.115 42103276 42067976 42080680 42138032 42235596 42365696 42519988 
849.490 42693412 42885780 43102712 43352848 43644416 43981240 44361628 
852.865 44780104 45231128 45712172 46225704 46778520 47379296 48037416 
856.239 48760144 49555784 50434680 51410376 52501592 53731164 55123852 
859.614 56708396 58517484 60586028 62953284 65651564 68693888 72054720 
862.989 75654256 79350960 82931200 86149496 88753328 90515888 91295656 
866.364 91049272 89848264 87858264 85323256 82528240 79736688 77187432 
869.739 75061408 73466400 72456096 72030672 72153072 72754720 73745176 
873.113 75020576 76453440 77907136 79243112 80321200 81030384 81299720 
876.488 81108496 80491024 79528168 78335952 77033696 75733808 74523344 
879.863 73448032 72516392 71702416 70960952 70238488 69490896 68696176 
883.238 67857168 67001180 66168904 65407320 64754748 64234212 63854484 
886.613 63611744 63497252 63503736 63630276 63881696 64266368 64790560 
889.987 65455204 66254036 67177008 68211488 69347200 70578848 71904864 
893.362 73326488 74844616 76458056 78161056 79942208 81778488 83632048 
896.737 85446920 87141016 88616408 89769464 90500136 90739272 90458592 
900.112 89677928 88460648 86904944 85133400 83265408 81416608 79687128 
903.487 78149352 76855376 75835872 75101864 74653056 74480824 74574528 
906.862 74923784 75521400 76363992 77450240 78779592 80351416 82163776 
910.236 84214072 86498488 89010456 91738424 94662192 97748368 100954616 
913.611 104231048 107528216 110812256 114069384 117313456 120581720 
916.504 123932144 127430128 131130352 135066736 139229904 143555888 
919.397 147903984 152060944 155762080 158696704 160585936 161239616 
922.289 160605632 158812864 156169152 153150816 150293744 148155936 
925.182 147241552 147889488 150258480 154271344 159634480 165825792 
928.075 172157168 177914096 182376000 184972240 185370784 183471008 
930.967 179403632 173451984 166005632 157478224 148268832 138774032 
933.860 129342448 120279984 111858256 104275192 97669864 92124544 87662144 
937.235 84269576 81909624 80534176 80085336 80487552 81642312 83399328 
940.610 85552168 87859888 90037632 91810632 92960272 93335968 92894152 
943.985 91691240 89875000 87643904 85210520 82782112 80515944 78517928 
947.359 76844784 75506416 74483736 73740000 73235248 72929320 72786104 
950.734 72774976 72866504 73033272 73252272 73504232 73777304 74067280 
954.109 74375944 74707800 75067128 75455368 75871184 76311488 76773168 
957.484 77254880 77756632 78278408 78819560 79376864 79946544 80525800 
960.859 81114400 81715816 82335600 82979688 83651368 84350240 85072496 
964.233 85812904 86567960 87336088 88118512 88917288 89733288 90565888 
967.608 91413216 92273968 93149352 94043296 94961960 95910600 96891664 
970.983 97904344 98945392 100011896 101103344 102222864 103375552 104566752 
974.358 105798560 107069824 108376872 109716848 111089752 112499776 
977.251 113953584 115458744 117020624 118642392 120326976 122079688 
980.143 123910368 125834984 127871304 130035248 132337496 134780576 
983.036 137358656 140058048 142859264 145732368 148631488 151494896 
985.929 154235920 156748800 158928032 160671392 161904704 162594000 
988.821 162748416 162420064 161693440 160685472 159525584 158343984 
991.714 157271104 156413312 155849120 155627488 155763920 156249472 
994.607 157058896 158163776 159538128 161161952 163021488 165103008 
997.500 167389024 169859408 172489744 175256512 178139360 181117440 
1000.392 184165200 187248416 190315328 193303184 196146560 198783648 
1003.285 201172624 203297056 205166672 206813936 208289024 209659440 
1006.178 210998400 212386960 213908800 215634176 217618016 219889920 
1009.070 222451952 225283168 228347328 231607024 235024208 238565008 
1011.963 242196928 245878960 249563008 253198560 256735536 260136544 
1014.856 263378256 266444032 269312544 271944672 274272640 276211104 
1017.748 277666272 278558592 278847168 278539872 277700992 276437696 
1020.641 274902304 273278080 271749472 270509088 269726560 269523808 
1023.534 269976320 271096800 272844320 275132512 277852608 280892416 
1026.427 284135584 287473952 290798912 293986624 296909888 299438496 
1029.320 301448640 302848480 303576256 303600448 302912960 301517248 
1032.213 299425760 296661024 293263296 289294304 284829312 279953376 
1035.106 274744960 269264800 263562256 257678304 251655616 245551744 
1037.999 239435984 233384784 227480272 221795024 216391584 211323600 
1040.892 206627344 202319776 198388256 194781824 191401824 188102032 
1043.785 184719280 181081600 177049520 172551024 167588544 162245328 
1046.678 156659760 151014752 145498160 140273232 135479264 131207792 
1049.571 127505008 124380768 121812440 119757384 118158808 116959936 
1052.464 116105392 115544552 115234976 115136104 115203792 115390232 
1055.357 115636088 115872296 116030680 116041632 115846640 115406440 
1058.250 114699992 113729784 112521328 111124840 109611112 108063960 
1061.144 106582352 105262136 104189680 103440336 103065624 103095536 
1064.037 103538056 104380264 105588256 107106032 108861008 110757984 
1066.930 112683472 114523760 116163928 117505928 118483800 119059904 
1069.823 119228784 119008304 118434040 117549408 116398472 115026488 
1072.716 113473944 111776984 109971160 108090600 106172000 104260824 
1075.609 102407216 100669520 99111336 97790616 96758168 96051488 95687928 
1078.984 95665464 95960560 96532496 97319784 98243968 99218168 100142392 
1082.359 100920000 101473224 101749344 101738752 101476864 101046008 
1085.252 100558448 100142432 99933304 100046552 100572264 101569792 
1088.146 103057768 105015176 107377440 110047560 112892080 115754024 
1091.039 118482224 120931808 122988304 124581520 125678168 126281544 
1093.932 126419304 126136888 125486760 124522944 123304288 121890480 
1096.825 120342936 118730576 117120544 115575032 114145440 112856632 
1099.718 111701000 110630024 109562448 108388232 106986816 105260328 
1102.611 103143648 100627448 97759160 94640808 91411056 88215656 85204112 
1105.986 82501192 80195680 78347096 76979576 76090632 75658360 75648304 
1109.361 76018072 76717136 77692752 78886864 80233224 81663824 83102280 
1112.737 84465296 85674528 86654192 87342400 87701480 87717088 87401200 
1116.112 86784832 85915704 84848224 83635416 82330152 80976680 79609672 
1119.487 78255992 76932584 75648024 74406064 73207840 72055072 70952336 
1122.862 69907336 68929000 68025712 67201024 66453576 65776608 65162404 
1126.238 64605660 64108952 63683756 63351392 63138096 63068136 63160128 
1129.613 63419760 63838056 64389788 65036572 65731316 66417976 67042896 
1132.988 67558792 67930856 68145312 68211256 68161168 68042376 67912368 
1136.363 67828040 67832296 67951888 68191024 68532616 68939328 69358936 
1139.739 69733904 70001184 70103584 69996440 69647152 69040584 68176944 
1143.114 67070036 65742880 64225108 62552712 60762976 58895232 56991052 
1146.489 55087964 53221456 51422500 49713620 48111404 46625808 45261428 
1149.864 44019996 42902092 41907496 41035332 40282948 39646300 39119092 
1153.240 38694508 38366500 38130940 37985616 37929748 37962832 38083660 
1156.615 38290500 38582020 38958324 39421836 39976876 40628264 41379360 
1159.990 42230704 43179636 44220252 45344064 46540972 47796888 49092724 
1163.365 50404648 51701176 52946332 54104356 55139012 56019256 56721424 
1166.740 57227204 57526540 57616840 57503920 57201312 56729840 56117280 
1170.116 55392528 54586472 53728992 52845884 51961508 51098900 50277700 
1173.491 49518204 48838928 48254792 47778244 47417248 47175880 47055336 
1176.866 47054820 47173220 47409228 47762968 48236016 48834032 49567004 
1180.241 50450312 51504640 52751068 54208552 55890660 57801632 59938144 
1183.617 62290276 64844332 67580592 70470304 73473232 76525744 79540976 
1186.992 82416784 85031864 87266568 89018872 90206232 90782400 90738696 
1190.367 90104208 88940336 87332728 85387864 83212072 80910016 78578560 
1193.742 76294232 74118368 72095208 70250288 68596168 67133960 65856076 
1197.118 64748056 63789704 62957152 62221560 61551228 60915020 60280236 
1200.493 59617684 58903272 58117912 57251512 56303880 55286052 54218912 
1203.868 53131428 52058356 51031636 50079168 49220588 48464976 47813532 
1207.243 47261728 46802764 46429820 46136560 45917412 45766104 45675508 
1210.619 45639180 45652028 45713132 45825200 45995128 46230756 46538904 
1213.994 46924120 47387796 47928700 48543740 49228492 49976852 50779236 
1217.369 51623848 52495760 53379656 54262572 55135176 55992648 56834556 
1220.744 57662472 58480180 59292520 60107520 60936788 61795492 62702208 
1224.120 63674740 64726368 65863632 67083768 68375320 69718224 71088008 
1227.495 72455592 73788016 75052744 76217304 77253296 78141696 78874184 
1230.870 79456512 79906560 80255904 80547856 80832496 81172200 81636152 
1234.245 82294464 83223144 84492304 86160608 88276680 90872008 93962408 
1237.621 97549640 101622800 106158040 111113376 116431656 122032904 
1240.514 127814296 133665648 139466016 145093360 150438256 155392960 
1243.407 159856960 163742880 166970368 169474624 171211856 172155056 
1246.300 172295792 171640224 170209904 168041312 165186512 161714704 
1249.193 157700416 153216432 148326000 143073120 137488224 131596832 
1252.086 125430424 119039424 112501320 105912080 99389744 93061000 87039256 
1255.461 81428240 76304544 71709168 67653264 64116752 61057092 58413880 
1258.836 56118524 54102216 52293444 50629612 49058376 47538004 46043680 
1262.212 44564464 43101832 41664424 40264988 38916460 37629016 36411636 
1265.587 35271680 34214864 33245810 32365754 31571958 30857224 30211930 
1268.962 29627256 29097288 28620946 28201514 27844308 27554044 27332496 
1272.337 27179556 27093954 27075862 27127954 27254344 27458662 27740174 
1275.713 28092486 28500880 28943372 29393834 29820912 30191078 30473872 
1279.088 30641024 30672990 30563412 30319962 29964134 29525494 29037982 
1282.463 28530496 28022220 27523400 27036614 26561748 26101864 25664996 
1285.838 25263896 24913834 24627522 24413838 24277026 24218584 24239430 
1289.214 24341712 24528222 24800578 25157396 25592980 26097396 26657640 
1292.589 27259564 27885466 28514854 29123684 29682812 30164264 30545708 
1295.964 30815746 30978582 31054134 31074742 31076592 31096238 31165154 
1299.339 31305936 31534654 31860248 32282624 32790982 33360216 33952592 
1302.715 34516108 34993832 35334972 35497928 35460500 35220328 34793652 
1306.090 34209740 33505756 32725450 31911812 31105424 30343840 29654286 
1309.465 29054172 28549532 28136886 27807922 27553902 27369796 27254660 
1312.840 27209892 27235540 27327414 27477016 27674096 27909706 28180336 
1316.216 28487966 28838088 29236126 29683946 30178258 30712390 31278696 
1319.591 31871054 32485608 33118844 33764424 34411368 35042460 35635660 
1322.966 36169532 36624780 36988636 37257512 37437880 37547544 37613368 
1326.341 37673680 37772236 37950576 38244072 38671256 39228964 39892420 
1329.717 40622228 41375204 42111708 42807116 43452664 44053332 44620752 
1333.092 45168988 45710260 46253236 46805088 47372092 47959408 48570048 
1336.467 49202924 49852440 50509708 51165620 51813456 52450108 53074624 
1339.842 53684784 54274660 54834024 55350708 55814356 56220448 56571476 
1343.218 56875268 57141748 57378476 57589336 57773848 57929472 58054776 
1346.593 58149240 58212504 58238384 58212544 58108328 57889984 57522416 
1349.968 56976848 56242516 55331364 54279692 53143072 51986676 50884236 
1353.343 49904028 49104264 48531552 48211064 48143940 48304228 48643536 
1356.719 49095432 49584608 50045036 50421172 50675748 50791972 50770628 
1360.094 50630916 50407776 50157184 49952132 49870916 49990940 50363380 
1363.469 50997836 51858592 52871968 53944544 54972880 55864660 56542756 
1366.844 56944924 57034200 56797888 56251148 55431904 54397300 53213704 
1370.219 51941488 50634864 49337352 48081536 46901608 45838200 44939192 
1373.595 44260648 43850660 43732760 43895968 44296420 44873416 45564216 
1376.970 46326256 47143044 48023612 48995236 50095716 51368120 52854756 
1380.345 54597928 56635572 58985664 61626600 64471572 67369232 70092408 
1383.720 72371192 73949256 74593768 74154056 72592992 70019056 66690416 
1387.096 62964968 59251160 55882072 53056920 50840096 49183592 47980464 
1390.471 47102528 46435240 45883568 45374628 44863496 44328268 43771784 
1393.846 43216892 42698640 42248124 41877792 41575704 41311976 41054524 
1397.221 40782124 40496908 40224380 40009100 39895396 39910000 40053064 
1400.597 40299632 40612076 40952784 41298128 41641376 41993620 42378408 
1403.972 42825548 43361892 44001444 44742676 45568080 46452276 47367472 
1407.347 48291968 49214912 50135056 51059356 51998328 52963140 53962064 
1410.722 54999204 56073620 57177160 58292604 59388508 60422480 61343052 
1414.098 62097112 62646784 62976500 63101352 63063344 62931688 62798880 
1417.473 62765992 62944284 63427804 64259908 65413140 66787004 68245568 
1420.848 69650576 70901808 71952488 72804240 73508584 74151776 74840832 
1424.223 75664624 76667840 77837016 79111856 80410464 81656184 82803880 
1427.599 83840744 84785024 85673152 86550336 87460688 88439688 89520072 
1430.974 90729720 92086288 93593488 95234888 96979768 98789256 100639312 
1434.349 102538272 104537120 106728440 109220984 112101512 115374800 
1437.242 118955360 122701328 126468912 130143120 133633416 136865088 
1440.135 139742080 142141680 143936416 144991808 145197648 144487472 
1443.028 142839616 140286880 136912448 132857160 128301352 123440792 
1445.921 118492928 113662232 109134712 105079696 101614216 98786176 96559392 
1449.297 94832472 93471224 92351128 91399440 90601200 89991280 89619400 
1452.672 89516776 89665632 89999272 90409016 90775896 91007264 91063728 
1456.047 90997784 90953088 91135952 91714112 92750552 94217576 96038144 
1459.422 98133760 100438040 102897032 105453064 108031152 110550272 
1462.315 112908888 114989448 116683080 117899184 118604080 118838728 
1465.208 118721864 118409240 118035000 117695016 117430456 117242656 
1468.102 117109696 116995808 116854208 116617328 116196520 115485016 
1470.995 114371656 112785448 110738872 108355784 105833272 103374120 
1473.888 101118568 99122288 97390432 95919808 94723664 93837048 93294568 
1477.263 93100416 93215792 93561504 94046008 94583040 95119912 95646920 
1480.638 96192056 96806808 97543624 98444168 99530224 100814504 102315408 
1484.013 104066760 106118608 108524000 111314688 114471400 117894144 
1486.906 121407304 124743688 127571224 129551816 130358992 129758192 
1489.800 127674360 124220408 119684008 114433704 108836864 103161416 
1492.693 97550552 92066784 86715000 81497984 76470976 71745680 67492376 
1496.068 63904964 61131196 59231108 58164200 57828696 58095680 58844120 
1499.443 59977172 61409188 63058480 64847296 66689372 68496648 70185904 
1502.818 71659576 72809216 73508704 73597136 72899344 71264880 68657792 
1506.194 65244488 61406440 57603184 54151568 51134236 48454936 45969488 
1509.569 43563092 41188204 38857140 36626472 34564792 32716126 31093036 
1512.944 29669754 28400692 27237304 26146660 25118636 24168138 23328050 
1516.319 22636276 22119926 21779146 21582148 21470276 21378692 21251740 
1519.695 21062804 20832968 20640010 20604188 20829248 21356174 22138126 
1523.070 23075660 24058998 25009606 25898182 26738786 27580276 28481526 
1526.445 29492974 30634232 31893230 33236366 34623852 36020004 37393604 
1529.820 38722944 39994492 41205908 42376252 43552100 44813680 46253276 
1533.196 47949344 49916964 52083044 54305636 56421432 58300788 59843064 
1536.571 60984944 61694692 61968920 61849548 61428996 60868132 60345796 
1539.946 59999884 59877900 59930576 60058096 60156228 60151552 59996648 
1543.321 59662192 59138004 58433708 57584568 56642592 55662164 54676500 
1546.697 53684448 52655488 51547768 50332836 49018384 47657904 46332748 
1550.072 45126192 44081016 43186440 42389624 41628212 40859944 40078896 
1553.447 39313184 38602084 37963300 37368360 36739648 35967372 34943696 
1556.822 33590484 31906496 30007980 28176872 26791610 26125968 26183046 
1560.198 26714082 27413980 28040952 28465004 28639136 28557778 28249002 
1563.573 27764474 27178814 26570590 26002192 25500592 25047374 24591648 
1566.948 24074652 23461208 22760386 22039360 21403406 20968004 20802618 
1570.323 20896516 21164968 21487962 21759742 21899770 21864924 21641106 
1573.698 21236500 20683862 20045690 19429938 18969926 18786790 18938876 
1577.074 19389712 20031568 20732654 21389902 21940022 22361680 22668670 
1580.449 22894522 23078700 23251176 23427216 23606896 23782696 23947400 
1583.824 24099414 24241322 24374198 24492042 24581410 24624646 24609218 
1587.199 24534814 24416888 24283052 24165440 24093564 24086070 24151954 
1590.575 24292898 24506976 24789176 25127692 25501716 25876412 26206768 
1593.950 26449470 26568760 26548928 26397002 26140150 25815188 25457586 
1597.325 25097290 24754590 24444438 24182186 23984232 23866984 23843528 
1600.700 23918584 24088802 24345568 24680616 25087638 25561664 26093842 
1604.076 26665038 27242630 27785772 28247870 28588068 28779598 28810578 
1607.451 28685148 28417140 28025792 27529968 26946812 26296524 25602082 
1610.826 24889728 24184532 23499296 22830226 22154550 21438528 20649218 
1614.201 19769640 18812358 17833014 16931658 16224466 15810441 15722310 
1617.577 15915398 16287105 16720800 17121458 17416004 17561886 17543118 
1620.952 17371550 17091612 16777964 16531037 16440798 16557369 16870754 
1624.327 17319064 17816996 18288264 18694178 19034692 19343114 19665624 
1627.702 20044718 20500142 21022114 21576958 22119438 22608036 23006026 
1631.078 23283756 23416340 23377840 23146424 22711226 22088548 21334944 
1634.453 20557702 19913022 19550016 19553240 19898106 20472250 21131538 
1637.828 21752496 22262410 22625138 22833228 22895886 22830994 22659664 
1641.203 22400438 22066202 21658832 21168028 20573578 19851592 18984912 
1644.579 17979036 16876678 15764741 14773761 14034752 13632484 13564724 
1647.954 13745670 14037935 14294988 14399784 14258281 13800529 12981777 
1651.329 11806447 10384482 8966753 7947037 7662281 8166880 9221802 10488814 
1655.187 11713100 12748668 13546982 14112717 14471991 14661026 14713500 
1658.562 14655269 14499568 14250714 13911603 13492462 13021654 12550265 
1661.937 12141600 11859871 11744043 11790990 11953692 12157002 12325329 
1665.312 12390714 12307263 12052337 11624911 11048912 10372368 9674108 
1668.688 9047502 8581283 8335052 8315294 8474874 8727133 8980352 9153339 
1672.545 9190836 9074027 8821734 8494505 8180217 7979535 7961143 8131059 
1676.402 8432001 8772944 9071083 9265804 9330595 9266819 9091451 8823594 
1680.260 8470887 8022364 7450715 6726712 5845842 4855633 3887001 3150418 
1684.117 2846809 3060982 3697817 4555117 5423874 6163755 6718434 7083831 
1687.975 7292893 7393181 7437401 7469120 7514056 7578687 7649500 7698637 
1691.832 7687203 7574743 7324702 6911362 6332229 5621599 4866490 4185416 
1695.689 3691100 3426453 3339798 3310482 3208128 2948245 2513385 1980357 
1699.547 1509124 1309241 1516738 2102632 2892337 3677299 4309217 4710675 
1703.404 4875671 4845280 4697679 4526288 4419062 4434895 4584214 4837004 
1707.262 5141170 5448401 5721703 5941195 6101686 6205262 6254606 6250001 
1711.119 6186239 6055115 5849570 5567326 5214101 4802093 4349912 3876002 
1714.977 3396931 2932366 2509252 2171258 1980290 1998232 2262243 2759936 
1718.834 3427288 4169592 4889175 5516114 6007709 6353377 6569454 6691211 
1722.691 6763427 6825792 6906817 7015030 7142402 7270183 7378217 7450850 
1726.549 7477345 7453075 7377408 7253438 7087199 6887493 6662173 6413094 
1730.406 6131493 5796814 5382743 4868701 4261232 3610540 3027214 2655712 
1734.264 2602608 2876694 3373857 3942000 4435831 4763299 4890180 4827589 
1738.121 4627179 4366412 4136575 4007339 4008275 4124332 4312263 4523677 
1741.979 4721594 4888940 5021523 5120886 5186369 5212893 5191700 5116259 
1745.836 4986496 4811809 4609095 4400551 4207330 4045229 3925683 3856345 
1749.693 3845547 3902981 4036601 4246610 4518822 4824943 5127021 5385092 
1753.551 5569105 5660772 5657986 5576220 5447427 5315084 5218426 5182680 
1757.408 5205617 5260984 5306363 5300594 5218561 5057591 4841628 4615157 
1761.266 4435865 4350983 4381941 4516378 4714326 4924864 5098926 5204041 
1765.123 5224597 5161254 5027221 4844208 4635618 4417823 4194784 3955642 
1768.980 3681543 3353254 2965892 2537713 2119746 1788076 1622286 1678064 
1772.838 1955893 2401589 2926595 3447827 3908832 4283049 4570117 4782595 
1776.695 4934549 5034126 5082231 5077839 5024305 4936225 4840254 4766147 
1780.553 4738979 4767219 4839651 4930360 5010897 5063122 5083236 5082700 
1784.410 5081326 5097987 5141304 5205751 5275104 5328333 5346313 5312702 
1788.268 5216381 5048842 4805845 4489695 4116237 3720976 3355257 3083039 
1792.125 2959520 3007762 3210164 3513593 3854573 4172703 4428568 4604608 
1795.982 4698550 4718077 4675003 4582775 4456285 4312731 4175447 4069143 
1799.840 4017137 4033992 4119448 4257585 4422810 4590075 4740554 4866289 
1803.697 4968297 5051725 5120584 5174834 5210580 5222685 5207930 5166686 
1807.555 5103586 5025645 4941587 4859956 4790100 4742563 4728662 4757604 
1811.412 4833285 4950267 5093428 5240594 5370700 5468331 5528766 5557963 
1815.270 5569273 5577428 5592800 5618477 5650601 5683028 5710826 5733756 
1819.127 5755681 5781233 5810346 5836909 5847790 5827976 5765619 5657583 
1822.984 5511719 5347721 5193377 5074286 5006976 4990988 5008283 5028797 
1826.842 5019813 4958980 4840455 4681501 4519726 4408986 4400618 4523677 
1830.699 4774019 5113677 5487390 5837077 6122117 6324732 6448303 6511599 
1834.557 6540021 6557445 6578537 6609217 6649927 6700464 6763729 6844742 
1838.414 6946409 7064466 7183599 7281369 7330970 7310617 7211021 7040623 
1842.271 6827677 6616821 6466094 6428227 6534942 6786850 7153484 7585229 
1846.129 8026516 8433183 8774905 9037995 9223393 9342749 9412630 9447440 
1849.986 9456582 9441988 9400610 9328733 9226304 9098793 8956301 8809630 
1853.844 8665779 8525896 8385888 8240422 8086700 7928039 7772842 7631391 
1857.701 7510584 7410774 7325477 7245756 7163826 7076826 6987688 6902036 
1861.559 6823974 6752759 6682093 6601951 6503728 6381184 6232723 6058811 
1865.416 5860619 5638751 5396096 5142343 4898390 4695870 4574571 4565563 
1869.273 4680631 4903416 5194718 5505577 5790937 6023163 6191919 6302039 
1873.131 6365952 6397021 6405495 6396348 6372576 6337541 6296828 6257194 
1876.988 6223513 6196322 6171115 6140869 6099939 6047521 5988762 5932058 
1880.846 5884767 5849738 5823073 5797015 5764209 5721200 5670473 5617403 
1884.703 5566118 5515947 5460043 5387776 5290901 5168597 5031143 4897686 
1888.561 4790904 4730638 4726284 4773785 4858481 4961025 5063592 5152033 
1892.418 5219030 5261789 5282248 5285736 5280906 5278826 5289828 5320719 
1896.275 5371740 5436154 5503296 5561352 5603574 5629420 5644424 5656341 
1900.133 5671413 5691387 5712874 5729862 5738524 5739128 5735872 5734495 
1903.990 5738289 5745608 5749906 5742653 5717574 5674569 5619921 5564373 
1907.848 5518531 5489638 5479337 5485411 5503396 5529806 5563332 5603440 
1911.705 5647982 5692965 5730802 5753398 5753364 5726001 5669265 5583738 
1915.563 5472391 5341617 5202465 5072676 4972922 4923624 4935520 5004395 
1919.420 5108883 5217354 5299823 5335478 5321054 5271381 5213933 5177617 
1923.277 5180333 5224597 5296636 5376504 5446320 5498195 5534236 5562292 
1927.135 5588739 5614382 5633515 5639255 5627674 5603272 5576288 5559171 
1930.992 5559641 5576757 5601326 5621196 5628178 5621968 5610119 5602534 
1934.850 5606025 5619652 5635428 5642678 5634791 5611932 5580986 5549573 
1938.707 5520745 5488934 5443267 5373585 5278089 5167356 5064028 4994071 
1942.564 4975034 5009825 5084611 5178858 5273192 5359563 5441053 5527390 
1946.422 5626197 5736341 5846111 5939414 6003241 6033612 6038450 6032839 
1950.279 6032033 6044095 6067211 6092177 6110154 6115800 6111969 6105248 
1954.137 6102627 6105517 6109482 6106424 6089656 6059147 6020979 5984898 
1957.994 5958326 5943278 5934511 5923661 5904415 5877109 5847387 5823779 
1961.852 5810850 5807358 5805914 5798358 5781569 5758904 5740639 5737517 
1965.709 5756151 5794094 5842014 5888192 5926650 5957654 5987317 6020979 
1969.566 6059752 6095033 6116169 6112943 6083843 6037879 5991852 5961719 
1973.424 5956781 5975290 6008515 6047623 6090732 6143792 6217833 6318579 
1977.281 6440670 6564274 6663149 6716280 6716549 6673411 6607670 6541972 
1981.139 6491251 6456980 6430379 6399442 6356201 6301971 6244689 6193768 
1984.996 6155420 6128401 6105584 6079374 6047690 6014529 5988728 5976634 
1988.854 5979355 5988963 5994170 5985772 5963264 5935821 5919563 5928867 
1992.711 5969546 6035057 6111498 6184222 6243580 6288995 6325942 6360740 
1996.568 6394667 6422409 6434784 6425536 6395912 6355832 6319554 6300190 
2000.426 6301602 6317571 6334414 6338718 6325908 6301198 6276725 6265295 
2004.283 6272926 6294912 6319756 6335188 6335625 6325572 6317268 6321437 
2008.141 6341441 6369886 6392919 6399005 6384613 6358488 6337003 6336095 
2011.998 6363464 6413094 6468952 6514727 6538776 6541198 6530401 6520243 
2015.855 6518864 6528147 6541938 6553476 6559598 6563567 6573995 6598149 
2019.713 6637781 6687981 6738860 6782509 6816772 6847334 6883386 6931292 
2023.570 6989540 7048335 7093396 7113671 7106666 7079857 7047123 7022337 
2027.428 7012404 7014862 7022371 7027658 7028837 7030925 7042879 7071909 
2031.285 7118555 7176963 7237299 7292825 7343101 7393316 7451019 7519349 
2035.143 7594535 7666665 7723966 7760023 7776620 7782455 7788325 7801077 
2039.000 7819496 7836567 7844664 7839975 7828031 7818990 7824422 7848982 
2042.857 7887108 7924934 7947644 7946193 7923348 7890854 7865751 7861702 
2046.715 7882756 7923281 7971605 8017268 8055713 8088152 8119344 8152767 
2050.572 8186395 8215097 8232959 8238260 8235762 8235120 8245926 8272875 
2054.430 8312626 8354980 8388557 8405820 8407610 8402036 8400684 8411731 
2058.287 8436190 8466732 8493356 8506770 8503729 8487680 8466495 8446562 
2062.145 8429602 8413150 8391935 8362817 8327892 8294219 8269464 8258725 
2066.002 8260684 8267201 8268147 8255517 8228130 8190987 8152902 8121336 
2069.859 8099258 8083560 8068877 8050211 8027258 8003970 7987264 7981324 
2073.717 7986319 7997119 8006434 8008223 8001371 7989255 7977781 7972414 
2077.574 7974574 7982168 7991314 7999448 8007311 8018415 8036911 8064151 
2081.432 8097199 8128898 8151518 8160397 8156312 8145238 8135313 8133152 
2085.289 8140985 8156751 8174577 8189569 8199496 8205439 8208984 8211179 
2089.146 8209356 8199057 8175557 8137507 8088388 8036102 7990706 7959962 
2093.004 7946835 7949298 7962324 7980143 7998874 8017875 8037451 8057400 
2096.861 8075493 8088489 8093620 8090785 8083797 8078598 8080185 8090818 
2100.719 8108271 8127581 8144124 8156751 8168737 8186700 8216784 8261528 
2104.576 8317827 8379267 8437845 8488220 8530254 8567967 8606258 8648236 
2108.434 8693430 8738256 8778793 8813585 8845067 8878174 8917304 8963675 
2112.291 9013197 9058632 9092839 9112733 9120550 9123359 9129653 9145624 
2116.148 9172189 9206404 9242990 9278734 9313533 9351077 9395056 9447236 
2120.006 9504570 9561300 9610417 9648326 9676886 9702195 9732386 9772846 
2123.863 9824360 9882997 9942083 9995650 10041764 10082592 10122339 10164193 
2127.721 10207917 10249744 10284519 10308201 10320247 10324386 10326626 
2131.096 10332496 10345493 10366531 10394460 10428873 10470926 10521639 
2134.471 10581492 10647056 10711476 10767108 10807393 10832022 10845542 
2137.846 10857365 10874589 10900036 10929291 10953756 10964936 10958242 
2141.222 10936664 10909244 10886787 10875949 10876458 10882132 10883491 
2144.597 10872245 10845135 10803114 10750126 10687839 10616530 10533656 
2147.972 10438648 10334769 10231663 10140823 10071537 10025759 9996735 
2151.347 9970933 9933845 9876150 9798501 9707650 9614144 9525025 9440870 
2155.205 9357746 9271457 9184879 9109891 9066380 9073282 9138992 9255412 
2159.062 9399153 9541486 9656930 9734521 9775727 9791214 9789994 9777523 
2162.920 9752276 9710429 9650358 9575900 9495222 9417980 9350196 9291191 
2166.777 9235172 9174083 9103259 9023109 8939457 8859202 8787584 8724632 
2170.635 8666117 8605988 8541541 8475043 8413657 8365891 8338092 8331573 
2174.492 8342516 8364304 8388557 8410616 8425109 8427913 8414906 8380010 
2178.349 8320664 8238632 8142807 8047274 7966880 7912853 7887378 7883262 
2182.207 7886265 7882149 7862309 7824927 7775405 7721133 7667845 7617397 
2186.064 7568539 7519113 7470839 7429245 7402517 7396281 7412324 7445188 
2189.922 7486110 7525249 7556199 7578384 7595243 7611462 7630346 7651186 
2193.779 7671353 7688451 7702347 7715939 7733748 7758775 7790922 7826108 
2197.636 7858294 7882553 7898344 7908433 7917814 7930029 7944540 7956587 
2201.494 7959287 7947847 7922167 7887817 7853132 7826412 7811838 7808026 
2205.351 7809814 7810826 7807149 7798681 7788392 7779622 7774258 7771290 
2209.209 7768524 7763903 7758404 7755301 7759012 7772909 7796590 7826445 
2213.066 7857012 7884308 7907151 7927735 7949298 7973731 7999481 8021825 
2216.924 8034583 8034178 8021385 8001743 7982607 7970356 7967116 7970053 
2220.781 7972955 7969512 7957532 7937959 7916228 7897467 7885151 7878977 
2224.638 7875974 7872566 7866864 7859171 7852120 7848442 7849623 7855460 
2228.496 7863490 7872566 7882014 7892440 7905160 7919636 7933404 7942785 
2232.353 7944068 7936542 7923483 7911571 7908332 7919805 7947779 7989930 
2236.211 8040152 8092371 8142031 8187340 8228029 8265040 8298441 8327487 
2240.068 8350691 8367850 8380146 8389604 8398320 8407238 8415413 8420515 
2243.926 8420683 8416933 8412947 8414501 8427440 8455345 8497410 8548941 
2247.783 8602878 8653002 8694748 8726559 8748939 8763579 8771490 8773890 
2251.640 8772166 8769056 8768380 8774769 8791067 8817508 8850748 8885039 
2255.498 8914023 8933268 8941690 8940945 8934113 8923662 8910742 8894914 
2259.355 8875705 8853791 8832251 8815040 8806451 8808210 8819097 8834888 
2263.213 8850917 8863565 8871918 8878174 8885141 8895794 8910505 8927281 
2267.070 8942602 8953629 8958533 8957959 8953596 8947778 8941723 8936075 
2270.927 8931475 8928092 8927416 8930596 8938848 8951127 8965197 8977341 
2274.785 8984816 8986744 8985086 8983768 8987353 8999193 9019253 9044524 
2278.642 9070406 9091519 9104309 9107523 9102583 9092906 9082552 9075616 
2282.500 9075921 9085293 9104918 9133476 9168873 9207283 9244886 9278836 
2286.357 9307609 9332119 9354936 9379177 9407585 9440870 9479035 9520555 
2290.215 9564552 9610959 9660691 9715240 9775626 9841543 9911573 9983546 
2294.072 10056074 10128546 10202251 10278819 10359914 10446284 10536678 
2297.447 10629025 10720713 10809873 10895552 10977611 11057137 11135080 
2300.823 11212662 11291075 11372359 11458556 11551815 11653534 11763753 
2304.198 11881119 12002842 12126574 12250342 12374043 12498973 12627486 
2307.573 12761907 12903674 13052793 13208557 13369467 13534061 13700631 
2310.948 13867369 14031604 14190423 14340978 14481103 14610924 14732626 
2314.323 14850968 14971776 15100578 15242183 15399111 15571723 15758317 
2317.699 15955647 16158950 16362758 16561603 16750241 16924322 17081170 
2321.074 17218734 17335616 17430042 17499306 17540910 17553468 17538082 
2324.449 17499960 17448494 17396382 17356204 17339272 17352202 17396172 
2327.824 17466258 17553054 17645284 17731390 17801390 17848930 17870542 
2331.200 17866780 17841196 17800978 17755034 17712960 17683520 17673202 
2334.575 17684314 17715720 17763456 17823036 17889980 17962286 18039234 
2337.950 18121306 18208510 18299670 18392438 18483670 18570842 18652392 
2341.325 18727768 18796442 18855542 18898662 18913336 18883468 18791494 
2344.701 18622200 18369486 18041098 17660364 17264172 16895934 16602429 
2348.076 16420392 16375523 16478997 16726412 17099332 17566854 18094432 
2351.451 18644542 19184580 19692560 20155804 20571078 20940046 21267016 
2354.826 21556308 21811824 22038000 22240194 22422454 22588246 22738110 
2358.202 22870562 22983004 23074542 23146318 23202624 23247924 23284980 
2361.577 23312248 23325288 23317352 23283196 23222232 23138736 23040860 
2364.952 22937242 22834138 22733606 22633762 22529718 22416384 22290380 
2368.327 22149702 21993034 21819944 21628986 21419488 21192000 20949366 
2371.703 20695990 20436928 20176144 19914686 19650786 19380668 19100298 
2375.078 18807896 18503760 18190992 17873890 17556952 17243004 16934794 
2378.453 16634274 16343903 16066965 15807487 15568425 15351635 15156775 
2381.828 14982579 14827104 14689370 14569222 14467674 14385193 14320876 
2385.204 14271875 14234348 14203877 14177105 14153006 14131749 14114873 
2388.579 14103374 14096905 14093961 14092592 14091017 14088348 14085267 
2391.954 14082221 14079894 14077874 14075650 14072398 14068496 14065143 
2395.329 14064321 14068051 14076984 14090538 14107035 14124766 14142839 
2398.705 14162180 14184569 14212162 14246126 14286770 14332862 14383275 
2402.080 14437461 14496280 14561410 14634707 14717167 14808214 14906344 
2405.455 15009915 15117525 15229074 15345045 15465923 15591642 15721383 
2408.830 15853740 15987994 16124491 16264711 16410448 16562704 16720317 
2412.206 16879778 17036232 17184364 17320754 17443598 17553434 17651530 
2415.581 17738984 17816168 17882764 17938080 17981902 18015194 18039546 
2418.956 18056434 18066624 18070458 18067660 18058852 18046176 18032602 
2422.331 18022102 18017888 18021204 18031496 18047212 18066968 18090562 
2425.707 18120614 18160380 18213934 18283668 18370348 18472434 18587822 
2429.082 18714138 18850248 18995816 19150852 19314914 19487046 19665934 
2432.457 19850794 20041596 20239736 20446894 20664368 20892066 21128648 
2435.832 21372044 21620628 21873568 22132060 22397578 22671392 22953276 
2439.208 23241912 23534588 23829528 24125964 24424528 24727090 25035650 
2442.583 25350860 25672028 25997688 26326554 26658132 26993208 27332954 
2445.958 27678404 28028652 28381838 28734708 29084356 29429006 29768392 
2449.333 30103426 30435060 30763390 31088052 31407188 31719182 32023120 
2452.708 32318994 32606780 32886506 33156856 33415284 33659044 33885168 
2456.084 34091952 34278896 34446412 34594612 34723048 34829984 34912960 
2459.459 34969408 34997208 34994980 34962404 34899420 34806288 34684036 
2462.834 34534584 34361336 34169444 33965816 33757372 33550854 33351738 
2466.209 33163440 32988842 32830574 32691476 32575530 32487142 32429804 
2469.585 32405776 32415736 32458830 32533248 32637142 32768718 32925964 
2472.960 33105542 33304084 33516600 33737820 33963736 34191240 34418648 
2476.335 34644704 34867572 35084632 35291448 35482864 35654188 35801972 
2479.710 35924720 36022992 36097948 36151236 36183900 36196364 36188368 
2483.086 36159880 36111308 36043616 35958484 35858252 35745812 35624620 
2486.461 35498144 35370124 35243400 35119548 34998284 34877628 34753772 
2489.836 34623352 34483104 34331536 34168404 33994336 33809948 33615468 
2493.211 33410240 33192982 32962460 32718162 32459830 32187660 31901646 
2496.587 31601924 31287986 30959866 30618872 30267206 29908472 29546774 
2499.962 29185448 28826936 28472186 28120802 27772244 27426720 27084750 
2503.337 26747630 26417040 26094404 25780766 25477086 25184184 24903238 
2506.712 24635658 24382260 24143512 23917990 23704410 23500554 23305466 
2510.088 23118992 22942096 22776274 22622034 22479188 22346610 22222408 
2513.463 22105318 21995578 21894404 21803498 21724488 21657682 21602412 
2516.838 21556832 21519646 21490052 21468570 21456422 21454786 21463766 
2520.213 21482740 21509548 21542416 21579744 21620766 21665554 21714388 
2523.589 21767092 21823254 21881722 21941522 22001398 22060276 22116824 
2526.964 22168844 22213968 22249400 22272732 22283126 22280964 22267780 
2530.339 22245598 22216234 22180386 22137742 22087676 22030156 21965848 
2533.714 21896984 21826284 21756082 21688054 21622926 21560662 21500670 
2537.090 21443158 21388300 21337068 21289878 21247286 21208840 21174118 
2540.465 21142982 21115362 21091744 21071918 21056022 21042668 21030286 
2543.840 21017452 21002674 20985286 20965604 20944290 20921688 20898498 
2547.215 20875032 20852052 20830636 20811552 20795322 20781764 20768938 
2550.591 20754480 20736060 20712532 20684558 20655020 20627292 20604778 
2553.966 20589108 20580110 20575628 20573302 20571008 20567846 20564476 
2557.341 20561524 20559058 20556416 20550928 20540054 20521574 20494548 
2560.716 20459154 20416888 20368966 20316462 20259698 20199124 20135188 
2564.092 20069600 20004400 19941988 19884508 19833104 19787744 19748454 
2567.467 19714958 19687430 19666732 19653556 19648114 19649986 19657754 
2570.842 19670060 19685558 19703760 19724320 19747102 19771930 19797904 
2574.217 19823914 19849234 19874274 19900048 19927868 19959542 19995136 
2577.593 20034170 20074666 20114816 20153480 20190618 20227274 20265322 
2580.968 20306534 20352158 20402580 20457940 20518064 20582578 20651442 
2584.343 20723896 20799248 20876038 20953120 21030008 21107188 21185842 
2587.718 21267606 21353458 21443332 21535592 21628568 21719786 21808270 
2591.094 21894128 21978466 22062296 22146564 22230776 22313402 22392974 
2594.469 22467952 22537708 22602312 22662666 22719604 22773864 22826138 
2597.844 22877688 22929940 22984890 23044318 23109730 23181268 23258026 
2601.219 23338574 23421516 23506326 23593638 23684640 23780666 23882456 
2604.594 23989696 24101306 24216062 24333478 24453588 24577730 24707132 
2607.970 24842572 24983810 25129624 25278436 25428388 25578360 25727886 
2611.345 25876834 26024672 26170518 26313000 26450070 26580136 26701750 
2614.720 26814554 26918890 27015634 27105840 27190878 27271842 27349856 
2618.095 27425836 27500492 27573780 27645598 27715168 27781852 27845190 
2621.471 27904936 27961472 28015400 28067038 28116842 28164816 28210990 
2624.846 28255684 28299854 28344556 28390998 28440346 28492636 28547762 
2628.221 28604666 28662392 28720266 28777934 28835718 28894038 28953466 
2631.596 29014072 29076104 29139168 29202990 29266678 29329452 29390218 
2634.972 29447940 29501558 29551172 29597282 29641304 29685400 29731098 
2638.347 29779854 29831914 29886786 29943650 30001306 30059322 30117704 
2641.722 30176766 30237292 30299426 30363774 30430546 30500208 30572976 
2645.097 30649522 30729994 30814538 30902440 30993172 31085918 31180284 
2648.473 31276520 31374812 31475830 31579726 31686104 31794254 31903218 
2651.848 32012634 32122258 32232732 32344978 32459900 32578066 32700122 
2655.223 32825608 32954774 33087090 33222630 33360932 33501640 33643968 
2658.598 33787168 33931024 34075000 34219452 34364924 34511660 34660028 
2661.974 34809556 34960000 35110640 35261080 35411536 35562044 35713108 
2665.349 35864440 36015572 36165464 36313204 36458192 36600480 36740732 
2668.724 36880264 37020460 37162464 37306900 37454060 37603980 37756368 
2672.099 37911160 38067964 38226780 38387276 38548960 38711424 38874604 
2675.475 39038496 39203000 39368396 39534872 39701916 39869612 40037728 
2678.850 40206028 40375112 40545684 40718872 40895952 41078488 41267300 
2682.225 41463704 41668476 41882028 42104480 42335852 42575788 42824084 
2685.600 43080464 43345160 43618188 43899632 44189000 44485352 44787268 
2688.976 45093364 45402624 45714712 46030528 46351328 46678448 47013024 
2692.351 47354980 47703868 48058400 48417336 48780348 49147600 49519984 
2695.726 49898568 50284620 50678460 51079896 51488112 51901868 52320168 
2699.101 52741452 53164604 53588584 54012488 54435836 54858308 55279960 
2702.477 55701036 56121616 56541548 56959996 57375716 57786904 58191668 
2705.852 58587556 58972420 59344292 59700780 60040440 60362168 60665572 
2709.227 60951008 61219236 61471520 61709092 61932768 62143140 62340724 
2712.602 62525736 62698000 62857540 63004040 63136756 63254720 63355960 
2715.978 63438812 63501628 63542700 63561112 63556396 63528968 63480420 
2719.353 63413008 63330500 63237392 63139096 63040972 62948040 62864392 
2722.728 62793480 62737240 62697120 62674344 62669748 62684260 62718712 
2726.103 62773764 62849768 62947044 63065456 63204432 63363200 63540712 
2729.479 63734940 63943924 64165108 64396316 64636112 64883232 65137416 
2732.854 65398380 65665244 65936440 66209348 66480876 66747600 67007048 
2736.229 67257616 67499144 67732296 67958048 68177456 68391216 68599392 
2739.604 68801880 68998904 69190424 69377368 69560808 69742384 69925048 
2742.979 70111336 70304744 70508424 70725136 70956472 71202848 71463136 
2746.355 71735360 72016744 72304496 72595144 72885432 73171720 73449568 
2749.730 73715144 73963864 74191944 74397216 74577912 74734128 74866112 
2753.105 74975168 75062400 75129048 75176360 75205584 75217520 75212320 
2756.480 75189552 75147000 75082008 74991392 74871888 74721064 74537664 
2759.856 74320888 74071248 73789632 73477424 73136736 72770040 72380904 
2763.231 71973216 71551544 71120320 70683880 70246040 69810904 69382144 
2766.606 68963640 68559736 68174392 67811192 67473184 67162264 66879800 
2769.981 66626556 66402764 66208960 66045248 65910868 65804796 65724604 
2773.357 65667480 65629444 65606816 65595800 65592908 65595180 65599076 
2776.732 65600960 65596612 65581852 65552064 65503360 65432400 65336680 
2780.107 65215268 65068328 64897692 64706824 64499936 64282388 64059572 
2783.482 63836180 63616156 63401884 63194396 62993504 62798420 62607556 
2786.858 62418644 62229436 62036988 61838160 61630496 61411704 61180324 
2790.233 60936676 60681884 60418104 60148392 59876072 59604456 59337112 
2793.608 59077524 58828944 58594648 58377268 58179056 58001340 57845160 
2796.983 57710796 57598532 57508684 57441324 57396700 57374956 57375524 
2800.359 57397948 57440720 57502864 57582600 57678288 57787888 57909100 
2803.734 58039740 58177348 58319588 58464940 58612052 58760008 58907868 
2807.109 59054444 59197880 59335972 59465632 59583668 59687092 59772672 
2810.484 59837588 59879420 59895852 59885276 59847168 59781800 59690552 
2813.860 59576064 59441624 59290884 59127672 58956252 58780380 58604584 
2817.235 58433896 58273052 58127800 58004180 57907584 57843076 57815408 
2820.610 57827708 57882220 57979716 58118900 58297116 58509980 58752424 
2823.985 59018040 59300228 59592480 59887976 60180588 60464028 60732452 
2827.361 60981132 61205692 61403160 61572036 61712184 61824144 61909992 
2830.736 61972280 62014280 62039700 62052808 62058120 62059996 62062864 
2834.111 62070776 62087288 62115612 62158432 62218004 62296436 62395312 
2837.486 62516740 62663512 62839316 63049784 63302824 63607492 63975140 
2840.862 64417840 64947256 65575720 66315904 67180376 68184424 69345568 
2844.237 70682400 72214416 73957272 75917752 78087520 80437704 82916040 
2847.612 85439048 87901760 90182824 92147568 93674960 94664704 95049752 
2850.987 94808320 93962576 92576856 90740376 88563992 86166352 83655152 
2854.363 81131744 78681088 76364504 74227792 72296712 70579752 69071736 
2857.738 67757200 66615008 65619768 64746476 63972792 63277604 62643684 
2861.113 62056404 61503088 60973620 60460716 59959064 59466356 58982932 
2864.488 58511460 58056176 57622896 57218436 56849852 56524600 56250096 
2867.864 56031928 55874832 55780524 55747408 55771064 55843404 55953940 
2871.239 56089416 56236176 56380648 56510600 56616960 56694424 56741472 
2874.614 56761220 56759068 56742644 56719268 56695636 56676872 56666600 
2877.989 56666904 56679552 56705528 56745548 56800000 56868588 56950704 
2881.365 57045308 57151496 57268296 57395188 57531648 57676968 57829944 
2884.740 57989296 58153296 58320760 58490836 58663328 58838844 59018648 
2888.115 59204336 59397816 59601376 59817964 60050484 60302508 60577800 
2891.490 60879832 61213664 61584904 62000640 62470636 63006072 63618348 
2894.865 64318044 65111668 65999696 66973148 68014040 69093648 70172664 
2898.241 71207640 72150880 72956408 73589008 74025120 74259040 74302608 
2901.616 74185344 73949448 73641176 73309816 72999760 72746064 72577480 
2904.991 72513968 72569368 72753856 73074680 73537904 74149256 74914288 
2908.366 75838552 76928992 78191480 79631440 81250616 83045472 85003984 
2911.742 87103432 89311400 91582816 93861800 96088736 98196360 100118736 
2915.117 101798648 103187472 104254888 104989720 105400776 105513048 
2918.010 105361584 104987784 104428888 103713840 102861264 101877944 
2920.903 100761016 99502816 98096176 96538944 94838904 93014488 91095568 
2924.278 89121464 87133280 85174600 83284392 81493024 79823768 78289992 
2927.654 76896352 75640376 74513520 73503840 72596432 71776128 71028848 
2931.029 70341640 69704728 69111048 68555896 68036408 67551248 67099312 
2934.404 66679792 66291012 65930888 65596260 65282688 64984232 64694024 
2937.779 64404772 64109340 63802944 63483408 63152044 62813544 62475188 
2941.155 62145928 61834036 61547144 61290732 61067080 60875488 60711756 
2944.530 60568124 60433600 60296340 60143596 59965344 59756476 59517956 
2947.905 59257732 58988816 58728412 58494056 58299916 58156476 58067876 
2951.280 58032960 58045420 58095640 58172804 58264792 58360480 58450080 
2954.656 58525184 58579480 58608604 58609968 58582360 58526208 58443372 
2958.031 58336600 58210348 58070264 57921824 57771044 57622480 57479148 
2961.406 57342516 57213032 57090688 56976016 56870548 56776212 56695636 
2964.781 56631044 56583216 56551776 56535544 56532528 56540868 56559060 
2968.156 56586008 56620852 56663092 56712096 56767600 56830136 56900540 
2971.532 56980472 57071756 57175800 57292872 57422112 57560624 57704172 
2974.907 57846980 57981684 58099844 58192616 58250320 58264792 58230008 
2978.282 58142912 58004140 57818588 57594520 57341868 57072020 56796228 
2981.657 56524076 56263824 56021560 55800380 55600700 55419484 55251280 
2985.033 55087892 54920344 54740312 54540900 54319000 54074332 53809616 
2988.408 53529364 53237560 52937012 52627808 52307012 51969348 51609484 
2991.783 51222660 50807056 50364720 49901876 49428196 48954144 48489648 
2995.158 48041820 47613276 47202584 46804756 46413488 46022572 45627660 
2998.534 45227156 44821912 44414220 44006908 43602692 43203352 42810008 
3001.909 42423820 42045672 41676936 41319008 40973208 40640128 40319884 
3005.284 40011644 39714552 39428004 39151252 38884208 38626600 38378340 
3008.659 38138864 37907548 37683580 37466304 37255380 37050732 36852420 
3012.035 36660940 36476460 36299120 36128912 35965504 35808200 35656380 
3015.410 35508896 35364624 35223096 35083804 34946604 34812140 34680768 
3018.785 34553064 34429336 34309696 34193928 34082060 33974304 33870448 
3022.160 33771092 33676088 33585648 33500388 33421156 33349626 33288308 
3025.536 33239942 33206642 33189618 33187828 33198812 33218090 33240300 
3028.911 33259868 33272028 33272530 33258542 33227854 33179104 33111692 
3032.286 33025592 32921854 32801986 32668792 32525104 32374394 32220312 
3035.661 32066248 31915162 31769514 31631042 31500734 31378552 31263810 
3039.037 31155256 31051500 30951506 30854414 30760116 30668546 30579622 
3042.412 30493170 30408974 30326466 30245392 30165826 30088122 30012844 
3045.787 29940492 29871878 29807108 29746676 29691326 29641410 29597742 
3049.162 29560820 29530424 29505776 29485208 29466628 29447656 29426098 
3052.538 29400250 29369230 29332856 29291986 29248424 29204904 29164186 
3055.913 29129460 29103242 29086590 29079360 29080390 29087156 29097360 
3059.288 29109086 29120992 29132614 29143990 29155186 29166666 29179068 
3062.663 29193174 29210608 29233434 29263772 29303256 29352566 29410922 
3066.039 29476342 29546526 29618494 29689552 29757854 29821126 29877344 
3069.414 29924800 29961826 29987282 30001484 30005708 30002228 29993636 
3072.789 29982348 29969816 29956962 29944078 29931368 29919866 29910780 
3076.164 29905526 29905136 29909716 29918270 29928706 29938468 29945354 
3079.540 29947982 29945746 29939356 29929984 29919724 29910070 29902828 
3082.915 29899386 29900060 29904816 29912768 29922742 29933712 29945426 
3086.290 29958206 29973862 29993992 30020124 30052506 30090394 30131590 
3089.665 30173462 30213884 30251502 30286068 30317938 30348530 30378486 
3093.041 30408690 30439998 30473266 30509770 30551502 30599886 30656100 
3096.416 30720108 30790740 30865798 30942680 31019186 31093428 31164940 
3099.791 31233760 31300880 31367368 31434402 31503226 31574738 31649146 
3103.166 31725954 31804308 31882320 31958420 32031290 32100246 32165642 
3106.542 32228806 32290902 32353296 32416734 32481540 32547638 32614924 
3109.917 32683510 32753464 32824964 32897762 32971430 33045508 33119418 
3113.292 33193268 33267808 33343938 33422622 33504288 33588660 33674800 
3116.667 33761420 33847304 33931204 34012536 34090372 34164032 34232756 
3120.042 34296252 34354700 34410040 34464704 34521740 34583772 34652452 
3123.418 34727320 34806544 34887468 34967580 35045516 35121344 35196112 
3126.793 35271644 35349384 35429364 35511196 35593080 35673324 35750340 
3130.168 35823492 35893048 35960392 36027740 36097588 36172704 36255032 
3133.543 36345556 36443776 36548036 36655384 36762440 36866704 36966624 
3136.919 37061848 37153332 37242096 37328532 37412776 37493648 37570412 
3140.294 37642816 37711876 37780004 37850096 37925444 38008036 38098528 
3143.669 38196316 38299404 38405776 38513296 38620660 38726640 38831016 
3147.044 38933060 39032988 39130872 39227112 39322576 39418172 39514400 
3150.420 39611344 39708708 39805908 39902408 39997872 40092888 40187924 
3153.795 40284144 40381988 40481228 40581556 40682008 40781796 40880984 
3157.170 40979944 41079728 41181828 41286720 41394812 41505192 41616468 
3160.545 41726724 41834592 41938840 42039504 42137740 42235120 42333772 
3163.921 42435616 42541876 42652620 42767340 42883952 43000416 43114496 
3167.296 43224176 43328392 43426776 43520272 43609796 43697468 43785016 
3170.671 43874080 43965768 44060040 44156572 44253640 44349112 44440572 
3174.046 44525404 44602172 44669924 44729272 44781980 44831092 44880768 
3177.422 44935404 44998424 45072156 45156816 45250212 45348440 45446692 
3180.797 45540480 45626740 45704480 45775052 45841144 45905808 45971924 
3184.172 46040840 46113016 46187892 46264664 46342736 46422372 46503352 
3187.547 46586376 46671180 46757264 46843692 46930104 47015864 47101128 
3190.923 47186148 47270852 47355204 47438240 47519444 47597968 47673804 
3194.298 47747064 47818156 47887812 47956448 48024576 48092824 48162268 
3197.673 48234200 48310112 48390780 48476052 48565048 48655544 48745132 
3201.048 48832400 48916132 48996612 49075068 49152756 49230832 49310032 
3204.424 49390180 49470712 49550884 49629440 49705148 49777116 49844196 
3207.799 49906036 49963504 50018488 50073628 50131748 50194824 50263080 
3211.174 50334956 50407700 50478592 50546152 50610704 50674664 50740988 
3214.549 50812644 50890308 50972680 51056416 51138076 51214684 51285148 
3217.925 51350668 51413996 51478528 51546460 51619368 51697256 51778812 
3221.300 51862740 51947536 52031908 52115060 52196320 52274984 52350708 
3224.675 52423412 52493552 52561796 52629376 52697308 52766632 52837988 
3228.050 52911752 52987960 53066312 53146256 53226400 53305848 53383588 
3231.426 53458940 53532436 53604852 53677172 53750440 53824620 53899264 
3234.801 53973280 54045776 54116588 54186440 54257164 54330044 54406124 
3238.176 54485224 54566332 54647940 54728628 54807448 54884252 54959228 
3241.551 55031772 55101132 55166440 55227352 55284660 55341000 55399756 
3244.927 55464656 55538640 55621300 55710792 55803164 55894468 55981492 
3248.302 56063216 56140204 56214568 56288228 56362392 56437168 56512412 
3251.677 56587256 56661504 56735544 56810048 56884976 56960336 57035068 
3255.052 57108148 57178784 57247128 57313704 57379724 57446088 57513000 
3258.427 57580524 57647908 57714732 57780696 57845992 57910880 57975248 
3261.803 58038788 58100792 58160904 58219400 58276916 58334820 58394624 
3265.178 58456676 58520744 58585584 58649676 58711724 58771236 58828600 
3268.553 58884680 58940424 58995988 59050912 59104248 59155124 59202968 
3271.928 59248804 59294000 59340492 59390596 59445648 59506520 59573252 
3275.304 59645240 59721804 59802144 59885884 59972344 60061404 60152692 
3278.679 60245940 60340808 60436800 60533460 60630448 60727648 60825668 
3282.054 60925312 61027992 61135008 61247124 61364420 61486368 61611900 
3285.429 61740564 61871860 62006412 62145472 62289860 62439800 62595188 
3288.805 62754504 62916176 63079440 63244060 63411132 63582404 63759960 
3292.180 63945384 64139568 64342132 64552336 64769244 64991964 65220192 
3295.555 65453736 65693000 65938136 66189856 66448324 66713324 66984980 
3298.930 67262256 67544248 67830008 68118648 68410152 68705104 69005008 
3302.306 69311400 69625600 69948096 70278296 70615416 70958192 71305912 
3305.681 71658600 72017216 72382696 72755848 73137136 73526168 73922184 
3309.056 74324432 74732000 75144488 75561344 75982232 76407328 76837536 
3312.431 77273568 77717560 78171136 78635616 79111256 79596256 80088728 
3315.807 80585664 81085008 81585888 82088752 82594720 83105248 83620480 
3319.182 84140216 84663160 85188144 85714160 86241064 86768568 87296096 
3322.557 87822656 88345952 88864384 89376528 89882584 90383840 90882536 
3325.932 91380384 91878096 92374496 92867360 93353640 93830424 94295752 
3329.308 94747776 95185424 95606904 96010656 96395000 96758944 97102192 
3332.683 97424888 97727496 98009304 98268560 98502824 98709848 98888096 
3336.058 99038408 99162960 99264880 99346472 99408200 99448816 99465112 
3339.433 99453232 99410696 99335896 99228952 99090352 98920264 98718296 
3342.809 98483328 98213928 97909032 97568968 97194152 96785616 96344408 
3346.184 95870848 95365568 94829216 94264056 93672656 93058664 92425200 
3349.559 91774520 91107536 90424032 89723104 89004632 88269328 87518800 
3352.934 86756184 85985088 85209184 84432336 83658200 82889928 82130464 
3356.310 81381920 80645144 79920264 79206448 78502448 77808072 77123832 
3359.685 76451264 75792704 75150432 74525472 73917712 73326096 72748648 
3363.060 72183856 71631016 71090784 70564584 70054056 69560968 69086224 
3366.435 68630128 68192728 67773072 67370392 66983432 66610292 66248708 
3369.811 65896176 65549904 65207988 64868568 64530536 64193144 63855716 
3373.186 63517272 63177072 62834220 62488160 62138932 61787124 61432892 
3376.561 61076576 60718236 60357180 59992772 59624332 59251276 58872804 
3379.936 58488104 58096016 57694716 57283004 56859900 56425808 55982584 
3383.312 55532764 55079692 54626748 54175632 53727228 53281348 52836940 
3386.687 52392944 51948956 51504792 51060592 50616660 50172844 49728964 
3390.062 49285276 48842636 48402592 47968068 47541776 47126240 46722764 
3393.437 46330464 45947204 45569512 45193988 44817904 44440828 44063416 
3396.813 43688420 43318876 42957908 42606964 42266384 41934280 41607612 
3400.188 41283188 40957588 40628776 40296032 39960236 39623248 39287536 
3403.563 38955348 38628228 38306928 37991004 37679644 37371972 37067116 
3406.938 36764496 36464136 36165752 35869300 35574452 35281096 34989236 
3410.313 34699216 34411796 34128044 33849132 33575916 33309020 33048224 
3413.689 32792982 32542672 32296542 32053870 31813544 31574808 31336706 
3417.064 31098304 30859110 30619584 30381042 30145830 29916672 29697144 
3420.439 29489286 29294892 29113764 28944328 28783846 28628766 28475618 
3423.814 28321250 28163578 28001510 27835194 27665868 27495054 27324910 
3427.190 27157158 26993104 26833164 26677264 26524520 26373976 26224366 
3430.565 26074984 25925406 25775984 25627210 25480352 25336458 25195772 
3433.940 25058432 24923590 24789984 24656348 24521946 24386676 24251272 
3437.315 24116926 23984478 23853890 23724216 23593496 23459564 23321094 
3440.691 23178122 23032264 22886456 22743068 22603674 22467742 22332482 
3444.066 22194264 22050444 21899878 21744726 21590086 21443090 21310374 
3447.441 21196522 21102422 21025244 20959102 20897280 20833558 20763238 
3450.816 20683862 20595258 20498682 20396330 20289832 20181178 20071716 
3454.192 19962108 19852840 19744294 19636536 19529360 19422280 19314914 
3457.567 19206642 19096454 18983734 18867272 18746968 18623030 18497120 
3460.942 18371836 18250494 18136370 18032014 17938218 17853520 17775328 
3464.317 17699638 17623234 17543876 17461188 17375930 17289720 17203600 
3467.693 17117390 17029924 16939376 16844368 16744284 16640298 16533997 
3471.068 16428135 16324671 16224260 16126623 16031174 15936777 15843535 
3474.443 15752511 15664976 15582747 15506371 15435159 15366465 15296992 
3477.818 15223206 15142124 15052311 14954182 14850110 14744177 14641252 
3481.194 14547088 14466201 14401496 14353136 14318821 14293207 14269341 
3484.569 14240853 14202405 14151740 14089921 14021405 13952078 13887792 
3487.944 13833127 13789721 13756750 13730998 13708120 13684355 13656315 
3491.319 13622501 13582466 13536658 13486447 13433506 13380128 13328704 
3494.695 13282308 13243672 13214466 13195680 13186799 13185706 13189668 
3498.070 13195030 13198344 13195952 13185262 13164598 13133588 13094555 
3501.445 13051769 13012504 12984850 12976794 12994443 13039852 13110536 
3504.820 13199368 13296965 13393489 13480636 13553887 13612859 13660726 
3508.196 13703538 13748988 13804154 13874210 13961762 14066649 14186144 
3511.571 14315876 14450444 14585361 14716482 14840887 14957303 15065140 
3514.946 15164598 15255670 15338660 15413805 15481305 15541982 15596760 
3518.321 15646219 15690293 15727740 15756221 15773091 15776321 15765533 
3521.697 15742615 15710905 15674010 15634645 15592398 15543458 15481992 
3525.072 15401583 15297609 15169573 15021405 14860979 14698110 14541606 
3528.447 14397557 14267834 14149822 14038448 13928094 13813527 13691365 
3531.822 13559801 13417956 13265569 13102921 12930878 12750920 12566329 
3535.198 12381032 12199665 12025630 11860551 11704284 11554128 11406441 
3538.573 11257409 11104893 10946824 10782937 10613338 10438919 10260634 
3541.948 10080490 9900827 9724660 9555543 9396783 9250504 9118046 8999768 
3545.805 8895388 8804220 8724835 8654929 8590205 8524713 8452103 8366532 
3549.663 8265074 8149492 8026044 7904519 7795915 7709025 7647341 7608158 
3553.520 7583644 7564055 7539578 7504044 7455434 7394866 7325612 7250877 
3557.378 7172819 7092082 7007959 6919441 6825658 6726274 6621161 6510220 
3561.235 6392818 6266909 6129779 5977844 5807492 5616329 5403745 5173795 
3565.093 4935520 4704947 4504593 4357643 4284756 4296735 4389305 4544536 
3568.950 4735161 4933208 5112068 5253572 5348225 5393680 5394720 5359395 
3572.807 5298850 5223122 5141773 5061111 4985390 4916184 4853389 4795829 
3576.665 4742061 4691047 4642919 4598212 4558063 4523543 4494482 4469441 
3580.522 4445640 4419128 4384753 4337696 4272375 4183409 4066133 3916589 
3584.380 3733642 3520608 3288146 3053874 2843307 2685883 2606708 2620109 
3588.237 2722691 2894339 3102394 3309948 3486203 3608669 3666740 3661093 
3592.094 3601786 3505409 3390753 3277396 3180357 3108367 3063751 3042696 
3595.952 3037758 3039059 3037958 3027681 3004359 2968695 2924593 2879929 
3599.809 2844241 2826599 2833502 2866321 2920323 2985142 3047935 3093617 
3603.667 3108968 3084407 3014102 2897607 2739863 2552345 2350982 2155740 
3607.524 1988179 1864739 1792867 1766750 1768646 1774102 1758433 1706969 
3611.382 1617530 1503073 1385786 1292658 1244240 1246699 1288604 1344404 
3615.239 1383327 1375681 1303658 1164033 972080 759167 566563 440044 415135 
3619.579 507180 707922 988385 1307214 1620490 1894090 2104796 2240927 
3623.436 2301048 2288157 2205458 2053158 1826971 1521094 1133668 676859 
3627.293 186684 -274759 -621117 -771635 -687285 -390905 41717 518028 956538 
3631.633 1310072 1563224 1725299 1821215 1881577 1933427 1991574 2057952 
3635.490 2123508 2175853 2205125 2208189 2189207 2157205 2121610 2088382 
3639.348 2058884 2029988 1997333 1957590 1909365 1852926 1786113 1702013 
3643.205 1587699 1423582 1189682 869213 455268 -45821 -612150 -1205960 
3647.063 -1783153 -2295018 -2697463 -2956602 -3047949 -2957885 -2685839 
3650.438 -2248839 -1686028 -1054105 -423379 139483 583816 876550 1011765 
3654.295 1009108 913869 786253 691062 680078 773108 956837 1193835 1442198 
3658.635 1666921 1847668 1978926 2065310 2116549 2142954 2153642 2154974 
3662.492 2150745 2141988 2127337 2102132 2058518 1986382 1874123 1710229 
3666.350 1485983 1197921 852745 470360 91095 -221378 -392196 -349522 -56026 
3670.689 471521 1160976 1910530 2628709 3248419 3743601 4126205 4436066 
3674.547 4723939 5024707 5334103 5598909 5742620 5697229 5438335 4987033 
3678.404 4403430 3766328 3159430 2654678 2289056 2063878 1948105 1897351 
3682.262 1868099 1830132 1769811 1681789 1560896 1396290 1169913 863369 
3686.119 466446 -11961 -538028 -1056418 -1495841 -1794735 -1918887 -1868049 
3689.977 -1668205 -1356573 -969082 -533958 -76499 376433 798933 1165295 
3693.834 1456394 1665757 1799422 1874755 1913026 1933959 1947505 1950967 
3697.691 1930565 1868133 1749084 1569077 1338854 1084172 844280 660100 
3701.549 565104 575488 684359 864299 1074340 1273217 1423615 1498983 1485318 
3705.888 1379338 1186824 918452 589191 216253 -183093 -588095 -975066 
3709.746 -1317397 -1583864 -1743124 -1770515 -1652889 -1395911 -1025413 
3713.121 -583793 -118239 325896 710676 1012463 1219785 1333436 1365111 
3716.979 1334201 1263946 1174033 1078426 981943 883024 778021 666936 556942 
3721.318 461703 397458 375736 398453 456230 531961 606776 668761 716783 
3725.658 760096 811946 883157 972412 1064076 1129981 1136226 1054809 867519 
3729.997 573099 186949 -256414 -711401 -1133724 -1488643 -1761902 -1958702 
3733.855 -2093622 -2177765 -2210568 -2178589 -2065131 -1863035 -1584062 
3737.230 -1258164 -925176 -623565 -379781 -210151 -122214 -119895 -208893 
3741.087 -399181 -703131 -1128337 -1664904 -2273561 -2868594 -3332723 
3744.463 -3563551 -3524113 -3273600 -2929287 -2620271 -2436786 -2422618 
3747.838 -2579825 -2874025 -3241568 -3598319 -3865886 -3984982 -3927687 
3751.213 -3696824 -3315888 -2821489 -2258201 -1678140 -1134352 -670181 
3754.588 -317606 -89717 18389 26408 -36048 -136822 -244029 -332571 -384251 
3758.928 -383886 -319890 -185676 14877 263230 524961 755450 915596 978489 
3763.268 939836 818784 655189 498622 388007 340817 344565 366915 368010 
3767.607 321220 223314 97888 -11762 -58742 -6328 155095 406778 708984 
3771.947 1017013 1292326 1508193 1653982 1730521 1746290 1711427 1634658 
3775.804 1520362 1369034 1181575 963678 729959 507545 331632 235514 241249 
3780.144 347184 527880 738887 933659 1076698 1150179 1158883 1125296 1083109 
3784.483 1062847 1084338 1151209 1252847 1370363 1484154 1581547 1656011 
3788.341 1707103 1737275 1750349 1749284 1736809 1715286 1685115 1643805 
3792.198 1583675 1492001 1354808 1160943 909121 612450 301060 13949 -211608 
3796.538 -354323 -421260 -447145 -485539 -587334 -789826 -1099948 -1489964 
3800.395 -1891044 -2208194 -2354868 -2282460 -2008968 -1608095 -1182929 
3803.771 -825247 -594746 -515855 -572179 -712790 -857424 -922696 -847767 
3807.628 -617411 -265620 142798 538231 871371 1115131 1263713 1324829 
3811.485 1309042 1222343 1062482 821407 493380 84234 -375974 -832886 
3815.343 -1217789 -1466716 -1554778 -1508488 -1400337 -1314919 -1322451 
3818.718 -1461796 -1729264 -2075848 -2409866 -2625113 -2628307 -2382351 
3822.093 -1924066 -1347457 -763895 -260123 109057 329112 418187 418187 
3825.951 381507 354645 368242 425384 506052 575920 602496 565104 460276 
3830.290 301591 114294 -72358 -237373 -372035 -481998 -581775 -690097 
3834.148 -822402 -987033 -1184515 -1407107 -1640643 -1863002 -2047653 
3837.523 -2168072 -2201897 -2139520 -1986276 -1762760 -1497261 -1218747 
3840.898 -952816 -714113 -507184 -325784 -157358 13419 198684 402234 617361 
3845.238 828146 1014090 1153501 1228856 1229753 1151674 994828 759565 444621 
3849.577 44203 -450455 -1044949 -1733290 -2486832 -3235879 -3872684 -4269078 
3853.435 -4322226 -4012362 -3415970 -2668123 -1895201 -1184845 -579458 
3856.810 -87067 298209 585641 782933 894213 923299 876550 765706 607075 
3861.150 417988 214993 10271 -187630 -368724 -519330 -621017 -655922 -617609 
3865.489 -519495 -398154 -302143 -279528 -362500 -554640 -825015 -1108276 
3869.347 -1326547 -1410608 -1334277 -1124437 -847668 -575421 -355382 -203262 
3873.204 -100881 -11331 107665 281697 508971 759831 990046 1154863 1219984 
3877.544 1171275 1015618 781406 511194 257627 70879 -17858 -3611 89404 
3881.883 218607 333655 392749 374377 280736 140809 2451 -75837 -50261 90233 
3886.705 317871 577910 809987 962781 1009441 947905 801622 612384 433742 
3891.045 318269 298839 383828 554951 778950 1016548 1232311 1401010 1504635 
3895.384 1533696 1485484 1362452 1172937 930239 654459 369601 100308 -130760 
3899.724 -310156 -434732 -512380 -556196 -578830 -587433 -579558 -544051 
3903.581 -464621 -328002 -128574 127153 423493 737460 1045775 1329581 
3907.439 1575029 1773969 1924208 2027825 2090313 2120112 2127770 2123375 
3911.296 2115018 2107360 2099302 2085152 2055455 2001161 1916620 1802482 
3915.154 1666588 1523654 1392035 1287906 1222875 1200413 1216528 1262450 
3919.011 1328518 1405531 1485484 1561495 1626311 1672575 1694396 1689273 
3922.868 1660635 1618063 1575761 1549923 1552650 1588132 1650557 1726862 
3926.726 1799754 1853292 1878083 1871527 1837952 1786246 1726962 1670114 
3930.583 1622885 1590559 1576426 1582811 1610779 1659238 1724633 1799821 
3934.441 1876053 1944710 1999030 2036313 2058418 2070204 2077395 2084187 
3938.298 2090712 2092843 2084087 2057686 2010448 1944643 1869031 1795994 
3942.156 1740302 1713157 1719244 1755173 1810834 1872858 1926937 1962583 
3946.013 1974765 1963581 1934658 1896020 1857584 1827138 1810335 1809004 
3949.870 1821980 1846037 1877051 1911994 1948437 1985050 2021466 2057120 
3953.728 2091578 2123475 2151778 2175021 2192937 2205758 2214450 2220278 
3957.585 2224275 2227206 2229071 2229937 2229770 2229371 2230036 2232934 
3961.443 2239895 2251119 2266773 2285692 2306111 2326364 2344986 2361077 
3965.300 2374136 2383831 2390428 2393893 2394392 2392427 2388229 2382565 
3969.157 2375935 2368672 2361143 2353614 2346485 2340322 2336058 2334526 
3973.015 2336724 2343254 2354381 2369505 2387929 2408486 2429644 2450469 
3976.872 2469729 2486524 2500121 2510419 2517617 2522783 2527015 2531715 
3980.730 2537913 2545946 2555211 2564377 2571576 2574710 2572776 2565410 
3984.587 2553445 2538747 2523783 2510519 2500621 2494023 2489990 2486658 
3988.445 2482526 2476194 2467363 2457267 2447270 2439040 2433342 2430077 
3992.302 2427978 2425545 2421514 2415616 2408686 2402356 2398357 2397857 
3996.159 2400690 2405654 2411052 2415383 2417882 2418581 2418581 2418615 
4000.017 2419614 2421414 
##END=
