
##TITLE=Z351_3_a
##JCAMP-DX=5.01  $$ Nicolet v. 1
##DATATYPE=INFRARED SPECTRUM
##ORIGIN=UniL
##OWNER=Nicolet
##LONGDATE=2011/09/13
##TIME=14:50:34
##SPECTROMETER/DATA SYSTEM=Nicolet iS5
##DATA PROCESSING=
Ratio against background
%Transmittance->Absorbance
Truncated
ElementMultiply or ElementDivide
##COMMENTS=
Number of sample scans: 32
Collection length: 51.21 sec
Sample gain: 2.0
Background collected on: Mar Sep 13 14:49:03 2011 (GMT+02:00);
Number of background scans: 32
Background gain: 2.0
Sample spacing:  1.000
Number of scan points: 12415
Resolution points: 8192
Number of FFT points: 65536
Apodization: N-B fort;
Phase correction: Mertz;
Laser frequency: 15798.0 cm-1
Number of rejected sample scans: 0
Number of rejected background scans: 0
Bench serial number: ASB1000141;
##RESOLUTION=4.000
##XUNITS=1/CM
##YUNITS=ABSORBANCE
##FIRSTX=649.893372
##LASTX=4000.122314
##FIRSTY=0.113751
##MAXX=4000.122314
##MINX=649.893372
##MAXY=0.309004
##MINY=0.004255
##XFACTOR=1.000000
##YFACTOR=1.000000E-009
##NPOINTS=6950
##DELTAX=0.482117
##ZPD=6100
##XYDATA=(X++(Y..Y))
649.893 113751048 113329952 112966512 112693264 112519568 112434656 
652.786 112419200 112461608 112568856 112765088 113077280 113521928 
655.679 114094208 114770672 115525872 116348176 117249992 118263344 
658.571 119423032 120743880 122214224 123800192 125468672 127207576 
661.464 129039752 131008744 133158608 135501024 138002448 140586896 
664.357 143168576 145676128 148054592 150265312 152255760 153926352 
667.250 155138128 155752304 155710912 155074864 153983840 152571184 
670.142 150910480 149017408 146882336 144503792 141917936 139201744 
673.035 136449984 133758056 131189648 128769352 126496880 124363648 
675.928 122369232 120523896 118841776 117328040 115970648 114741240 
678.820 113603864 112523432 111477712 110456464 109456544 108476056 
681.713 107509288 106547704 105585000 104623544 103677160 102765704 
684.606 101910912 101125384 100409400 99751840 99135936 98546808 97975584 
687.981 97420248 96881640 96358512 95844120 95325912 94789608 94224824 
691.355 93628336 93004600 92362320 91710760 91057152 90405952 89762584 
694.730 89136992 88543672 88003304 87536192 87156888 86871512 86675720 
698.105 86557488 86501480 86494080 86528008 86601696 86718360 86882232 
701.480 87095904 87357968 87663320 88003592 88370072 88753776 89146032 
704.855 89538192 89922320 90290912 90640224 90970736 91289240 91606168 
708.229 91934840 92288144 92677168 93113880 93614896 94203832 94916608 
711.604 95793832 96872080 98169984 99672384 101320144 103006272 104599088 
714.979 105956568 106954856 107522616 107645760 107376632 106815304 
717.872 106105280 105409392 104881976 104670336 104889440 105605752 
720.765 106827920 108487248 110439328 112453712 114258704 115583680 
723.657 116193968 115963424 114895888 113134336 110916608 108530976 
726.550 106256880 104289512 102737112 101614888 100873232 100429448 
729.443 100199472 100120824 100149864 100258824 100426432 100629408 
732.335 100843384 101048056 101232128 101395880 101547984 101699552 
735.228 101857080 102019400 102180352 102334448 102481840 102630424 
738.121 102792696 102979856 103196672 103438776 103694872 103951864 
741.013 104200800 104439128 104669328 104895096 105117640 105335064 
743.906 105543888 105743864 105939904 106142216 106361592 106602720 
746.799 106860856 107120272 107361112 107566336 107727448 107848520 
749.692 107942016 108023248 108101272 108177816 108248088 108306128 
752.584 108350048 108385336 108422128 108471640 108540160 108626664 
755.477 108724072 108823880 108920232 109012928 109106168 109205432 
758.370 109314640 109435144 109566296 109709040 109866896 110046064 
761.262 110251320 110483256 110735496 110997120 111259160 111520416 
764.155 111794472 112110048 112511024 113050288 113778736 114741760 
767.048 115964760 117442096 119122024 120900896 122630928 124125728 
769.940 125212464 125776160 125798600 125382216 124733840 124121800 
772.833 123773896 123821128 124238320 124851712 125369472 125467392 
775.726 124903744 123564832 121507880 118918192 116061752 113196848 
778.619 110505568 108086608 105944512 104023344 102238712 100515008 98803600 
781.993 97085992 95371304 93685400 92063552 90539608 89144072 87901512 
785.368 86826712 85927536 85204024 84652328 84267208 84046360 83992240 
788.743 84112512 84418048 84919448 85626664 86547784 87691184 89069424 
792.118 90700120 92604864 94807496 97324432 100157872 103287072 106666800 
795.493 110224592 113860296 117462944 120911664 124090936 126917272 
798.385 129350040 131414560 133198960 134855472 136567264 138496496 
801.278 140754176 143342720 146136128 148859744 151131856 152539920 
804.171 152688528 151330032 148420736 144150160 138894560 133136240 
807.063 127370816 121959496 117095896 112782616 108874712 105145704 
809.956 101373744 97424224 93267456 88982472 84707656 80605376 76809896 
813.331 73399848 70405304 67812272 65584280 63675204 62042148 60649496 
816.706 59464456 58459672 57611240 56899520 56310708 55836964 55472788 
820.081 55213956 55053848 54984012 54995932 55084428 55249812 55498428 
823.455 55841336 56290452 56854160 57536828 58335656 59241516 60236840 
826.830 61295924 62385212 63461744 64480720 65403700 66206568 66891932 
830.205 67493656 68080544 68742872 69587800 70725328 72241496 74187656 
833.580 76554080 79258216 82123624 84884480 87230880 88816904 89345872 
836.955 88641200 86674624 83591720 79667064 75270520 70768928 66469140 
840.329 62602236 59288188 56557928 54377884 52679204 51380912 50403384 
843.704 49681632 49159880 48791100 48539372 48375816 48280784 48243496 
847.079 48258012 48320296 48425300 48565716 48733528 48922956 49132016 
850.454 49363600 49622900 49915628 50244892 50611668 51015048 51455472 
853.829 51935588 52460840 53037448 53670872 54364704 55121708 55946212 
857.204 56847888 57841980 58950636 60200304 61618312 63234636 65081336 
860.578 67191856 69602928 72344616 75427816 78824688 82453600 86170960 
863.953 89761200 92976976 95564584 97296072 98029232 97720984 96443896 
867.328 94364552 91729544 88826824 85922248 83257496 81014976 79302560 
870.703 78173592 77627496 77626432 78102232 78966464 80118696 81436272 
874.078 82788008 84040936 85060888 85741408 86014328 85860344 85312248 
877.452 84447664 83376880 82212776 81060728 80000640 79072784 78280864 
880.827 77595288 76968344 76344320 75677448 74945440 74151416 73325072 
884.202 72510088 71758104 71111464 70597064 70225400 69993208 69890720 
887.577 69908776 70044048 70299720 70683064 71200344 71853064 72636816 
890.952 73542608 74559616 75679064 76895912 78208544 79616992 81120120 
894.327 82714120 84390248 86134144 87920256 89709616 91447088 93054144 
897.701 94438424 95504632 96162248 96350784 96048264 95277920 94101888 
901.076 92614176 90929728 89160552 87414936 85786744 84344128 83137112 
904.451 82194360 81526488 81132144 81002552 81127072 81496184 82103800 
907.826 82948128 84029720 85349432 86907936 88704552 90737600 93004848 
911.201 95501128 98217208 101134920 104223208 107441896 110742808 114078568 
914.575 117416392 120743920 124075816 127449896 130923944 134562176 
917.468 138417568 142520912 146858784 151363072 155888112 160216048 
920.361 164078288 167160320 169180752 169946672 169404064 167680768 
923.254 165085168 162096016 159253744 157122640 156214576 156874928 
926.146 159267360 163316928 168728256 174974288 181359056 187159648 
929.039 191646896 194244080 194615312 192658576 188505008 182439792 
931.932 174855120 166168816 156785312 147108976 137496240 128261504 
934.824 119683664 111965952 105250232 99619656 95096368 91664640 89284256 
938.199 87903584 87460280 87874944 89044816 90816616 92981736 95297888 
941.574 97479800 99252104 100396048 100761016 100302984 99079568 97239984 
944.949 94985224 92530520 90085536 87809024 85807128 84135232 82802240 
948.324 81787168 81051504 80554392 80254864 80115424 80104864 80193216 
951.698 80353576 80564720 80810224 81080896 81374768 81693576 82040208 
955.073 82415592 82817672 83242168 83685480 84145568 84623616 85122472 
958.448 85644824 86190552 86756872 87338392 87930880 88532592 89145344 
961.823 89773168 90420896 91090744 91782384 92492800 93219120 93960232 
965.198 94717360 95493568 96291304 97110520 97948968 98802816 99669384 
968.573 100549296 101446224 102366320 103314600 104293256 105300304 
971.465 106332176 107385336 108459472 109557512 110684792 111846504 
974.358 113045088 114280168 115549568 116852472 118191176 119571592 
977.251 121001320 122487080 124032824 125639664 127308536 129043456 
980.143 130853728 132754680 134762896 136893280 139154496 141547088 
983.036 144064496 146693200 149414928 152201616 155009856 157779936 
985.929 160428336 162853200 164953968 166635024 167829136 168507584 
988.821 168682880 168406944 167760544 166853616 165807440 164744208 
991.714 163786864 163036592 162568240 162428976 162632944 163170528 
994.607 164016208 165141440 166519888 168131440 169962112 171998352 
997.500 174224000 176620816 179167760 181844896 184635792 187522032 
1000.392 190479424 193473440 196451888 199351680 202108560 204663184 
1003.285 206977408 209037552 210855232 212462272 213906304 215250288 
1006.178 216562928 217921264 219405360 221082928 223006944 225205248 
1009.070 227678768 230406336 233353296 236484496 239765728 243166976 
1011.963 246658144 250200240 253745280 257242736 260642384 263908240 
1014.856 267019568 269963776 272724544 275267776 277531008 279432992 
1017.748 280884192 281807296 282162176 281954784 281244192 280130816 
1020.641 278757120 277295872 275922592 274821920 274158528 274052576 
1023.534 274579744 275755424 277542112 279858016 282599520 285659712 
1026.427 288927296 292298720 295668320 298913664 301907136 304515776 
1029.320 306612000 308098720 308908416 309003936 308372192 307013024 
1032.213 304937088 302167200 298746368 294740576 290229216 285302432 
1035.106 280041728 274510688 268760064 262832496 256772192 250638992 
1037.999 244503888 238444800 232544240 226873600 221493504 216455184 
1040.892 211792736 207522096 203629504 200063712 196725040 193466208 
1043.785 190121648 186516800 182509904 178027120 173069360 167718992 
1046.678 162114208 156437072 150875248 145592016 140728032 136376544 
1049.571 132586616 129370840 126709312 124560680 122869392 121578240 
1052.464 120632104 119979992 119579960 119391624 119371608 119472504 
1055.357 119636256 119795720 119884832 119837632 119598512 119130168 
1058.250 118411936 117444784 116250608 114875432 113385616 111862072 
1061.144 110401096 109097520 108036512 107291832 106912768 106926080 
1064.037 107336888 108129704 109270032 110702576 112357696 114144624 
1066.930 115955848 117683808 119219632 120470944 121375496 121898248 
1069.823 122034480 121802272 121236000 120377768 119269992 117956008 
1072.716 116473768 114856992 113137944 111347744 109520280 107698824 
1075.609 105932376 104278264 102799208 101551168 100582504 99926512 99596576 
1078.984 99586776 99871296 100409112 101141232 101993792 102885912 103725120 
1082.359 104422400 104906520 105130808 105089072 104817816 104397288 
1085.252 103935360 103553832 103381016 103525320 104072400 105078048 
1088.146 106559944 108497968 110829192 113459448 116258576 119073328 
1091.039 121756696 124167096 126193448 127767232 128856096 129463328 
1093.932 129616512 129360840 128749568 127837360 126684072 125349360 
1096.825 123893800 122384120 120884400 119454264 118142072 116970560 
1099.718 115930056 114969624 114005448 112923976 111601760 109938888 
1102.611 107870312 105388360 102543432 99441240 96222944 93035176 90026424 
1105.986 87319512 85000480 83126632 81720768 80779896 80282328 80194528 
1109.361 80474872 81074632 81942912 83024296 84255536 85571824 86899680 
1112.737 88159104 89274288 90172352 90794280 91104480 91090296 90763896 
1116.112 90155344 89309608 88277568 87108736 85852024 84549344 83233696 
1119.487 81931112 80658032 79423320 78230720 77081896 75979000 74926736 
1122.862 73932320 73003992 72147632 71364488 70650432 69996944 69395752 
1126.238 68842608 68341624 67905744 67556624 67319472 67216224 67262448 
1129.613 67461488 67803712 68265728 68813408 69405040 69991104 70523848 
1132.988 70960920 71269952 71437712 71471232 71398968 71263392 71116576 
1136.363 71010624 70985688 71067096 71259880 71549160 71900560 72265008 
1139.739 72588328 72810392 72876848 72745712 72386880 71786800 70947224 
1143.114 69881456 68611456 67164896 65575256 63877708 62110032 60312484 
1146.489 58521768 56772248 55093344 53505488 52022384 50650872 49392704 
1149.864 48247088 47212372 46286888 45468952 44756084 44144760 43630640 
1153.240 43209132 42876748 42631928 42474380 42404744 42423052 42528280 
1156.615 42718236 42991196 43346332 43785308 44311576 44928828 45639736 
1159.990 46444460 47340384 48322224 49382456 50511716 51696768 52919272 
1163.365 54156300 55377208 56547436 57632660 58598516 59416240 60063916 
1166.740 60525424 60792436 60863900 60746320 60453480 60005400 59427792 
1170.116 58747340 57991492 57186948 56356768 55523768 54709420 53933740 
1173.491 53216812 52577428 52029888 51585676 51251780 51031524 50926932 
1176.866 50940564 51075832 51338472 51734844 52271432 52954420 53789816 
1180.241 54784028 55945196 57282320 58805532 60524012 62444812 64571864 
1183.617 66905848 69442368 72169376 75061608 78079352 81157144 84205976 
1186.992 87122264 89783728 92070472 93879280 95124696 95756248 95760128 
1190.367 95160832 94016064 92410480 90450800 88245336 85900640 83516328 
1193.742 81170400 78926448 76830664 74910320 73179520 71640000 70284064 
1197.118 69096288 68056056 67139920 66320500 65569440 64859068 64160652 
1200.493 63447556 62697156 61891080 61019108 60080504 59085576 58054092 
1203.868 57012776 55993060 55023196 54126608 53319520 52609256 51996684 
1207.243 51478268 51048776 50702484 50433188 50234920 50100028 50020272 
1210.619 49988412 49999304 50052024 50149676 50299460 50509896 50788952 
1213.994 51142924 51575156 52086668 52676024 53339680 54071256 54860716 
1217.369 55695688 56561400 57443064 58328988 59210984 60085300 60951544 
1220.744 61811916 62670284 63531660 64404504 65300444 66233540 67220520 
1224.120 68276632 69412664 70632920 71933992 73304640 74725944 76174024 
1227.495 77619648 79028096 80364456 81593288 82683376 83614256 84377008 
1230.870 84977152 85433000 85776648 86052016 86310048 86614920 87037960 
1234.245 87652256 88536648 89763840 91395352 93482400 96059056 99144008 
1237.621 102741312 106841784 111421560 116437152 121828144 127510968 
1240.514 133378384 139317168 145203616 150912912 156333104 161353520 
1243.407 165870016 169791808 173035648 175535776 177248160 178147696 
1246.300 178227952 177498064 175982592 173722192 170772464 167207392 
1249.193 163106032 158543952 153585888 148275408 142640256 136702368 
1252.086 130489424 124048736 117455896 110805880 104216424 97814560 91714440 
1255.461 86021192 80813656 76135288 72000208 68390336 65263740 62559144 
1258.836 60206396 58134580 56271744 54555924 52937164 51376924 49852816 
1262.212 48355000 46884032 45447024 44054428 42717284 41444784 40245176 
1265.587 39125656 38090864 37144240 36285796 35511736 34814868 34186044 
1268.962 33617300 33102896 32641462 32234836 31886562 31599824 31375882 
1272.337 31215386 31118878 31088372 31128098 31243158 31437642 31711194 
1275.713 32057650 32463148 32905876 33359394 33791288 34166292 34452544 
1279.088 34620592 34651452 34539932 34295716 33941988 33508834 33029954 
1282.463 32532782 32035354 31546942 31069936 30604936 30155350 29729182 
1285.838 29338456 28997246 28716512 28504136 28363444 28295858 28302788 
1289.214 28386684 28550982 28797938 29127194 29534112 30009792 30541868 
1292.589 31116172 31714548 32315816 32895618 33425984 33880476 34239564 
1295.964 34494264 34650268 34727068 34755856 34770644 34805500 34890372 
1299.339 35047128 35291844 35633256 36071880 36596480 37181740 37790128 
1302.715 38369760 38864060 39222692 39403912 39385084 39163256 38753700 
1306.090 38185568 37496032 36729264 35928288 35133488 34381744 33699824 
1309.465 33104934 32603640 32193654 31867382 31616110 31433478 31316652 
1312.840 31264842 31277090 31350524 31480000 31659514 31884138 32152548 
1316.216 32465826 32825608 33231500 33679452 34160664 34665664 35186340 
1319.591 35718432 36261840 36817688 37385044 37958024 38524012 39064128 
1322.966 39558568 39987808 40337368 40601088 40782704 40897624 40971240 
1326.341 41040176 41146456 41329724 41623328 42043520 42586972 43229812 
1329.717 43934608 44660412 45369884 46039296 46660044 47236388 47780280 
1333.092 48306672 48830552 49362820 49912988 50488420 51093760 51730136 
1336.467 52394068 53077284 53767724 54452324 55120124 55763040 56375520 
1339.842 56954068 57495220 57995280 58451412 58863432 59234336 59570288 
1343.218 59878772 60165936 60434780 60684476 60912388 61115404 61292032 
1346.593 61442124 61563140 61646000 61672464 61612320 61428272 61084740 
1349.968 60554564 59828760 58920620 57867344 56724480 55557052 54438276 
1353.343 53436080 52607500 51997992 51631016 51507700 51603400 51873756 
1356.719 52258728 52691472 53114164 53479476 53756252 53931264 54005472 
1360.094 53993804 53921996 53830248 53771028 53801328 53979396 54347468 
1363.469 54919032 55675532 56568384 57530020 58477908 59331072 60012324 
1366.844 60450128 60592772 60411704 59909240 59118752 58099996 56929288 
1370.219 55679340 54416488 53192544 52041396 50989784 50061692 49282272 
1373.595 48681708 48286820 48112552 48154308 48388224 48779388 49291216 
1376.970 49898676 50592720 51380280 52281000 53323380 54544276 55983452 
1380.345 57685556 59692340 62025020 64665296 67528992 70468472 73262792 
1383.720 75648024 77371440 78197032 77960064 76600088 74192496 70963376 
1387.096 67249064 63454492 59929056 56901560 54471776 52622200 51269116 
1390.471 50301064 49613544 49116544 48736012 48417968 48119584 47810980 
1393.846 47477528 47118892 46747928 46382296 46038224 45723400 45436576 
1397.221 45171964 44924928 44697244 44499888 44350396 44267656 44266736 
1400.597 44353664 44526208 44776396 45094396 45471600 45901060 46379828 
1403.972 46907328 47484404 48110852 48783984 49498520 50247420 51024664 
1407.347 51827196 52656120 53515044 54407964 55337536 56302900 57301148 
1410.722 58328264 59380000 60450240 61527252 62587424 63595944 64509928 
1414.098 65285728 65896444 66339104 66641040 66851736 67037828 67271192 
1417.473 67614080 68116672 68804672 69671928 70680688 71770232 72874224 
1420.848 73932208 74900984 75759496 76508360 77174576 77808160 78477960 
1424.223 79248320 80160488 81220456 82399160 83647592 84912432 86154952 
1427.599 87351688 88494440 89586568 90638712 91668200 92697840 93762448 
1430.974 94905152 96167616 97584728 99173192 100931328 102844632 104900112 
1434.349 107100352 109465536 112032544 114836016 117887056 121149408 
1437.242 124549920 128007424 131453216 134836832 138106832 141198848 
1440.135 144008880 146394752 148207136 149292256 149527312 148842224 
1443.028 147218240 144695936 141367200 137381600 132924648 128190904 
1445.921 123387960 118701432 114292112 110301768 106829624 103922104 
1448.814 101560664 99673848 98159632 96919616 95894728 95073968 94492176 
1452.190 94200824 94241704 94616168 95282128 96153640 97119880 98071672 
1455.565 98904864 99557192 100031416 100412952 100835824 101424840 102270208 
1458.940 103409440 104849408 106582688 108590664 110839624 113269360 
1461.833 115799616 118312816 120652624 122652552 124146848 125026568 
1464.726 125284744 125030816 124454240 123747240 123071080 122522136 
1467.619 122139336 121927768 121867496 121919128 122012544 122043000 
1470.512 121868024 121311784 120220200 118518088 116266152 113652808 
1473.406 110927856 108310968 105928912 103833592 102037456 100547248 
1476.299 99384376 98575208 98127696 98018640 98188552 98560112 99051440 
1479.674 99600736 100178776 100787472 101455688 102224160 103137176 
1482.567 104233400 105549640 107130368 109028776 111303944 114006264 
1485.460 117155120 120711152 124550224 128474224 132194312 135356240 
1488.353 137597920 138563552 137988464 135777456 132043752 127105488 
1491.246 121385792 115323080 109251368 103362688 97749984 92424872 87376568 
1494.621 82624816 78230360 74301584 70968992 68335608 66441028 65251344 
1497.997 64687872 64652680 65056936 65833748 66928192 68291512 69876824 
1501.372 71629760 73490456 75399200 77278480 79034264 80547056 81639552 
1504.747 82083032 81616160 80014184 77226024 73473424 69210008 64903812 
1508.122 60859668 57175500 53817120 50712496 47811236 45096896 42590664 
1511.498 40328536 38335124 36617824 35160792 33934824 32907770 32051336 
1514.873 31342938 30760508 30282018 29888738 29567310 29316480 29144272 
1518.248 29060266 29066572 29152670 29294750 29464464 29641160 29824816 
1521.623 30038018 30315878 30683836 31144186 31680402 32267456 32886684 
1524.999 33531814 34213072 34951056 35768548 36677196 37673932 38744244 
1528.374 39871024 41042360 42254440 43513568 44832012 46223568 47701980 
1531.749 49277188 50951852 52718332 54554496 56425660 58291128 60116848 
1535.124 61879120 63564756 65158940 66642552 67994128 69182960 70179632 
1538.500 70959552 71508064 71818424 71888288 71726840 71354488 70807736 
1541.875 70130608 69359216 68508520 67568664 66516444 65333636 64029852 
1545.250 62648892 61258452 59921372 58666624 57484404 56332816 55163016 
1548.625 53943308 52682868 51430332 50259360 49230424 48366480 47650140 
1552.000 47039716 46493172 45986988 45525796 45134684 44840280 44649616 
1555.376 44540308 44461124 44346432 44118208 43694760 43008976 42035380 
1558.751 40832280 39542416 38331684 37305532 36483812 35829356 35284692 
1562.126 34794336 34310020 33797412 33239656 32643214 32035392 31455670 
1565.501 30941328 30508810 30150732 29839226 29540390 29225386 28882352 
1568.877 28520658 28167784 27856038 27606792 27425236 27302538 27224534 
1572.252 27178498 27154230 27142802 27131834 27105910 27049238 26953050 
1575.627 26825550 26693506 26595038 26557522 26587780 26671590 26786006 
1579.002 26908488 27025470 27134478 27241112 27355044 27483724 27629108 
1582.378 27787398 27952320 28117974 28280686 28437940 28584988 28712726 
1585.753 28808630 28859690 28858450 28807708 28722318 28625616 28544720 
1589.128 28505162 28524408 28612840 28774818 29010670 29315558 29677134 
1592.503 30073100 30467544 30814430 31068940 31192280 31164514 30988760 
1595.879 30690166 30308522 29886254 29463754 29071532 28730778 28458600 
1599.254 28268132 28169694 28169942 28269546 28463094 28741788 29096864 
1602.629 29521310 30008726 30551252 31133756 31730514 32308608 32827214 
1606.004 33244916 33528376 33652672 33606988 33393386 33025234 32521780 
1609.380 31905498 31203318 30445368 29665214 28900626 28183200 27534944 
1612.755 26963520 26461936 26013414 25596740 25193420 24791738 24389796 
1616.130 23997854 23634850 23322352 23077442 22908354 22813428 22783886 
1619.505 22805152 22859736 22930080 23000786 23064094 23122590 23189760 
1622.881 23284874 23423718 23612600 23845630 24110026 24393440 24689138 
1626.256 24996198 25316544 25650022 25991180 26329370 26653340 26956330 
1629.631 27239278 27509882 27777330 28047208 28317644 28578338 28813588 
1633.006 29007378 29145334 29219470 29229818 29185164 29100124 28992500 
1636.382 28877712 28765118 28657080 28550346 28436878 28305688 28143992 
1639.757 27942070 27695814 27410732 27100480 26783080 26474226 26180372 
1643.132 25897866 25613574 25309694 24969036 24582566 24154336 23703712 
1646.507 23261032 22858444 22520784 22258536 22069374 21942532 21863496 
1649.883 21814334 21772282 21708988 21587822 21371350 21042668 20630524 
1653.258 20214430 19879930 19669714 19570086 19539966 19535806 19527662 
1656.633 19500976 19452114 19385588 19308610 19226728 19141330 19049508 
1660.008 18946492 18828448 18694560 18547398 18392232 18235530 18083170 
1663.384 17939944 17810056 17696428 17600634 17521626 17454566 17391000 
1666.759 17319376 17227732 17107568 16956912 16782854 16599433 16423833 
1670.134 16268702 16139828 16035678 15950080 15875392 15803156 15724784 
1673.509 15631279 15514613 15372026 15209068 15041300 14888101 14765020 
1676.885 14676689 14616612 14571209 14526051 14471340 14404682 14332040 
1680.260 14263691 14209047 14169883 14137944 14095808 14022911 13903427 
1683.635 13738557 13551118 13378146 13249889 13174366 13140214 13127918 
1687.010 13120713 13107736 13084890 13052998 13014860 12973379 12930776 
1690.385 12889270 12852033 12823126 12806166 12801866 12805961 12808930 
1693.761 12798009 12760918 12692201 12599107 12502247 12427264 12389112 
1697.136 12386930 12404829 12420888 12412501 12363884 12272871 12155775 
1700.511 12042389 11958971 11915752 11905025 11911427 11919158 11917149 
1703.886 11899950 11866000 11818227 11762392 11706121 11655713 11615654 
1707.262 11587068 11568693 11556748 11546778 11534971 11519218 11500029 
1710.637 11480432 11464068 11453861 11450562 11452229 11455256 11456379 
1714.012 11453929 11448112 11440050 11430593 11418074 11398856 11369808 
1717.387 11331340 11290055 11257103 11242583 11251900 11283389 11330150 
1720.763 11383923 11436648 11484650 11527486 11568318 11611264 11659626 
1724.138 11713746 11771993 11831609 11890211 11946880 12001717 12054040 
1727.513 12101872 12141327 12168349 12180070 12177311 12163408 12143304 
1730.888 12119828 12090799 12048011 11978896 11871857 11722869 11543955 
1734.264 11360862 11203686 11090889 11022844 10987161 10967213 10949169 
1737.639 10923583 10887500 10842892 10795912 10753726 10721461 10701593 
1741.014 10693884 10696567 10707605 10724789 10746016 10768535 10790104 
1744.389 10809500 10827028 10844014 10861917 10881316 10900036 10914307 
1747.765 10919370 10911453 10889164 10853594 10807597 10754643 10697654 
1751.140 10639280 10581831 10528395 10481821 10444859 10417673 10397616 
1754.515 10379630 10357437 10325099 10280855 10227422 10172096 10123255 
1757.890 10085712 10059397 10039153 10017553 9987242 9944863 9891369 9831917 
1761.748 9773389 9721408 9678410 9643752 9614957 9590194 9568346 9548667 
1765.605 9530411 9511749 9490346 9464812 9435892 9407212 9383918 9369900 
1769.463 9365465 9366379 9365702 9355410 9331034 9294542 9254600 9222751 
1773.320 9207283 9210431 9228268 9254059 9281510 9307778 9333506 9360760 
1777.177 9391468 9424549 9456481 9482183 9497762 9502097 9497931 9490820 
1781.035 9486248 9486722 9491565 9497492 9501081 9500302 9496306 9491903 
1784.892 9490582 9494409 9502842 9513984 9525703 9537218 9549445 9563536 
1788.750 9579998 9596664 9609333 9612382 9601203 9574545 9535966 9493156 
1792.607 9453941 9424379 9405756 9395869 9391028 9388116 9385543 9383138 
1796.465 9380328 9376435 9369358 9357476 9340412 9319965 9299958 9284962 
1800.322 9278734 9281646 9292004 9305781 9320066 9333743 9347590 9363468 
1804.179 9382394 9403759 9425294 9443849 9457700 9466505 9472667 9478764 
1808.037 9486857 9496983 9507414 9515272 9518523 9517405 9513612 9509751 
1811.894 9506872 9504366 9499591 9490582 9477036 9462576 9453569 9458377 
1815.752 9483775 9533391 9605133 9693353 9790265 9888318 9981614 10067197 
1819.609 10143300 10209409 10265249 10311222 10348614 10379732 10407153 
1822.984 10432708 10456874 10478767 10496655 10509996 10519976 10530126 
1826.360 10544180 10565161 10592661 10623762 10653541 10677516 10693952 
1829.735 10705023 10715620 10731854 10757326 10791768 10831954 10874046 
1833.110 10915428 10955761 10997389 11043610 11097449 11159964 11230241 
1836.485 11306616 11387937 11474104 11566038 11664799 11770018 11879756 
1839.861 11991498 12102997 12213842 12326113 12443152 12568580 12704961 
1843.236 12852203 13007110 13166203 13325868 13484088 13639595 13790439 
1846.611 13932542 14059735 14164166 14239894 14283482 14295810 14280914 
1849.986 14244551 14191723 14124321 14042691 13945578 13833127 13707402 
1853.362 13572792 13433882 13295017 13157904 13022508 12888040 12754776 
1856.737 12624417 12499860 12383793 12277131 12178571 12085519 11995484 
1860.112 11907477 11822960 11744724 11675487 11615926 11564507 11518095 
1863.487 11473968 11431205 11391440 11357801 11333279 11319267 11313995 
1866.863 11314131 11315458 11315696 11314642 11314268 11316717 11323042 
1870.238 11332293 11342121 11350624 11356916 11361645 11366644 11372528 
1873.613 11378753 11383379 11383515 11377528 11365488 11348958 11330490 
1876.988 11311921 11292571 11270093 11241496 11205080 11161597 11114683 
1880.364 11068999 11028757 10995758 10969183 10946484 10925418 10904998 
1883.739 10886005 10870649 10859709 10852948 10847954 10842077 10833177 
1887.114 10821966 10810519 10801924 10798256 10799173 10802128 10804302 
1890.489 10803963 10802332 10802943 10809976 10825465 10849653 10879040 
1893.865 10909448 10937378 10961538 10983082 11003846 11025256 11046737 
1897.240 11066144 11081371 11092316 11101699 11114411 11134808 11165472 
1900.615 11204944 11248296 11289544 11324504 11352291 11375249 11397189 
1903.990 11421068 11447160 11472879 11494789 11510371 11519695 11525581 
1907.365 11531331 11539599 11549943 11560118 11566991 11569305 11568931 
1910.741 11569373 11574988 11588021 11606432 11625660 11639988 11646046 
1914.116 11643698 11636653 11629812 11627702 11631037 11637912 11643766 
1917.491 11645162 11640362 11631241 11620078 11608984 11597754 11585231 
1920.866 11569237 11550182 11530480 11515033 11508671 11513161 11526431 
1924.242 11544227 11561717 11576962 11591595 11610243 11637878 11676678 
1927.617 11724299 11774784 11821632 11860483 11890892 11917012 11943951 
1930.992 11976001 12013333 12053052 12090220 12121770 12147086 12168655 
1934.367 12190702 12216159 12244582 12273075 12297480 12315103 12325534 
1937.743 12331772 12337737 12346327 12358804 12374520 12392419 12413387 
1941.118 12439470 12474182 12519844 12575367 12635878 12695067 12748088 
1944.493 12793812 12835822 12878995 12928626 12985840 13048150 13110399 
1947.868 13168048 13220511 13271103 13324946 13386450 13455139 13526335 
1951.244 13591526 13643118 13677618 13696630 13705932 13711164 13716054 
1954.619 13720055 13720808 13716635 13710069 13707744 13720192 13756785 
1957.994 13820642 13908559 14010010 14114052 14210587 14295947 14370225 
1961.369 14435749 14494052 14544792 14587485 14623432 14657256 14697733 
1964.745 14751445 14822442 14906687 14993486 15069566 15124661 15156878 
1968.120 15173210 15186867 15210200 15250316 15306945 15373433 15440687 
1971.495 15502662 15557470 15606514 15652986 15699809 15750587 15812056 
1974.870 15896803 16022854 16209058 16465645 16785092 17139242 17481678 
1978.246 17759900 17935282 17989258 17928826 17780058 17579346 17359444 
1981.621 17142586 16938722 16748279 16567936 16395755 16233237 16085051 
1984.996 15955338 15844909 15750758 15669098 15595420 15529962 15475124 
1988.371 15434575 15410200 15400073 15398527 15398871 15395060 15385277 
1991.747 15371614 15357540 15346658 15340617 15338798 15339999 15343877 
1995.122 15350434 15360458 15373158 15385379 15391765 15386101 15364543 
1998.497 15327265 15278905 15226466 15176229 15131798 15092550 15055707 
2001.872 15018970 14983334 14955006 14945094 14964093 15021028 15118931 
2005.248 15254949 15420568 15604453 15793467 15974691 16135426 16266121 
2008.623 16360624 16418569 16445065 16450744 16445961 16440557 16439214 
2011.998 16442416 16446579 16449608 16451018 16455837 16470186 16499924 
2015.373 16545460 16602566 16662780 16717458 16762638 16799972 16835826 
2018.749 16877986 16930866 16994088 17063248 17132178 17196224 17255348 
2022.124 17310962 17365030 17416626 17461706 17493304 17508172 17507342 
2025.499 17498548 17493750 17504962 17537978 17591972 17657916 17724452 
2028.874 17783028 17829838 17867814 17903412 17944122 17993920 18054052 
2032.250 18124106 18202912 18289992 18384418 18483186 18580180 18665052 
2035.625 18727628 18760874 18763436 18740498 18702134 18657824 18613346 
2039.000 18569804 18524056 18470776 18407198 18334574 18257750 18183216 
2042.375 18116746 18060580 18013468 17972302 17934662 17900856 17873786 
2045.750 17859944 17867158 17901616 17966914 18060338 18172300 18283910 
2049.126 18369346 18400768 18353240 18214694 17990122 17703848 17395000 
2052.501 17106086 16877540 16732782 16674247 16683955 16731439 16785060 
2055.876 16821256 16831176 16819190 16796734 16774829 16758610 16747005 
2059.251 16733885 16714050 16685642 16652038 16618472 16590070 16568176 
2062.627 16550243 16531862 16509870 16483540 16455561 16429270 16407281 
2066.002 16389562 16372873 16353399 16328972 16299833 16268769 16238982 
2069.377 16212359 16188182 16164348 16138522 16110737 16083812 16062221 
2072.752 16048983 16044514 16044995 16043894 16035300 16016185 15987754 
2076.128 15954858 15923200 15896494 15875014 15856558 15838001 15818277 
2079.503 15799170 15784603 15778245 15780995 15789652 15797624 15797762 
2082.878 15785014 15758866 15722483 15680846 15638560 15597343 15556371 
2086.253 15513205 15465545 15413427 15358638 15303684 15250042 15196646 
2089.629 15140820 15079960 15012830 14942282 14874455 14817711 14779931 
2093.004 14766870 14780891 14821139 14884535 14966392 15060784 15160344 
2096.379 15256253 15340308 15405394 15448824 15472068 15481271 15484464 
2099.754 15488653 15497924 15511935 15527971 15542841 15555650 15568391 
2103.130 15586009 15613349 15653124 15704583 15763642 15825287 15885392 
2106.505 15942723 15997345 16051389 16105372 16158639 16209058 16254736 
2109.880 16294466 16329179 16360557 16390420 16418053 16441418 16456146 
2113.255 16458934 16448438 16426070 16395926 16363239 16332274 16305303 
2116.631 16282668 16263645 16248029 16236711 16230486 16230933 16237812 
2120.006 16249577 16263610 16277507 16290030 16301863 16315073 16331518 
2123.381 16351989 16375935 16401157 16425794 16448678 16469706 16489495 
2126.756 16508458 16525185 16537990 16543670 16540674 16529799 16513828 
2130.132 16497582 16487360 16489977 16512314 16562015 16646840 16772937 
2133.507 16943268 17154340 17395138 17646734 17887218 18097852 18266042 
2136.882 18390814 18479592 18545254 18600204 18652428 18704798 18755790 
2140.257 18803156 18846994 18888210 18930052 18973422 19017244 19057124 
2143.633 19089774 19114356 19135130 19159888 19196042 19247648 19311416 
2147.008 19377620 19433056 19466010 19470930 19448130 19403570 19343738 
2150.383 19273486 19193378 19102098 18998446 18883816 18761706 18638108 
2153.758 18518558 18408340 18314910 18252082 18244170 18327836 18542694 
2157.134 18923026 19479004 20186350 20979548 21770960 22470708 23007038 
2160.509 23344938 23486706 23462502 23318086 23101588 22855580 22609502 
2163.884 22380554 22174738 21990594 21819908 21652738 21479258 21293252 
2167.259 21092752 20882366 20669858 20463496 20267926 20083238 19903412 
2170.635 19721858 19532792 19337502 19143614 18966256 18820594 18719258 
2174.010 18667508 18661698 18689922 18734652 18777344 18800146 18789486 
2177.385 18738492 18647966 18527030 18391608 18261828 18158894 18096988 
2180.760 18081546 18108042 18162314 18225786 18282632 18322410 18341280 
2184.135 18341522 18326798 18300464 18263278 18215282 18156890 18090354 
2187.511 18020236 17951926 17890430 17838088 17795626 17761454 17734702 
2190.886 17715134 17702882 17697430 17696082 17694116 17685452 17665646 
2194.261 17633724 17593422 17551434 17513690 17484126 17461120 17439976 
2197.636 17413934 17380136 17338374 17294100 17253864 17223456 17203874 
2201.012 17191500 17179090 17159372 17127490 17083030 17029304 16972038 
2204.387 16916880 16867998 16827388 16795942 16773487 16759781 16753202 
2207.762 16751241 16750345 16747005 16739119 16727617 16715359 16706474 
2211.137 16704237 16709160 16718457 16726963 16729683 16724518 16712604 
2214.513 16698278 16685953 16679101 16677793 16679239 16679548 16676346 
2217.888 16669322 16660474 16651385 16642537 16631141 16613239 16584907 
2221.263 16544633 16494520 16440557 16390009 16347997 16316725 16293950 
2224.638 16275547 16257178 16236747 16214870 16193822 16176075 16162388 
2228.014 16151657 16140964 16128309 16112868 16096089 16080650 16069407 
2231.389 16063526 16062668 16065212 16068993 16072741 16075939 16078759 
2234.764 16081372 16083743 16084811 16084535 16083023 16081750 16082540 
2238.139 16087217 16095573 16106747 16117923 16126726 16131196 16131058 
2241.515 16126417 16118199 16106369 16091550 16074358 16057063 16042417 
2244.890 16034612 16036743 16049292 16069647 16092684 16111733 16121499 
2248.265 16119540 16106714 16086735 16063217 16039185 16016528 15995385 
2251.640 15976684 15962798 15957745 15965445 15988372 16025329 16070541 
2255.016 16116135 16153241 16174458 16176557 16159361 16125489 16078345 
2258.391 16021341 15957331 15889311 15820544 15755123 15696922 15649414 
2261.766 15613795 15589890 15575706 15570074 15572409 15583880 15605312 
2265.141 15636636 15675109 15715441 15751101 15775805 15786011 15782127 
2268.517 15767662 15747322 15725747 15705718 15687682 15670644 15653400 
2271.892 15635263 15616577 15598546 15581923 15567155 15553967 15542394 
2275.267 15533019 15527043 15526150 15531645 15543527 15560115 15579484 
2278.642 15598992 15617470 15634954 15652541 15671570 15692594 15714685 
2282.018 15736157 15754057 15766734 15772851 15772266 15765395 15752545 
2285.393 15734438 15710803 15682047 15648831 15611700 15571654 15528863 
2288.768 15483193 15434267 15382119 15327024 15271080 15216686 15166691 
2292.143 15123151 15087061 15057353 15032656 15011253 14991806 14973869 
2295.519 14957475 14942522 14928394 14914197 14898731 14881449 14862625 
2298.894 14843185 14824327 14806706 14789942 14773212 14755181 14735162 
2302.269 14713363 14691358 14670725 14652939 14638270 14625831 14613803 
2305.644 14600884 14586560 14571141 14556237 14542942 14532492 14524578 
2309.020 14518788 14514334 14510977 14508853 14508784 14511080 14516115 
2312.395 14523345 14531670 14540304 14548870 14557298 14565933 14575150 
2315.770 14585018 14595127 14605098 14614900 14625145 14637448 14654481 
2319.145 14679397 14715385 14764951 14828373 14902572 14979870 15048229 
2322.521 15090251 15088228 15027168 14898423 14703800 14455411 14174812 
2325.896 13887039 13616791 13384331 13199881 13064915 12973072 12914358 
2329.271 12877426 12853910 12838825 12829884 12826163 12826880 12830873 
2332.646 12836948 12844661 12854524 12867562 12884832 12906336 12931015 
2336.021 12956754 12981812 13005436 13028108 13051359 13076524 13103672 
2339.397 13131675 13158519 13182119 13201794 13218394 13233902 13250641 
2342.772 13269736 13291327 13314526 13338579 13363726 13391781 13425236 
2346.147 13466999 13518336 13578945 13646127 13716464 13785651 13849718 
2349.522 13905514 13950402 13982840 14002413 14010250 14009052 14002242 
2352.898 13994235 13988349 13986398 13988486 13992729 13997143 14000531 
2356.273 14003064 14006759 14014116 14027360 14046662 14070584 14096151 
2359.648 14119871 14139176 14152870 14161530 14166938 14171081 14176592 
2363.023 14186075 14201652 14225275 14258281 14300638 14350875 14406223 
2366.399 14463735 14520741 14576589 14631725 14687999 14746748 14808180 
2369.774 14871025 14932577 14989885 15041197 15086820 15128332 15168956 
2373.149 15211538 15258210 15310343 15368009 15431417 15500671 15576188 
2376.524 15658380 15747081 15841404 15940249 16042382 16146671 16253050 
2379.900 16361415 16472150 16585216 16700070 16815678 16930866 17044570 
2383.275 17155822 17263552 17366514 17463050 17550950 17628410 17694598 
2386.650 17750236 17797146 17838158 17876100 17912666 17947990 17980866 
2390.025 18009668 18032706 18048800 18058300 18061512 18059716 18054052 
2393.401 18045658 18036020 18027076 18020996 18020064 18025694 18038128 
2396.776 18056574 18079266 18104828 18132396 18162624 18196416 18235496 
2400.151 18280660 18332052 18388946 18450342 18515896 18586196 18662424 
2403.526 18746380 18839348 18942268 19054908 19176616 19306462 19443590 
2406.902 19586792 19734620 19885688 20037708 20188988 20338686 20486352 
2410.277 20633060 20779992 20927982 21076718 21225228 21371384 21513204 
2413.652 21648976 21777404 21897716 22008858 22109570 22198346 22273884 
2417.027 22335692 22384982 22423396 22453960 22478700 22499112 22515200 
2420.403 22526366 22531916 22532544 22529230 22524900 22522528 22524762 
2423.778 22533696 22550830 22576834 22612330 22657430 22712414 22776832 
2427.153 22850342 22932106 23022446 23122240 23233558 23359028 23500800 
2430.528 23659586 23834078 24021280 24216972 24417344 24620438 24825802 
2433.904 25034844 25249006 25470058 25698534 25934268 26176466 26424468 
2437.279 26678178 26937574 27203296 27475146 27753030 28036854 28326554 
2440.654 28622892 28926868 29239244 29560324 29889802 30226068 30567464 
2444.029 30912404 31260144 31609978 31962168 32315924 32670934 33026020 
2447.405 33380076 33732804 34084032 34434036 34782672 35128676 35470064 
2450.780 35803628 36127044 36438296 36736944 37023704 37300004 37566836 
2454.155 37824320 38071364 38305952 38525572 38727796 38910520 39071888 
2457.530 39210108 39323740 39411384 39472232 39506272 39513820 39496000 
2460.906 39453548 39387008 39296352 39181532 39042412 38880044 38696608 
2464.281 38496280 38284132 38066556 37850748 37643832 37452580 37283508 
2467.656 37141208 37029372 36949672 36901944 36885136 36897616 36937872 
2471.031 37005448 37099884 37221556 37369408 37541728 37734936 37944500 
2474.406 38165452 38393504 38624680 38856196 39085336 39309336 39524960 
2477.782 39728528 39916316 40085620 40233908 40360024 40463336 40543248 
2481.157 40599524 40632380 40641912 40628884 40594868 40542084 40473192 
2484.532 40391588 40300176 40202244 40099936 39995620 39889692 39782196 
2487.907 39671636 39556172 39434096 39304040 39165140 39017764 38862252 
2491.283 38698532 38525680 38342000 38145120 37933144 37704760 37459984 
2494.658 37199896 36926184 36640392 36343468 36035912 35718036 35390148 
2498.033 35053056 34708224 34357320 34002004 33643756 33283904 32923606 
2501.408 32564636 32209214 31859216 31516374 31181744 30855516 30536998 
2504.784 30225890 29922210 29627362 29343208 29071886 28815110 28573276 
2508.159 28345476 28130276 27925958 27731202 27545606 27369090 27201638 
2511.534 27043032 26892732 26750450 26616490 26492188 26379400 26279664 
2514.909 26193816 26121146 26059468 26006274 25959628 25919214 25886014 
2518.285 25862064 25849510 25848418 25857774 25875180 25897936 25924174 
2521.660 25953790 25987488 26026678 26072062 26123292 26178542 26235840 
2525.035 26293180 26349366 26403800 26456232 26505606 26550654 26589050 
2528.410 26618746 26638192 26646822 26644428 26631532 26607682 26572246 
2531.786 26524378 26464332 26393482 26314866 26232918 26151902 26074806 
2535.161 26003072 25936096 25872686 25811532 25752602 25696636 25645032 
2538.536 25598742 25558256 25522026 25488820 25457128 25426282 25397192 
2541.911 25370848 25348260 25329434 25313348 25298068 25281948 25263756 
2545.287 25243246 25221370 25198898 25176566 25154060 25130888 25106242 
2548.662 25080124 25053026 25026208 25001290 24979494 24961384 24946540 
2552.037 24934012 24922502 24910816 24897870 24883308 24867062 24849904 
2555.412 24832748 24817276 24804752 24795982 24790614 24786616 24781214 
2558.788 24771040 24753080 24725720 24688998 24644354 24594034 24540668 
2562.163 24486012 24430980 24375776 24320370 24264516 24208950 24154230 
2565.538 24101724 24052484 24007694 23968476 23935810 23910392 23892642 
2568.913 23882456 23878850 23880670 23886166 23893868 23902726 23912176 
2572.289 23922330 23933498 23946592 23962280 23981502 24004998 24033852 
2575.664 24067998 24107470 24150624 24194970 24237924 24276990 24310664 
2579.039 24339644 24365402 24390882 24418992 24452114 24491762 24538424 
2582.414 24591964 24651752 24716986 24786720 24859448 24933626 25007536 
2585.790 25079984 25150374 25219192 25287918 25358516 25432570 25510816 
2589.165 25593470 25679830 25768846 25859498 25950660 26041348 26130296 
2592.540 26216306 26297932 26374610 26446124 26513672 26578480 26642032 
2595.915 26705238 26767998 26829744 26889594 26947234 27003150 27058796 
2599.291 27115996 27176592 27241606 27311536 27386310 27465580 27549384 
2602.666 27637866 27731168 27829400 27932002 28038268 28147316 28258478 
2606.041 28372146 28488780 28609338 28734708 28865036 28999902 29138602 
2609.416 29280324 29424430 29570466 29717580 29864638 30009862 30151194 
2612.792 30286638 30414910 30535648 30649558 30757558 30860710 30959652 
2616.167 31054418 31144508 31229628 31309604 31384714 31455382 31522288 
2619.542 31585820 31646260 31703926 31759248 31812828 31865596 31917944 
2622.917 31970370 32022194 32073170 32122296 32169678 32215354 32260458 
2626.292 32305680 32351800 32398562 32446082 32493428 32540388 32586924 
2629.668 32633748 32681938 32732312 32785404 32841154 32899014 32957778 
2633.043 33016868 33074896 33131252 33185218 33236294 33284300 33329126 
2636.418 33371452 33412352 33452894 33494230 33537324 33582680 33630440 
2639.793 33680524 33733092 33788532 33846552 33907628 33970904 34035652 
2643.169 34100948 34165968 34230244 34294492 34359292 34425928 34495124 
2646.544 34567484 34642836 34721220 34802416 34886712 34974260 35065412 
2649.919 35160216 35258276 35358840 35460860 35563700 35666524 35769412 
2653.294 35872320 35975580 36079476 36184156 36289972 36397332 36506480 
2656.670 36617676 36731316 36847044 36964284 37082308 37200728 37318928 
2660.045 37437048 37555276 37674224 37793816 37914488 38035700 38157492 
2663.420 38279752 38402840 38526944 38652568 38780000 38909356 39040636 
2666.795 39173588 39308140 39444292 39581868 39720904 39861400 40003324 
2670.171 40146272 40290616 40436280 40583556 40732700 40883972 41037336 
2673.546 41192868 41350312 41509820 41671468 41835064 42000300 42166476 
2676.921 42332600 42497876 42661720 42824380 42986768 43150760 43318288 
2680.296 43491116 43670576 43857328 44051792 44254044 44463912 44681820 
2683.672 44907624 45141120 45382060 45629872 45884156 46145256 46413452 
2687.047 46689816 46974700 47268712 47570868 47880452 48195660 48515436 
2690.422 48839040 49166412 49498152 49834904 50177156 50524968 50878424 
2693.797 51237312 51601572 51971476 52347232 52729180 53117348 53511332 
2697.173 53910928 54315512 54724944 55139236 55558372 55982396 56410568 
2700.548 56841996 57275704 57709964 58143900 58576408 59006616 59433944 
2703.923 59857436 60276052 60688472 61093172 61488316 61871896 62242016 
2707.298 62597184 62935516 63256248 63559040 63844048 64112140 64364076 
2710.674 64601236 64824140 65033376 65229088 65411792 65581388 65738060 
2714.049 65881716 66011884 66127428 66227288 66309496 66372380 66414156 
2717.424 66433692 66430448 66404776 66358024 66292592 66212044 66120864 
2720.799 66023416 65924712 65828852 65739640 65660156 65592832 65540196 
2724.175 65504284 65487140 65490492 65515688 65563008 65632484 65723488 
2727.550 65835132 65966636 66117280 66286340 66472844 66675580 66892668 
2730.925 67122208 67362112 67610520 67865656 68126200 68390720 68657528 
2734.300 68924648 69190232 69452200 69708968 69959608 70203432 70440184 
2737.676 70669688 70891864 71106664 71314424 71515720 71711480 71903024 
2741.051 72091800 72279176 72466712 72656008 72848752 73046960 73252784 
2744.426 73468048 73694336 73932280 74181840 74441888 74710944 74986752 
2747.801 75266344 75546552 75823320 76092128 76348544 76588272 76807688 
2751.177 77005056 77179488 77331368 77461800 77572544 77664776 77739792 
2754.552 77797856 77839392 77863648 77869592 77855480 77818784 77757032 
2757.927 77667832 77549184 77399744 77219144 77007112 76763912 76490024 
2761.302 76186104 75853584 75494240 75111000 74707288 74287272 73855416 
2764.677 73416256 72974360 72534408 72101192 71679232 71273152 70886752 
2768.053 70523424 70185680 69875584 69594416 69343280 69122744 68932920 
2771.428 68772960 68641768 68537040 68456424 68397192 68356272 68331032 
2774.803 68318464 68315288 68317880 68322152 68323000 68316336 68297992 
2778.178 68264408 68212616 68140312 68045392 67926352 67782760 67614888 
2781.554 67424840 67216344 66994412 66764400 66532044 66302092 66078000 
2784.929 65861972 65654532 65455088 65261780 65071940 64882188 64688712 
2788.304 64488172 64277700 64055808 63822128 63577412 63323484 63062384 
2791.679 62795856 62526160 62255248 61985656 61720280 61462700 61216680 
2795.055 60986276 60774712 60584580 60417724 60275100 60157220 60064108 
2798.430 59995472 59950392 59928216 59927684 59947276 59986000 60042420 
2801.805 60115396 60203576 60305708 60419852 60543856 60675636 60813056 
2805.180 60954440 61098356 61244112 61390448 61536376 61679836 61818908 
2808.556 61950380 62071004 62177244 62265612 62332580 62375608 62392404 
2811.931 62382152 62345124 62282592 62196668 62089732 61964180 61822312 
2815.306 61666316 61499232 61324580 61146872 60972516 60808020 60660508 
2818.681 60537308 60443996 60385888 60366736 60388932 60453556 60560012 
2822.057 60706576 60889860 61105068 61347056 61609456 61886224 62171356 
2825.432 62459196 62744132 63021168 63284928 63530892 63755124 63954332 
2828.807 64126856 64271980 64390324 64483560 64554600 64606928 64644264 
2832.182 64670952 64691180 64708524 64726636 64748288 64776020 64812520 
2835.558 64860188 64921976 65001132 65101236 65226472 65381052 65570252 
2838.933 65799512 66075800 66406204 66799456 67265464 67814400 68458096 
2842.308 69210088 70084352 71097616 72268376 73614992 75156104 76905848 
2845.683 78869704 81039128 83386072 85860104 88380672 90845696 93136336 
2849.059 95119704 96675240 97702432 98132680 97942576 97151584 95820976 
2852.434 94036832 91907000 89547560 87064400 84558680 82115328 79797368 
2855.809 77652144 75707624 73973696 72446704 71112016 69948632 68930864 
2859.184 68033224 67232432 66506668 65838956 65215148 64623804 64057192 
2862.560 63509764 62977576 62459160 61953976 61463276 60989940 60538644 
2865.935 60116160 59730092 59389156 59101744 58873712 58709144 58608340 
2869.310 58568524 58583424 58644740 58742444 58864456 58998644 59132536 
2872.685 59254652 59355800 59430260 59475932 59494816 59491624 59473536 
2876.061 59446672 59417760 59391396 59370996 59359488 59359068 59371716 
2879.436 59398920 59441544 59499640 59572568 59659152 59758492 59869948 
2882.811 59993188 60128108 60274032 60430100 60594408 60765032 60940372 
2886.186 61119256 61301648 61488236 61679760 61877856 62083352 62297428 
2889.562 62521720 62757992 63009256 63279556 63573540 63897512 64258836 
2892.937 64665296 65126716 65653144 66253804 66937120 67707400 68564272 
2896.312 69499288 70496456 71530216 72564592 73559496 74470568 75254176 
2899.687 75876752 76316232 76567680 76643336 76571864 76393656 76152024 
2903.063 75893048 75657176 75476656 75377992 75380352 75497232 75739448 
2906.438 76114200 76627080 77282872 78085776 79040744 80153960 81432392 
2909.813 82882272 84507040 86304720 88263800 90361728 92566440 94832192 
2913.188 97103600 99321520 101420072 103335064 105011408 106402864 107480384 
2916.563 108233976 108672616 108820352 108711048 108384144 107874808 
2919.457 107210648 106409512 105477944 104413256 103207592 101853392 
2922.350 100347232 98694664 96911752 95026456 93076928 91104392 89153392 
2925.725 87265152 85470960 83795616 82252304 80844824 79569152 78415592 
2929.100 77371360 76421552 75552400 74751360 74007872 73314168 72665136 
2932.475 72057304 71489312 70960096 70468936 70014736 69595536 69208264 
2935.851 68848896 68512088 68191408 67880176 67571184 67258160 66936812 
2939.226 66604928 66263608 65916232 65569328 65230512 64907776 64608776 
2942.601 64339600 64103692 63901120 63728420 63578068 63438660 63297496 
2945.976 63141392 62959684 62746928 62504156 62239648 61966624 61702752 
2949.352 61465792 61270396 61127116 61040616 61009420 61027116 61084320 
2952.727 61169492 61270324 61375488 61474800 61559092 61622056 61658564 
2956.102 61665896 61642676 61589444 61508128 61401820 61274712 61132112 
2959.477 60978884 60820444 60661080 60504248 60352420 60207308 60070348 
2962.853 59942632 59825264 59719296 59625740 59545128 59477716 59423460 
2966.228 59382088 59353064 59335972 59329704 59333124 59344556 59362676 
2969.603 59386268 59415556 59451804 59497440 59555540 59628668 59718156 
2972.978 59823744 59943092 60072208 60205440 60336504 60457668 60561344 
2976.354 60639516 60684172 60688172 60646372 60555856 60416808 60232696 
2979.729 60009888 59756972 59484176 59202740 58923084 58654792 58405544 
2983.104 58179056 57975776 57792392 57621836 57454904 57281984 57094808 
2986.479 56887772 56658940 56409968 56144992 55869216 55586880 55299864 
2989.854 55006312 54701416 54377360 54026300 53641932 53221760 52768652 
2993.230 52290568 51799720 51309240 50830744 50372576 49936852 49521176 
2996.605 49119104 48723224 48326632 47925480 47518708 47108220 46696752 
2999.980 46287888 45883712 45485876 45094800 44711052 44334804 43967016 
3003.355 43608332 43259644 42921440 42594208 42278216 41974060 41682408 
3006.731 41404104 41139280 40887612 40647768 40417984 40196468 39981816 
3010.106 39773008 39569820 39372312 39180188 38993040 38809676 38628740 
3013.481 38449104 38270416 38092632 37916516 37743356 37574388 37410756 
3016.856 37253468 37103276 36960456 36825044 36696632 36574024 36455956 
3020.232 36340980 36228092 36116848 36007940 35902336 35801796 35707496 
3023.607 35620304 35540864 35469344 35406252 35352656 35310028 35280128 
3026.982 35264568 35263452 35275564 35297484 35324080 35348736 35363904 
3030.357 35362936 35340144 35291912 35217096 35117180 34995804 34857556 
3033.733 34707688 34551232 34391748 34232144 34073996 33918452 33765932 
3037.108 33617332 33473402 33334956 33202778 33077578 32959312 32848012 
3040.483 32742922 32643002 32546960 32453760 32362402 32272450 32183986 
3043.858 32098070 32015380 31937308 31864316 31796750 31734046 31675804 
3047.234 31621278 31570498 31523608 31481388 31444054 31411532 31382896 
3050.609 31356614 31330648 31303302 31273424 31240630 31205206 31168180 
3053.984 31130732 31094174 31059650 31028190 31000396 30976484 30956450 
3057.359 30939904 30926348 30915250 30906782 30901586 30900660 30905108 
3060.735 30915604 30932290 30954528 30981536 31012460 31046910 31085276 
3064.110 31128310 31176404 31229664 31287062 31346676 31406370 31463720 
3067.485 31516944 31564512 31605772 31639698 31665858 31683788 31693480 
3070.860 31695514 31691558 31683430 31673166 31662650 31652994 31644474 
3074.236 31637386 31631540 31627298 31625268 31625908 31629332 31635210 
3077.611 31642266 31648860 31653314 31654596 31651958 31646010 31637348 
3080.986 31626978 31616110 31605810 31597044 31590808 31587672 31587850 
3084.361 31590986 31596686 31603884 31612366 31622168 31634000 31649358 
3087.737 31669210 31694158 31723850 31757142 31792402 31828266 31863886 
3091.112 31899116 31934526 31970512 32007496 32045488 32084334 32124254 
3094.487 32165750 32209926 32258068 32311212 32369468 32432050 32497536 
3097.862 32563600 32628712 32691620 32752354 32811240 32869384 32927786 
3101.238 32987482 33048976 33112336 33177496 33244162 33311810 33379932 
3104.613 33448062 33515886 33583252 33650092 33716332 33781832 33846520 
3107.988 33910140 33972480 34034040 34095572 34158152 34223000 34291196 
3111.363 34363488 34439524 34519012 34600816 34684216 34768348 34852208 
3114.739 34935296 35016672 35095228 35170276 35241204 35308376 35372532 
3118.114 35434940 35497064 35559668 35623220 35687964 35753148 35818524 
3121.489 35883764 35948620 36013020 36076848 36139608 36200936 36260868 
3124.864 36319476 36377480 36436068 36496320 36559316 36625608 36695444 
3128.240 36768496 36844736 36923192 37003176 37083676 37163512 37241592 
3131.615 37317088 37389880 37460776 37531144 37602932 37677908 37756836 
3134.990 37839936 37926420 38015088 38104788 38194432 38283768 38372184 
3138.365 38459932 38546460 38631780 38715412 38797428 38877720 38956616 
3141.740 39034368 39111444 39188096 39264944 39342600 39422088 39504240 
3145.116 39589820 39679044 39771052 39864524 39958348 40051356 40143436 
3148.491 40235432 40328720 40424968 40525024 40628776 40734956 40841888 
3151.866 40947212 41049280 41147220 41241032 41331508 41420256 41508652 
3155.241 41598092 41689372 41782532 41876992 41971468 42064544 42155156 
3158.617 42242716 42328328 42413256 42500108 42590956 42687272 42789128 
3161.992 42895800 43005316 43115740 43225568 43334212 43441900 43549428 
3165.367 43657096 43765412 43873384 43980032 44083808 44183532 44278552 
3168.742 44369260 44456684 44542656 44629084 44717628 44809016 44903252 
3172.118 44999088 45094652 45187888 45277236 45361684 45441104 45516416 
3175.493 45588320 45657880 45725424 45791288 45855796 45919324 45983048 
3178.868 46048320 46116332 46187672 46262380 46339160 46416696 46493728 
3182.243 46569740 46644732 46719700 46795236 46871892 46949300 47026832 
3185.619 47103748 47179904 47255632 47331812 47409120 47487952 47567652 
3188.994 47646920 47724060 47798140 47868836 47937020 48004552 48073612 
3192.369 48146128 48223728 48306780 48395112 48487648 48582984 48678892 
3195.744 48773380 48864216 48950028 49030400 49105860 49177804 49247940 
3199.120 49318348 49389880 49463172 49538148 49614732 49692924 49772732 
3202.495 49854524 49938116 50022356 50106128 50187944 50266916 50343028 
3205.870 50417224 50491100 50565544 50640860 50716260 50790184 50861476 
3209.245 50929948 50996604 51063796 51133900 51208416 51287536 51369312 
3212.621 51451444 51531092 51606648 51677924 51746412 51813940 51882416 
3215.996 51952544 52024700 52097876 52171476 52244860 52318152 52391600 
3219.371 52465776 52540708 52616064 52691432 52766220 52840120 52913396 
3222.746 52986348 53059500 53132964 53206924 53280864 53354740 53428436 
3226.122 53502000 53575804 53650628 53726704 53804480 53883732 53964128 
3229.497 54044572 54124360 54202244 54277400 54349492 54418704 54485564 
3232.872 54550888 54615624 54680636 54746216 54812672 54880116 54948812 
3236.247 55018948 55090748 55164216 55238828 55313752 55388048 55461228 
3239.623 55533220 55604540 55676288 55749556 55824716 55901476 55978812 
3242.998 56055788 56131648 56206044 56280004 56354620 56430868 56509056 
3246.373 56588804 56669248 56749060 56827532 56904544 56980324 57055812 
3249.748 57131620 57208116 57285424 57363236 57441360 57519692 57598116 
3253.124 57676776 57755528 57834144 57912736 57991380 58070148 58149468 
3256.499 58228872 58307916 58385000 58458648 58527304 58590284 58648424 
3259.874 58703152 58757204 58812628 58871172 58933216 58998416 59065680 
3263.249 59134244 59203424 59273456 59344100 59415936 59488772 59562344 
3266.625 59635852 59709144 59781840 59854016 59925404 59995624 60063992 
3270.000 60129744 60192540 60252488 60310500 60368068 60426404 60486996 
3273.375 60550256 60616352 60685084 60755924 60828756 60903620 60980484 
3276.750 61059648 61141112 61224996 61311608 61401400 61495300 61593840 
3280.125 61697288 61805388 61917368 62031976 62148224 62265612 62384372 
3283.501 62505112 62628528 62755196 62885576 63018984 63155532 63295156 
3286.876 63438164 63585088 63736632 63892676 64053276 64217388 64384020 
3290.251 64552716 64723560 64897544 65076096 65261164 65454200 65656072 
3293.626 65866752 66085912 66312128 66544056 66780516 67020468 67263880 
3297.002 67510872 67762584 68020128 68284456 68556360 68835736 69121736 
3300.377 69413680 69710136 70010488 70314840 70623568 70937160 71256952 
3303.752 71583736 71918040 72260392 72610848 72969696 73336376 73710192 
3307.127 74089528 74473352 74860280 75249752 75642576 76040104 76444192 
3310.503 76856800 77279072 77711264 78153160 78603696 79061528 79525704 
3313.878 79995264 80469088 80946464 81426280 81907904 82391072 82876256 
3317.253 83364200 83856136 84352856 84854992 85362296 85874760 86391792 
3320.628 86913448 87439008 87967840 88498704 89029448 89558024 90082768 
3324.004 90602792 91118456 91630848 92141216 92649776 93155720 93656576 
3327.379 94149464 94631528 95100568 95555824 95997016 96423800 96836256 
3330.754 97233520 97614440 97977904 98323160 98649136 98955008 99239528 
3334.129 99500392 99735792 99943864 100124080 100277024 100405056 100509864 
3337.505 100593032 100654936 100694248 100709160 100697128 100656608 
3340.398 100586552 100486312 100355376 100193088 99998584 99771056 99509768 
3343.773 99214712 98886056 98523896 98128112 97697992 97233232 96733944 
3347.148 96201640 95638912 95049504 94436992 93804928 93155344 92489728 
3350.523 91809280 91115224 90409304 89694264 88971976 88244320 87511632 
3353.899 86774064 86030648 85281808 84528896 83774560 83022648 82277448 
3357.274 81542440 80820920 80114552 79424440 78751192 78094896 77455112 
3360.649 76831488 76222984 75628576 75046840 74477208 73919400 73373720 
3364.024 72840528 72320544 71813960 71321256 70842248 70377600 69927968 
3367.400 69494232 69077168 68676848 68292256 67921632 67562128 67210616 
3370.775 66864452 66521576 66180668 65841348 65503360 65166792 64831100 
3374.150 64495788 64159580 63821592 63480384 63135380 62786052 62432572 
3377.525 62075440 61715316 61352592 60987572 60619476 60247196 59869452 
3380.901 59484556 59091420 58688848 58276764 57855152 57424720 56986784 
3384.276 56543056 56096168 55649244 55205380 54767304 54336728 53913780 
3387.651 53497428 53085708 52676212 52266984 51856840 51445104 51032564 
3391.026 50620120 50209144 49801308 49398160 49001508 48612368 48231500 
3394.402 47858180 47491240 47128528 46768040 46408436 46049608 45692628 
3397.777 45339432 44991812 44650752 44315720 43985272 43656984 43329052 
3401.152 43000308 42670236 42339688 42010008 41681716 41355488 41031472 
3404.527 40710320 40392748 40080240 39774280 39476444 39187296 38905876 
3407.903 38630004 38357452 38085616 37812576 37538044 37262820 36988596 
3411.278 36717544 36451524 36192080 35939476 35693536 35453128 35217312 
3414.653 34984852 34755460 34529132 34306400 34087796 33873420 33662912 
3418.028 33454828 33247170 33038214 32826784 32613390 32399706 32188836 
3421.404 31983708 31786590 31598148 31417518 31242768 31071608 30902048 
3424.779 30733444 30565758 30399806 30236510 30076368 29919336 29765092 
3428.154 29613314 29463754 29316550 29171768 29029446 28888620 28748584 
3431.529 28608418 28467020 28324892 28182282 28040528 27900942 27764156 
3434.905 27630486 27499468 27370396 27242702 27115926 26990000 26864744 
3438.280 26739948 26615046 26489052 26360950 26229750 26095038 25957552 
3441.655 25818178 25679058 25542512 25410332 25283984 25163470 25047726 
3445.030 24934714 24821942 24706920 24588634 24467294 24344200 24221912 
3448.406 24103268 23989764 23881964 23778846 23678166 23577616 23475338 
3451.781 23369938 23261732 23151176 23039356 22927146 22815208 22703720 
3455.156 22592992 22482852 22373888 22266000 22159046 22052816 21946924 
3458.531 21840812 21734798 21628742 21523684 21420080 21318378 21218338 
3461.906 21119048 21019818 20919672 20818540 20716840 20615512 20515598 
3465.282 20418104 20323478 20231718 20142478 20054920 19968526 19882324 
3468.657 19795546 19707782 19618580 19527732 19435656 19342976 19250106 
3472.032 19157812 19066472 18975914 18885822 18796132 18706526 18617356 
3475.407 18528862 18441284 18355038 18269706 18184978 18100614 18016542 
3478.783 17932762 17849480 17766976 17685452 17604670 17525006 17446598 
3482.158 17370170 17296996 17228008 17163888 17104122 17047258 16991608 
3485.533 16935206 16876334 16814884 16751997 16688706 16627148 16568383 
3488.908 16513001 16460896 16411789 16365269 16321575 16281292 16244588 
3492.284 16212016 16183160 16156679 16131196 16105544 16078655 16050564 
3495.659 16021719 15993735 15968263 15947467 15932411 15924059 15922409 
3499.034 15926052 15932893 15940798 15947260 15950836 15950903 15948772 
3502.409 15946539 15947089 15952932 15966304 15987685 16017113 16053762 
3505.785 16097017 16145777 16199393 16257040 16317790 16380616 16444515 
3509.160 16509250 16575165 16643224 16714945 16791396 16873234 16960152 
3512.535 17051016 17144102 17237970 17331100 17422420 17511208 17596666 
3515.910 17677552 17753238 17822932 17886424 17944432 17997858 18047764 
3519.286 18094360 18137302 18174786 18204674 18224196 18231142 18223990 
3522.661 18202290 18166286 18117264 18056434 17984700 17902582 17810160 
3526.036 17706920 17592732 17467742 17332788 17189776 17041160 16889114 
3529.411 16735779 16582532 16429512 16276510 16123150 15968297 15811747 
3532.787 15652575 15489924 15322974 15151526 14975137 14795803 14616098 
3536.162 14439859 14270813 14112135 13964362 13826594 13696083 13568792 
3539.537 13441469 13312304 13180446 13047296 12914528 12783985 12657335 
3542.912 12535395 12417546 12303206 12191316 12080783 11970143 11859564 
3546.288 11748911 11639239 11531569 11427565 11327838 11232859 11141368 
3549.663 11051869 10962320 10871192 10777808 10683051 10588893 10497809 
3553.038 10411768 10332225 10258802 10190548 10125934 10063467 10002092 
3556.413 9941405 9881200 9821648 9762409 9703381 9644158 9584537 9524280 
3560.271 9464032 9403860 9344847 9286960 9230332 9174286 9117606 9058903 
3564.128 8995979 8926807 8849192 8762835 8668652 8569725 8471327 8379267 
3567.986 8298339 8231406 8178562 8137474 8104423 8075257 8046295 8014770 
3571.843 7979198 7938904 7894532 7847093 7798277 7750005 7703392 7659887 
3575.700 7619757 7582295 7546522 7510685 7473469 7434165 7392709 7349808 
3579.558 7307281 7266679 7229382 7196704 7169215 7146613 7128424 7113267 
3583.415 7099290 7084437 7065544 7039747 7003986 6956913 6897929 6829798 
3587.273 6757032 6685996 6623348 6573895 6539786 6520344 6512271 6510691 
3591.130 6510119 6506284 6495219 6475074 6445916 6409765 6369113 6327959 
3594.988 6289365 6255513 6227513 6205531 6188457 6175215 6164124 6153740 
3598.845 6142448 6129375 6114153 6097317 6080181 6064489 6051721 6042952 
3602.702 6038148 6036871 6037913 6039794 6040432 6038282 6031361 6018124 
3606.560 5996790 5967228 5930412 5889267 5847991 5810817 5781233 5759273 
3610.417 5742486 5726807 5707468 5681618 5649057 5613006 5578737 5551553 
3614.275 5534974 5528934 5530444 5534068 5533598 5523933 5502389 5468432 
3618.132 5424713 5375632 5326455 5282583 5248072 5224731 5212927 5211150 
3621.990 5217555 5229795 5246563 5266417 5289257 5314547 5341315 5367111 
3625.847 5387339 5395962 5385897 5351714 5291773 5211854 5125814 5050149 
3629.704 5000071 4981436 4990552 5017065 5050317 5079984 5099697 5107307 
3633.562 5103821 5093159 5080085 5067815 5058128 5050719 5043579 5035098 
3637.419 5025210 5014182 5004093 4996887 4994138 4995814 5001680 5010193 
3641.277 5020484 5032417 5046864 5064664 5086924 5112772 5140600 5166753 
3645.134 5186570 5195725 5190963 5170643 5135336 5087527 5030875 4969236 
3648.991 4907002 4848698 4799313 4764103 4747923 4752881 4777838 4818141 
3652.849 4867126 4916084 4957036 4983580 4991758 4982139 4959315 4931533 
3656.706 4908108 4896346 4899496 4916519 4943396 4974028 5003054 5026417 
3660.564 5042037 5050786 5055312 5059535 5067078 5080521 5100367 5125914 
3664.421 5156493 5191365 5231673 5279632 5336552 5403879 5481216 5568266 
3668.279 5667687 5788419 5946603 6165906 6470634 6876081 7385227 7989998 
3672.136 8676933 9431355 10237260 11072942 11893378 12624076 13166614 
3675.511 13417274 13314833 12864968 12133252 11212084 10191769 9154050 
3678.886 8163335 7273518 6526768 5943210 5520678 5236033 5055680 4943430 
3682.744 4870913 4822095 4789195 4770468 4764371 4766549 4769832 4766448 
3686.601 4749531 4716034 4667468 4609665 4549692 4494081 4446510 4408417 
3690.459 4379833 4360722 4351150 4350949 4358981 4373105 4390309 4408116 
3694.316 4424718 4439648 4453305 4465993 4477777 4488657 4497830 4505028 
3698.174 4510452 4514168 4515876 4514402 4508175 4495319 4475835 4451498 
3702.031 4426526 4406442 4396099 4398041 4411798 4435262 4464419 4496089 
3705.888 4527661 4557762 4585253 4608861 4626275 4635049 4632403 4617199 
3709.746 4589907 4553844 4512930 4472186 4435865 4407413 4388702 4380737 
3713.603 4383581 4396033 4416116 4440049 4463884 4482999 4494382 4496826 
3717.461 4492072 4483300 4474764 4469675 4468771 4470981 4473927 4475199 
3721.318 4473860 4470445 4466294 4462344 4459164 4455214 4448184 4436802 
3725.176 4420434 4401321 4383883 4373105 4374176 4389975 4420568 4463081 
3729.033 4513432 4565530 4612578 4649047 4669946 4673061 4659999 4634915 
3732.890 4603402 4570017 4537237 4504124 4469909 4434024 4399514 4371633 
3736.748 4356438 4357375 4374043 4402459 4436668 4471416 4503153 4530875 
3740.605 4555083 4575743 4590744 4594261 4578422 4536065 4466797 4381874 
3744.463 4303897 4258756 4261834 4311359 4391681 4482497 4564325 4621854 
3748.320 4647206 4639871 4606416 4557829 4505664 4458092 4418927 4389506 
3752.177 4370997 4365575 4375382 4400518 4438141 4482363 4525719 4562148 
3756.035 4587496 4600255 4602197 4596571 4586458 4573868 4560106 4545942 
3759.892 4533721 4526925 4528866 4541824 4564392 4591950 4617836 4635216 
3763.750 4639871 4631499 4614621 4596069 4583545 4581804 4590811 4606517 
3767.607 4622189 4631298 4629490 4615458 4591548 4563220 4537036 4518018 
3771.465 4509649 4512494 4524581 4542561 4562584 4580899 4594897 4604440 
3775.322 4610401 4615157 4620481 4626877 4632503 4634781 4630092 4617132 
3779.179 4597140 4574638 4555418 4544435 4543397 4550529 4560976 4569314 
3783.037 4570787 4563521 4548353 4528599 4508376 4491268 4478915 4471784 
3786.894 4468838 4469173 4471751 4476270 4482229 4489092 4496357 4503890 
3790.752 4512293 4522907 4536768 4554715 4575810 4597274 4614788 4624198 
3794.609 4622390 4609329 4587965 4564525 4546110 4538107 4542393 4556322 
3798.467 4574102 4587731 4588769 4571222 4533118 4479250 4420066 4370394 
3802.324 4342850 4344055 4371901 4417923 4470445 4516713 4545909 4551634 
3806.181 4534592 4501479 4465759 4441255 4436936 4454845 4490331 4535864 
3810.039 4583578 4627882 4665425 4696071 4720824 4739850 4752312 4755360 
3813.896 4744942 4718178 4675674 4622624 4570252 4531344 4515240 4524648 
3817.754 4555050 4595868 4633642 4656315 4654071 4623595 4570252 4507506 
3821.611 4453874 4423647 4423178 4448418 4489829 4534257 4570888 4592954 
3825.469 4598312 4590008 4574671 4560206 4552237 4552974 4560976 4572528 
3829.326 4583947 4591950 4595734 4596437 4596203 4597643 4603402 4614788 
3833.183 4631700 4653100 4676444 4698215 4714125 4720120 4713388 4693124 
3837.041 4662478 4626576 4592653 4566970 4552371 4547750 4549592 4553241 
3840.898 4554179 4550262 4541121 4527862 4512695 4497931 4485979 4479049 
3844.756 4478748 4486012 4501212 4523175 4549726 4578623 4607454 4635149 
3848.613 4661808 4688535 4715900 4742899 4765410 4775259 4763031 4719216 
3852.470 4639972 4533219 4419296 4323674 4266619 4254975 4282011 4334484 
3856.328 4398208 4462411 4520094 4567405 4603134 4627447 4641144 4645096 
3860.185 4641043 4631666 4619644 4607789 4598045 4589673 4581201 4570955 
3864.043 4558063 4544536 4535462 4535663 4548521 4573500 4604809 4632838 
3867.900 4647942 4641680 4611238 4561679 4505798 4459197 4433455 4432149 
3871.758 4449422 4475634 4499236 4512126 4512260 4502886 4491335 4486447 
3875.615 4494081 4515507 4547281 4582808 4614453 4635652 4642216 4633207 
3879.472 4611506 4583578 4556757 4538543 4533420 4542259 4561981 4586726 
3883.330 4609665 4623763 4624064 4609396 4583511 4554715 4533118 4527159 
3887.187 4540049 4569113 4606751 4643990 4671018 4680999 4670717 4642450 
3891.045 4603369 4563387 4531980 4515507 4515575 4530239 4555418 4587162 
3894.902 4621787 4656885 4690679 4721661 4748091 4768391 4781255 4786046 
3898.760 4783734 4776666 4767152 4756867 4746315 4733821 4717106 4693793 
3902.617 4662947 4626107 4587764 4552739 4526590 4512762 4511925 4522170 
3906.474 4540652 4563956 4589405 4615458 4640977 4665492 4688836 4710139 
3910.332 4729232 4745512 4759648 4772646 4786247 4801222 4817739 4834592 
3914.189 4849100 4857644 4857744 4847659 4828293 4802663 4775292 4750971 
3918.047 4733218 4723604 4721896 4726887 4736366 4748560 4762361 4776264 
3921.904 4789028 4799212 4805075 4805645 4800954 4792612 4783399 4776599 
3925.761 4775091 4780116 4791239 4806248 4822531 4837205 4847827 4852853 
3929.619 4852015 4845414 4833721 4817974 4800150 4782327 4766984 4756365 
3933.476 4751608 4752613 4757839 4764941 4771674 4776632 4779614 4781825 
3937.334 4784940 4790602 4799647 4811072 4823200 4833017 4838077 4836502 
3941.191 4827690 4812881 4794656 4776599 4761993 4754087 4754288 4762663 
3945.049 4777369 4795158 4812278 4825210 4831409 4830236 4823100 4812312 
3948.906 4800854 4791272 4784572 4781222 4780351 4781121 4783131 4787118 
3952.763 4793048 4801323 4811675 4822899 4833185 4841192 4845850 4847592 
3956.621 4847625 4847625 4849267 4854126 4862201 4873024 4885589 4898122 
3960.478 4908946 4916821 4920775 4920842 4917960 4913704 4910286 4909616 
3964.336 4912766 4919837 4929824 4940782 4950568 4958243 4963438 4966890 
3968.193 4969839 4973325 4977581 4982407 4986999 4990485 4992798 4994674 
3972.051 4997188 5001546 5008115 5017031 5027221 5037948 5047769 5056518 
3975.908 5064095 5070263 5074855 5077571 5077705 5075090 5069793 5062854 
3979.765 5055680 5049546 5045523 5043914 5044317 5045758 5047132 5047468 
3983.623 5046462 5044015 5040495 5036808 5033557 5031981 5033322 5037747 
3987.480 5045657 5056150 5067815 5079113 5088466 5094668 5097820 5098289 
3991.338 5096579 5093159 5087930 5080722 5071101 5059971 5048071 5037378 
3995.195 5029601 5025411 5025042 5027489 5030439 5032450 5032484 5030171 
3999.052 5026316 5021891 5017702 5014216 
##END=
