
##TITLE=Z351_1_c
##JCAMP-DX=5.01  $$ Nicolet v. 1
##DATATYPE=INFRARED SPECTRUM
##ORIGIN=UniL
##OWNER=Nicolet
##LONGDATE=2011/09/13
##TIME=10:58:53
##SPECTROMETER/DATA SYSTEM=Nicolet iS5
##DATA PROCESSING=
Ratio against background
%Transmittance->Absorbance
Truncated
ElementMultiply or ElementDivide
##COMMENTS=
Number of sample scans: 32
Collection length: 51.17 sec
Sample gain: 2.0
Background collected on: Mar Sep 13 10:14:34 2011 (GMT+02:00);
Number of background scans: 32
Background gain: 2.0
Sample spacing:  1.000
Number of scan points: 12415
Resolution points: 8192
Number of FFT points: 65536
Apodization: N-B fort;
Phase correction: Mertz;
Laser frequency: 15798.0 cm-1
Number of rejected sample scans: 0
Number of rejected background scans: 0
Bench serial number: ASB1000141;
##RESOLUTION=4.000
##XUNITS=1/CM
##YUNITS=ABSORBANCE
##FIRSTX=649.893372
##LASTX=4000.122314
##FIRSTY=0.115220
##MAXX=4000.122314
##MINX=649.893372
##MAXY=0.336390
##MINY=-0.004126
##XFACTOR=1.000000
##YFACTOR=1.000000E-009
##NPOINTS=6950
##DELTAX=0.482117
##ZPD=6100
##XYDATA=(X++(Y..Y))
649.893 115219904 114740248 114322640 113993864 113754016 113585744 
652.786 113470080 113403864 113404848 113506008 113738944 114118168 
655.679 114633840 115259824 115967232 116742992 117597360 118557840 
658.571 119655592 120908072 122313680 123857920 125528128 127327680 
661.464 129279048 131412864 133752688 136299344 139033360 141927536 
664.357 144970144 148174496 151556784 155102416 158700864 162072432 
667.250 164800240 166433408 166699088 165652672 163619920 161008592 
670.142 158124960 155148640 152147184 149130144 146108208 143114448 
673.035 140196624 137410928 134791824 132344560 130053936 127898352 
675.928 125863896 123951752 122171336 120528232 119016192 117613952 
678.820 116292824 115026144 113801296 112619264 111489320 110418736 
681.713 109403560 108427192 107467616 106504432 105530624 104554192 
684.606 103594128 102672016 101801616 100986640 100221264 99496728 98805936 
687.981 98147552 97523512 96933496 96370512 95818456 95254528 94657160 
691.355 94011944 93315840 92577144 91812144 91039912 90276968 89538192 
694.730 88837392 88187320 87603080 87098776 86685264 86368664 86148616 
698.105 86019736 85973696 86002416 86100088 86262488 86486072 86765456 
701.480 87092456 87457568 87851208 88266848 88702112 89157384 89632392 
704.855 90123336 90620184 91107624 91571352 92001096 92395520 92763232 
708.229 93119632 93482888 93869656 94298056 94788944 95370440 96082368 
711.604 96969040 98068640 99398784 100939528 102625016 104341168 105952552 
714.979 107319192 108326152 108913160 109079632 108886848 108437016 
717.872 107868736 107333832 106972232 106916920 107271264 108094728 
720.765 109393328 111100104 113073544 115087424 116873200 118163160 
723.657 118725392 118437136 117306112 115480744 113204808 110772224 
726.550 108466872 106486568 104938632 103835112 103121128 102707232 
729.443 102503448 102443632 102482520 102593536 102758608 102957680 
732.335 103169440 103376816 103570152 103751584 103931160 104120192 
735.228 104324440 104540368 104758216 104968328 105167192 105360152 
738.121 105558512 105773952 106012352 106270344 106538056 106804192 
741.013 107063208 107316352 107571088 107834464 108109856 108393376 
743.906 108677472 108954672 109223800 109489536 109760096 110041032 
746.799 110330088 110615792 110882088 111115264 111309336 111469232 
749.692 111606608 111733744 111856152 111970240 112066216 112135392 
752.584 112175720 112195160 112208456 112231712 112274960 112339928 
755.477 112421216 112512144 112610344 112719936 112849984 113008848 
758.370 113199816 113418448 113655088 113900136 114148280 114401408 
761.262 114665768 114946784 115246040 115559296 115881216 116210768 
764.155 116559648 116952952 117432928 118052744 118865216 119919248 
767.048 121242960 122830128 124624160 126511024 128327040 129864888 
769.940 130931016 131391824 131218640 130515144 129501312 128470432 
772.833 127680840 127297432 127328512 127627984 127927128 127914984 
775.726 127352912 126116408 124239288 121873680 119244440 116568576 
778.619 113994632 111597008 109370824 107264728 105209664 103150320 
781.511 101058256 98931872 96791576 94670552 92609376 90647120 88820848 
784.886 87162880 85695152 84430848 83372904 82517024 81854456 81377360 
788.261 81081536 80967736 81041088 81308824 81779608 82463136 83370776 
791.636 84518752 85928176 87622416 89624856 91950928 94601904 97558144 
795.010 100778192 104196712 107723024 111256760 114686872 117906008 
797.903 120836256 123440704 125746280 127843904 129888120 132065400 
800.796 134540448 137423200 140706256 144243584 147722320 150708096 
803.689 152726864 153318144 152184688 149261088 144749760 139071888 
806.581 132776048 126431000 120456080 115081896 110323728 106026944 
809.474 101943552 97827928 93529856 89016104 84374512 79758072 75346184 
812.849 71285880 67660968 64500668 61784564 59467340 57493404 55811268 
816.224 54378520 53157044 52116144 51230004 50478892 49850476 49338580 
819.598 48940052 48651320 48465604 48373112 48364260 48432488 48577756 
822.973 48806304 49128380 49554304 50090808 50739756 51498112 52358332 
826.348 53307724 54327300 55390348 56459056 57491476 58449096 59305888 
829.723 60061708 60749560 61438576 62221024 63207500 64511432 66222236 
833.098 68393432 71015736 74003432 77171248 80236096 82864624 84679592 
836.473 85352744 84684544 82636840 79364368 75165992 70447664 65613060 
839.847 60998176 56854724 53309220 50390136 48055184 46226224 44815116 
843.222 43738912 42933548 42345752 41931104 41654944 41487292 41405272 
846.597 41393720 41441320 41538332 41675184 41840324 42023588 42219600 
849.972 42428968 42658940 42919760 43221468 43569540 43964048 44401632 
853.347 44878192 45392656 45947684 46548936 47203064 47916412 48694644 
856.721 49545388 50481052 51518556 52681520 53997632 55494172 57201312 
860.096 59151064 61376748 63916012 66799836 70039728 73607256 77417328 
863.471 81319864 85088296 88462920 91176944 92992904 93764624 93452776 
866.846 92141504 90014024 87337136 84419336 81543120 78962528 76866928 
870.221 75366088 74511112 74296632 74678328 75579088 76899200 78523368 
873.596 80308280 82097400 83729512 85039648 85895752 86213056 85966632 
876.970 85197976 84004592 82525880 80905744 79280648 77757392 76394048 
880.345 75204600 74161368 73212344 72294208 71353512 70362560 69323608 
883.720 68268720 67246984 66315600 65521352 64891732 64435168 64143524 
887.095 64001480 63994600 64116448 64369416 64761444 65300904 65991244 
890.470 66829628 67807936 68915872 70144432 71489472 72950920 74531848 
893.844 76236256 78066976 80022952 82096560 84265480 86487288 88694960 
897.219 90786072 92636152 94113248 95088560 95472720 95227912 94376904 
900.594 92996504 91206944 89156848 86990712 84846976 82844136 81065888 
903.969 79571504 78393016 77539712 77006792 76781120 76847784 77194008 
907.344 77811328 78696264 79847584 81265840 82950488 84901152 87117688 
910.719 89599896 92345560 95346624 98582984 102016424 105594552 109251792 
914.093 112920744 116550936 120116112 123625088 127118320 130664544 
916.986 134345792 138235008 142384016 146796288 151412512 156085696 
919.879 160584496 164615824 167830800 169912128 170637280 169935408 
922.771 167937216 164973200 161562448 158292896 155779952 154583184 
925.664 155083280 157466272 161661184 167357936 173992416 180811856 
928.557 187028272 191843424 194625536 195011584 192901840 188457552 
931.450 182008096 173994240 164872544 155071696 145007072 135035888 
934.342 125467928 116577496 108565856 101576280 95696352 90953128 87336128 
937.717 84808792 83321480 82813584 83205768 84394912 86225544 88484080 
941.092 90920528 93237768 95145736 96411136 96868472 96463520 95248704 
944.467 93374544 91048656 88497160 85942840 83556616 81455096 79701024 
947.841 78306624 77251280 76494336 75991000 75695824 75567296 75570848 
951.216 75673976 75848376 76071800 76327688 76607600 76910320 77239328 
954.591 77599096 77991864 78416512 78869296 79346152 79844632 80365208 
957.966 80910336 81482280 82080944 82702976 83343360 83997432 84663120 
961.341 85342016 86037672 86753720 87491328 88248864 89022568 89809280 
964.716 90608912 91424216 92260480 93121560 94008608 94919248 95849280 
968.090 96795176 97757336 98740336 99751464 100797416 101881296 103001816 
971.465 104154560 105335272 106542464 107779168 109051392 110365376 
974.358 111724912 113130336 114579744 116072016 117608392 119194128 
977.251 120836032 122541160 124314096 126157480 128074480 130072888 
980.143 132165744 134373136 136716224 139213712 141877280 144709728 
983.036 147705280 150850640 154126096 157498992 160916144 164302608 
985.929 167550496 170526864 173097872 175134288 176541504 177276480 
988.821 177349680 176826176 175811056 174448736 172899456 171323136 
991.714 169879456 168697824 167873216 167464672 167490208 167937952 
994.607 168776160 169968912 171482240 173289152 175370064 177706528 
997.500 180277776 183061968 186034960 189174608 192462928 195879168 
1000.392 199394368 202965088 206524256 209988688 213271760 216290832 
1003.285 218989056 221341952 223358848 225078352 226563216 227899024 
1006.178 229179632 230510064 231998496 233735616 235793056 238210368 
1009.070 240992688 244117072 247542208 251224816 255121344 259192528 
1011.963 263400768 267698848 272030976 276339968 280570304 284681696 
1014.856 288650688 292458368 296076800 299450176 302481376 305046432 
1017.748 307008672 308247008 308693024 308343680 307273600 305619296 
1020.641 303579744 301396192 299312160 297579296 296416576 295979776 
1023.534 296363104 297581504 299583872 302264160 305489856 309125568 
1026.427 313029696 317068704 321105536 324980608 328528832 331580448 
1029.320 333977184 335603968 336389952 336307424 335361088 333573120 
1032.213 330975552 327609344 323533440 318827264 313581152 307893120 
1035.106 301849440 295514752 288939744 282166912 275244032 268237536 
1037.999 261229696 254310752 247577168 241112272 234987584 229263856 
1040.892 223982096 219162752 214792048 210812736 207111952 203521856 
1043.785 199854048 195910528 191531264 186634528 181223792 175394736 
1046.678 169303936 163156064 157159328 151492960 146309712 141709648 
1049.571 137743776 134423792 131726008 129603608 127994120 126833752 
1052.464 126060872 125619096 125462088 125545160 125819088 126229568 
1055.357 126707496 127171160 127538832 127726424 127661560 127293424 
1058.250 126591552 125553656 124205416 122604744 120837656 119009264 
1061.144 117245480 115669600 114391880 113507080 113077928 113138456 
1064.037 113694520 114726784 116191928 118021440 120129128 122403136 
1066.930 124711232 126921672 128901480 130538192 131756576 132513728 
1069.823 132802856 132642504 132069256 131126584 129857864 128307048 
1072.716 126513960 124515224 122349296 120055960 117681680 115286224 
1075.609 112937680 110714544 108702624 106978800 105611448 104651072 
1078.502 104123472 104030840 104349128 105031672 106004608 107169888 
1081.395 108415832 109611064 110626816 111357632 111729712 111725128 
1084.288 111384312 110807248 110132400 109518192 109132328 109116856 
1087.181 109584032 110607456 112211328 114371576 117012080 120018520 
1090.074 123234664 126478360 129575744 132360832 134702896 136520528 
1092.967 137772304 138456624 138598160 138241520 137440672 136253136 
1095.860 134745104 132984816 131044728 129007472 126954424 124964008 
1098.753 123103944 121412872 119892560 118497768 117143272 115708648 
1101.646 114059264 112084144 109708744 106920984 103772376 100374832 
1104.540 96879736 93444552 90228792 87364168 84943424 83027744 81642312 
1107.915 80785160 80434112 80554312 81101984 82024072 83264048 84758640 
1111.290 86434072 88213104 90006616 91716080 93246352 94504040 95411136 
1114.665 95917872 96002592 95674880 94968648 93939008 92651088 91170072 
1118.041 89562504 87886096 86186384 84499024 82846296 81239312 79682552 
1121.416 78177400 76726512 75336528 74017928 72783712 71646016 70612344 
1124.791 69684256 68858216 68128648 67492376 66952816 66521272 66217332 
1128.166 66064804 66084980 66293136 66692112 67270304 67999392 68836704 
1131.542 69728928 70611560 71421464 72102640 72613072 72936032 73081968 
1134.917 73089768 73015792 72928816 72897272 72973808 73192152 73559688 
1138.292 74057848 74642400 75249560 75806992 76234472 76457944 76419456 
1141.667 76076224 75407792 74413888 73110472 71525880 69696864 67668944 
1145.042 65490140 63211864 60888408 58568824 56298560 54116440 52050172 
1148.418 50119368 48335668 46704020 45225828 43900400 42726204 41700352 
1151.793 40818336 40073812 39458408 38963396 38581260 38306060 38134376 
1155.168 38064492 38095128 38225040 38453016 38778664 39203000 39729400 
1158.543 40362896 41108392 41969824 42948216 44041816 45245796 46552292 
1161.919 47950972 49425636 50952864 52503464 54037744 55511532 56880524 
1165.294 58099808 59131052 59944040 60515596 60832532 60891652 60700476 
1168.669 60276432 59645924 58843396 57904556 56866848 55767148 54637120 
1172.044 53507060 52405132 51355252 50380536 49501084 48732344 48086644 
1175.420 47571756 47191580 46947972 46841220 46871264 47038424 47343420 
1178.795 47788860 48380072 49126300 50041280 51143668 52452204 53984952 
1182.170 55754980 57768244 60024688 62518240 65238984 68169856 71281704 
1185.545 74531216 77848032 81135216 84279032 87144536 89598792 91528032 
1188.921 92839248 93479896 93438968 92748664 91477592 89722376 87602672 
1192.296 85237688 82743384 80226488 77770584 75442992 73292792 71348984 
1195.671 69626264 68125968 66838904 65746888 64824716 64043632 63368648 
1199.046 62762580 62188372 61606440 60979988 60277764 59474180 58555512 
1202.422 57521660 56387628 55180848 53938692 52704340 51516912 50409856 
1205.797 49407184 48521364 47756160 47109068 46574128 46144080 45810728 
1209.172 45566092 45400748 45304896 45270216 45290368 45363192 45491028 
1212.547 45679520 45935936 46267132 46678784 47173996 47753572 48415892 
1215.923 49156576 49967332 50835176 51744136 52675724 53611528 54537740 
1219.298 55444704 56328060 57187364 58024740 58844044 59650944 60454964 
1222.673 61269940 62113512 63007064 63970916 65020524 66165008 67404256 
1226.048 68729520 70123560 71563064 73018928 74455696 75837088 77125976 
1229.424 78288968 79303552 80158896 80858920 81420600 81874856 82264112 
1232.799 82638808 83062280 83606376 84345496 85360680 86727736 88510528 
1236.174 90762920 93520608 96803256 100615872 104950696 109785952 115080816 
1239.549 120777920 126796480 133030680 139367648 145681584 151844064 
1242.442 157737952 163245216 168253008 172661520 176377440 179326016 
1245.335 181454896 182730736 183139504 182682192 181375248 179251952 
1248.229 176363088 172780656 168585056 163855616 158662288 153053984 
1251.122 147064496 140722576 134064616 127149496 120066352 112924312 
1254.015 105855208 98998368 92476768 86401896 80856168 75883816 71497512 
1257.390 67675448 64370768 61514428 59027188 56828968 54837408 52982456 
1260.765 51208456 49474092 47757532 46052592 44365480 42709204 41100272 
1264.140 39554724 38085544 36703700 35417684 34233648 33154998 32181524 
1267.516 31308786 30528290 29829004 29200970 28636340 28131832 27687656 
1270.891 27306138 26989824 26739912 26557312 26443272 26401230 26436864 
1274.266 26557064 26766588 27065740 27447686 27896914 28388982 28894180 
1277.641 29376000 29794758 30113478 30298504 30327354 30193176 29905740 
1281.017 29490420 28981200 28416716 27829930 27243902 26672612 26121922 
1284.392 25595016 25096870 24635376 24221736 23867542 23581532 23368678 
1287.767 23231076 23170188 23189272 23294420 23492580 23789556 24186564 
1291.142 24679214 25256942 25904444 26603422 27330836 28059296 28757860 
1294.518 29390360 29922920 30329946 30599530 30738316 30771180 30738066 
1297.893 30683054 30650446 30678750 30795614 31020112 31361778 31820174 
1301.268 32381214 33015296 33679272 34314360 34856232 35247604 35441408 
1304.643 35411860 35155980 34691176 34050448 33275214 32414452 31515912 
1308.019 30625096 29784786 29027498 28375790 27839786 27417826 27099422 
1311.394 26870066 26716726 26629736 26603808 26637170 26729024 26878950 
1314.769 27086266 27351550 27676248 28062054 28508910 29012124 29562204 
1318.144 30145296 30747314 31358358 31974756 32599210 33237082 33891440 
1321.520 34558012 35222632 35861456 36446912 36951004 37351604 37638304 
1324.895 37815104 37902268 37933292 37955348 38021272 38178984 38468184 
1328.270 38908344 39495348 40202100 40986100 41800700 42603236 43367348 
1331.645 44083696 44759168 45409980 46056020 46716380 47404832 48132024 
1335.021 48905340 49728664 50601580 51517248 52461212 53410228 54333984 
1338.396 55200976 55980092 56647804 57192540 57615444 57930492 58159620 
1341.771 58330196 58468164 58594004 58721848 58857320 58999140 59141384 
1345.146 59277896 59404236 59519176 59622892 59712300 59775448 59789636 
1348.521 59718760 59519404 59152316 58587744 57817944 56860048 55757804 
1351.897 54574896 53384412 52267172 51295812 50529808 50013504 49767456 
1355.272 49787560 50043252 50483880 51043224 51648480 52236716 52756304 
1358.647 53172884 53471532 53651940 53727264 53719580 53662624 53600244 
1362.022 53581836 53662924 53891460 54296248 54881732 55622464 56468448 
1365.398 57344364 58163520 58832280 59253404 59350104 59074412 58422032 
1368.773 57434252 56193264 54805608 53373212 51987088 50712496 49583828 
1372.148 48615444 47807760 47158852 46670300 46349892 46206468 46244464 
1375.523 46458840 46835684 47356424 48004296 48768744 49647828 50649308 
1378.899 51791992 53108024 54639600 56437544 58550776 61004812 63780912 
1382.274 66790872 69881608 72826496 75357688 77218392 78165184 78020776 
1385.649 76707656 74281920 70957016 67070036 63042580 59253176 55962268 
1389.024 53298880 51264340 49785180 48753212 48062844 47620300 47344448 
1392.400 47169896 47035584 46884996 46674760 46377944 45993948 45545412 
1395.775 45069032 44599568 44157636 43748296 43363284 42991048 42626412 
1399.150 42278616 41972160 41742844 41625332 41644620 41813540 42129852 
1402.525 42579116 43136156 43772520 44458336 45168144 45885776 46604928 
1405.901 47328340 48064692 48827468 49631184 50488420 51408064 52391972 
1409.276 53434096 54520912 55635384 56763336 57895472 59028292 60159008 
1412.651 61277876 62364364 63387968 64315164 65124296 65814316 66410832 
1416.026 66958964 67515208 68133568 68850296 69678120 70602792 71589088 
1419.402 72593536 73579192 74521616 75407120 76227760 76978992 77660976 
1422.777 78286104 78883168 79498320 80182968 80978792 81906032 82958072 
1426.152 84108368 85320352 86561088 87801928 89020584 90202888 91342432 
1429.527 92446232 93535904 94653288 95853992 97192448 98716632 100454120 
1432.903 102413512 104588840 106974016 109572048 112389888 115433240 
1435.796 118686368 122098256 125585512 129063176 132479312 135816912 
1438.689 139078176 142249440 145282048 148070016 150455488 152268656 
1441.582 153334000 153512032 152724288 150949920 148234672 144680080 
1444.475 140449152 135742128 130765904 125735520 120836472 116222592 
1447.368 112024312 108331416 105186488 102576080 100440048 98690720 97242888 
1450.743 96045536 95092688 94421704 94086744 94134232 94572616 95367048 
1454.118 96435376 97660656 98911440 100034576 100893880 101414800 101633136 
1457.494 101692728 101779920 102067968 102662824 103616544 104950232 
1460.387 106660112 108722240 111082480 113661200 116334144 118926384 
1463.280 121241744 123070600 124254640 124746600 124634720 124111752 
1466.173 123389640 122656512 122033296 121578152 121312088 121228072 
1469.066 121297456 121456216 121598360 121568768 121163552 120191576 
1471.959 118541952 116256624 113533336 110653328 107873880 105346128 
1474.852 103129104 101227480 99634624 98361136 97433144 96869880 96667368 
1478.227 96785400 97157720 97701976 98343232 99030328 99739040 100477544 
1481.603 101277216 102187392 103263280 104564984 106162816 108131360 
1484.496 110547232 113473904 116938816 120905008 125242664 129738896 
1487.389 134076120 137854944 140656832 142056880 141723200 139515856 
1490.282 135539408 130148528 123835448 117120888 110408568 103935960 
1493.175 97820872 92079240 86691656 81662352 77033856 72898328 69374216 
1496.550 66560508 64499280 63162856 62479552 62357136 62709676 63470184 
1499.925 64582436 65995068 67659688 69521376 71522520 73608432 75709512 
1503.301 77741888 79596808 81100424 82012232 82029360 80845464 78307056 
1506.676 74556432 70033616 65262816 60635936 56331192 52365804 48696352 
1510.051 45284264 42113900 39204304 36589956 34296864 32338876 30709226 
1513.426 29386388 28340632 27535970 26930028 26467464 26088140 25741422 
1516.802 25401268 25080722 24822434 24679388 24685106 24839450 25101400 
1520.177 25402112 25663592 25835126 25922836 25988332 26114074 26357288 
1523.552 26738786 27244182 27842930 28501198 29194910 29914720 30662464 
1526.927 31445340 32269630 33140194 34062276 35045944 36108752 37272456 
1530.302 38559096 39983452 41550328 43248480 45046576 46898136 48745204 
1533.678 50537032 52244976 53872068 55440412 56973976 58485944 59973216 
1537.053 61423460 62807456 64087720 65218464 66143668 66802352 67143128 
1540.428 67148656 66847756 66309072 65616220 64831720 63978820 63036872 
1543.803 61961464 60711680 59285492 57734600 56154608 54648504 53279924 
1547.179 52063508 50962028 49911652 48848720 47741960 46605776 45495000 
1550.554 44475220 43591996 42859376 42260576 41766408 41350240 41001464 
1553.929 40725788 40537064 40444752 40445404 40518256 40628960 40720472 
1557.304 40704352 40464352 39870300 38853192 37482956 35954344 34481312 
1560.680 33195664 32138064 31284676 30582822 29973472 29402378 28830546 
1564.055 28241648 27646480 27076214 26569850 26152676 25828972 25579272 
1567.430 25370424 25163820 24926328 24641372 24311750 23958146 23609486 
1570.805 23294068 23032508 22836268 22711192 22656382 22664480 22718488 
1574.181 22791708 22851528 22864380 22811892 22700646 22560290 22427094 
1577.556 22326098 22263838 22232938 22221604 22221536 22231648 22257004 
1580.931 22304472 22377972 22475836 22591352 22716254 22843880 22970358 
1584.306 23093620 23209300 23308962 23381022 23413578 23400638 23345498 
1587.682 23262536 23173020 23100260 23065422 23082300 23159810 23303614 
1591.057 23517414 23802366 24151148 24544840 24947698 25310854 25584578 
1594.432 25723984 25703910 25524838 25211644 24806506 24355694 23904720 
1597.807 23488838 23133424 22858584 22679876 22608212 22649436 22801556 
1601.183 23055778 23398752 23817872 24302884 24846116 25439492 26069424 
1604.558 26712252 27336378 27900730 28361606 28681186 28828318 28786006 
1607.933 28551902 28137734 27565200 26861642 26061084 25201214 24322508 
1611.308 23469428 22679108 21977384 21375352 20868008 20438560 20063110 
1614.684 19716900 19375610 19019632 18640840 18245068 17854176 17498686 
1618.059 17209046 17006390 16898276 16880846 16940202 17056736 17206874 
1621.434 17369826 17530800 17683314 17830112 17979382 18140756 18321028 
1624.809 18524954 18756480 19019252 19315366 19642152 19989446 20338860 
1628.185 20669024 20964388 21220912 21449284 21669142 21902560 22165358 
1631.560 22462752 22789472 23132934 23477470 23804082 24091814 24316130 
1634.935 24447804 24463334 24355766 24143336 23861940 23551764 23242926 
1638.310 22948488 22666820 22386100 22092488 21776428 21439468 21094456 
1641.686 20762508 20464504 20213808 20013214 19853916 19719258 19584956 
1645.061 19424878 19214432 18933478 18574472 18148564 17685730 17227456 
1648.436 16816916 16490838 16270146 16164761 16170401 16269183 16420392 
1651.811 16555304 16588418 16442897 16107436 15648453 15162779 14716825 
1655.187 14330499 13997382 13703812 13440341 13205927 13004720 12841453 
1658.562 12717653 12629192 12566533 12517490 12469851 12411784 12330579 
1661.937 12214898 12055540 11851766 11614940 11368923 11144361 10967790 
1665.312 10857739 10818637 10841296 10904386 10979412 11037526 11052685 
1668.688 11009590 10904998 10746424 10548424 10328763 10107044 9901606 
1672.063 9728624 9598629 9511410 9453230 9395294 9302869 9146876 8922986 
1675.920 8656213 8391699 8172755 8022904 7945519 7925609 7941233 7971942 
1679.778 8008223 8054599 8125590 8235323 8387003 8561715 8716958 8788564 
1683.635 8712969 8467508 8092607 7676176 7300137 7011360 6815863 6694542 
1687.492 6618267 6557479 6488829 6396248 6273532 6124537 5963029 5809876 
1691.350 5687057 5616698 5612972 5681048 5813973 5993834 6190339 6364607 
1695.207 6483179 6531847 6526533 6503594 6502282 6547387 6640674 6760835 
1699.065 6864367 6897795 6814584 6609251 6324127 6027363 5774820 5592230 
1702.922 5481954 5428538 5407703 5388682 5343428 5253036 5114750 4942324 
1706.780 4759112 4588668 4445941 4335521 4253335 4191806 4145139 4113260 
1710.637 4102891 4125235 4190803 4304733 4463583 4655578 4865250 5075794 
1714.494 5274835 5455010 5610086 5729929 5797351 5788754 5686050 5487893 
1718.352 5217253 4913905 4621318 4374311 4189966 4071852 4013225 4001019 
1722.209 4019511 4052654 4087639 4115100 4131490 4139820 4148550 4169726 
1726.067 4215828 4296735 4415212 4565697 4733318 4899161 5046227 5164674 
1729.924 5257295 5337356 5423405 5528867 5653722 5776264 5855313 5835297 
1733.781 5672756 5366440 4966052 4549558 4183141 3905723 3724619 3626878 
1737.639 3589091 3584246 3587521 3580605 3557754 3525952 3500666 3496391 
1741.496 3520641 3570683 3635331 3699154 3748113 3776556 3788555 3797379 
1745.354 3818972 3867444 3949556 4062788 4195854 4333011 4458863 4558599 
1749.211 4619410 4628585 4572495 4440585 4231587 3959989 3655112 3355024 
1753.069 3097855 2909215 2799752 2763338 2779310 2816493 2841807 2831901 
1756.926 2779110 2693984 2597975 2514618 2459899 2438140 2442172 2455634 
1760.783 2458100 2428577 2353581 2231435 2073999 1903341 1746124 1628905 
1764.641 1570374 1579851 1653849 1776465 1920713 2054523 2152810 2203127 
1768.498 2210687 2192704 2170092 2157638 2157705 2160602 2149314 2109157 
1772.356 2034948 1935457 1827570 1727893 1645035 1578953 1524884 1478303 
1776.213 1439040 1412047 1404235 1420989 1461347 1517137 1573632 1614571 
1780.071 1628938 1614903 1581115 1542774 1516306 1511983 1531368 1566184 
1783.928 1601800 1621920 1613673 1572735 1505400 1427903 1360226 1322868 
1787.785 1332639 1397387 1516173 1676367 1858050 2033850 2173955 2253850 
1791.643 2259079 2190905 2065809 1911328 1755572 1617564 1507461 1425676 
1795.500 1367106 1325327 1295549 1276474 1270924 1284250 1321339 1384124 
1799.358 1467664 1559566 1640346 1690038 1692633 1642474 1545401 1417532 
1803.215 1280528 1154299 1054643 989315 958298 955708 973873 1005887 1046838 
1807.555 1094104 1145727 1199217 1250321 1293456 1322502 1332041 1319012 
1811.412 1283286 1227892 1159249 1086962 1021231 972445 949034 954612 986957 
1815.752 1038069 1096164 1147887 1183768 1200546 1201576 1195064 1189648 
1819.609 1193104 1210381 1244041 1296347 1370197 1467897 1589329 1728658 
1823.467 1872459 2000595 2093376 2138092 2135761 2101866 2061148 2038311 
1827.324 2048198 2092310 2157372 2221511 2259879 2255515 2206258 2124507 
1831.181 2031087 1946307 1885204 1853525 1850962 1873391 1915755 1973034 
1835.039 2040575 2113719 2187275 2256648 2318936 2374170 2426745 2483758 
1838.896 2555145 2650644 2778210 2943207 3147348 3388783 3659890 3947651 
1842.754 4233394 4494081 4709435 4867998 4971883 5034294 5073347 5104894 
1846.611 5136141 5165680 5185396 5186168 5160449 5106704 5028763 4933610 
1850.469 4828494 4717072 4599551 4473659 4337295 4190602 4036567 3879713 
1854.326 3724552 3573589 3426686 3282872 3141007 3002157 2868856 2743797 
1858.183 2628476 2521683 2419814 2318502 2214384 2106560 1997399 1890861 
1862.041 1791037 1701481 1625246 1565485 1526713 1514610 1534361 1588398 
1865.898 1673873 1781888 1896253 1997998 2068406 2093109 2066242 1991974 
1869.756 1882542 1753742 1621887 1499847 1396357 1316154 1259792 1224636 
1873.613 1204268 1190678 1176724 1156790 1129050 1094536 1056005 1015718 
1877.470 974072 929509 879571 822834 759964 693983 629339 569815 517032 
1881.810 470360 427374 386050 345592 307559 274635 249902 235746 233260 
1886.150 242741 264523 297910 340353 385752 424488 443825 433576 390494 
1890.489 320789 239923 166961 119961 108030 129805 173126 221889 259749 
1894.829 277155 273607 255538 232398 211214 194474 180021 164309 144853 
1899.168 122580 101269 85626 78435 80357 89040 102164 118536 138787 163978 
1903.990 194838 229281 263362 292871 315351 331566 345195 360747 379749 
1908.330 399780 414339 415799 399382 365622 320093 271817 229281 197291 
1912.669 176971 166994 166663 177170 201766 243139 299701 363964 422001 
1917.009 457689 459513 425682 365821 297048 237834 200076 186120 189004 
1921.349 195601 193711 173557 131827 70481 -4870 -87862 -173190 -255587 
1925.688 -330551 -393718 -441386 -472466 -489445 -497984 -504834 -514862 
1929.546 -529159 -544911 -557188 -562020 -559902 -554938 -553912 -562615 
1933.403 -582933 -612183 -644343 -673490 -696184 -713353 -728238 -743685 
1937.260 -759695 -771436 -771436 -752782 -712790 -653375 -583495 -514664 
1941.118 -457935 -422981 -415732 -437877 -487558 -559505 -645699 -735714 
1944.975 -817839 -881497 -919026 -928780 -916117 -891648 -867509 -852728 
1948.833 -851174 -860830 -875975 -890590 -901568 -908677 -914529 -921043 
1952.690 -928317 -934963 -939922 -944121 -952023 -970669 -1006472 -1062566 
1956.548 -1136929 -1222382 -1309469 -1390230 -1460244 -1519747 -1571550 
1959.923 -1618989 -1661901 -1699462 -1728901 -1749791 -1763915 -1774310 
1963.298 -1783351 -1789621 -1789588 -1778236 -1755335 -1726887 -1704544 
1966.673 -1703059 -1733158 -1795989 -1881411 -1972324 -2050192 -2102393 
1970.049 -2126398 -2127980 -2117957 -2106350 -2097018 -2090753 -2085576 
1973.424 -2082048 -2083532 -2095732 -2120430 -2151983 -2177502 -2178688 
1976.799 -2139158 -2055040 -1934424 -1797672 -1667512 -1562966 -1492143 
1980.174 -1454069 -1440661 -1443138 -1456116 -1476986 -1504922 -1538666 
1983.550 -1573927 -1604299 -1624502 -1632490 -1629519 -1620804 -1610637 
1986.925 -1599182 -1582741 -1553689 -1505714 -1436764 -1351420 -1257800 
1990.300 -1167497 -1089504 -1028851 -986934 -962470 -953312 -957709 -974438 
1994.157 -1000852 -1032090 -1062500 -1086728 -1102625 -1112408 -1121727 
1997.533 -1137062 -1161516 -1193206 -1225587 -1251291 -1266059 -1271841 
2000.908 -1276433 -1290573 -1322616 -1375631 -1444888 -1521101 -1594857 
2004.283 -1659227 -1712894 -1756754 -1792624 -1818460 -1829744 -1820869 
2007.658 -1791172 -1746425 -1699594 -1664640 -1651635 -1661802 -1685830 
2011.034 -1709561 -1718274 -1703521 -1664376 -1608326 -1543487 -1477085 
2014.409 -1413052 -1351255 -1291663 -1236886 -1191719 -1160690 -1145819 
2017.784 -1143341 -1145026 -1141886 -1128403 -1105665 -1081010 -1063393 
2021.159 -1058104 -1064616 -1073606 -1073143 -1054105 -1013116 -955527 
2024.535 -891781 -833283 -787213 -755196 -735251 -723442 -718314 -719968 
2028.392 -728701 -743222 -756817 -760389 -745339 -707398 -648115 -575587 
2032.250 -499307 -424736 -353263 -280157 -200116 -111282 -17593 73663 153238 
2036.589 216054 263329 301558 338496 379849 426147 472980 515905 551435 
2040.929 581095 610194 644172 685653 732946 779547 818286 846039 863402 
2045.268 876052 890760 913637 946244 988053 1037272 1093008 1156558 1229288 
2049.608 1310305 1394628 1473781 1539382 1586136 1615269 1633428 1651787 
2053.465 1680226 1723136 1778394 1838750 1895121 1941714 1978160 2008784 
2057.323 2038777 2072101 2107826 2141655 2168494 2185710 2194735 2200996 
2061.180 2210787 2227539 2251152 2276132 2296051 2305944 2304978 2296384 
2065.038 2285292 2275966 2269438 2263309 2253750 2237264 2214017 2186576 
2068.895 2158271 2132831 2111455 2093476 2077195 2062114 2049130 2040941 
2072.752 2039909 2046067 2057353 2070170 2080990 2088914 2096139 2106494 
2076.610 2124008 2150346 2183379 2218313 2250486 2276466 2295918 2311207 
2080.467 2325165 2339523 2354814 2369305 2382065 2393693 2406254 2423080 
2084.325 2446404 2475961 2508186 2538613 2562477 2577476 2584442 2585809 
2088.182 2583676 2578676 2568777 2551178 2524716 2491090 2455467 2424879 
2092.040 2405487 2399790 2406087 2418682 2431909 2441572 2447270 2451402 
2095.897 2457833 2468563 2483125 2498521 2511452 2520583 2527249 2535547 
2099.754 2549545 2571976 2603009 2640177 2680382 2721791 2764038 2807689 
2103.612 2854013 2902444 2950713 2996552 3038892 3079135 3121149 3169743 
2107.469 3227555 3293722 3363772 3430995 3489877 3538512 3579435 3618124 
2111.327 3660659 3710148 3765593 3822381 3874096 3915753 3945143 3962731 
2115.184 3971625 3975270 3975939 3975939 3977142 3982025 3994230 4017003 
2119.042 4051918 4097639 4149855 4202713 4250859 4291782 4325983 4356438 
2122.899 4387263 4420333 4455917 4492440 4528029 4561646 4594160 4626677 
2126.756 4659664 4692219 4720656 4740688 4749565 4747153 4736501 4722968 
2130.614 4711746 4706354 4707828 4715129 4727524 4745880 4772813 4810771 
2134.471 4860894 4919837 4980597 5035132 5076330 5101071 5111364 5112336 
2138.329 5108548 5102915 5094735 5081594 5060709 5032115 4998596 4964577 
2142.186 4932974 4903718 4872923 4835865 4788927 4733318 4674133 4617802 
2146.043 4569381 4528364 4488791 4440853 4376821 4292987 4192676 4083725 
2149.901 3974166 3867845 3763086 3653140 3529259 3387214 3227455 3055910 
2153.758 2880029 2705954 2535914 2369872 2207490 2053758 1920148 1823544 
2157.616 1779259 1795928 1869564 1983885 2117015 2247855 2360710 2449703 
2161.473 2514185 2555178 2574576 2574310 2556311 2525915 2490457 2456833 
2165.331 2429877 2410385 2393726 2374436 2348251 2315771 2281895 2254483 
2169.188 2237597 2231735 2231169 2225807 2205858 2166363 2108525 2039110 
2173.045 1968574 1904805 1852293 1810534 1775500 1741632 1704974 1662763 
2176.903 1613107 1555243 1488244 1412778 1331974 1252083 1181575 1128884 
2180.760 1099186 1092742 1105033 1127755 1153003 1176591 1196892 1215166 
2184.618 1233740 1252780 1270924 1286610 1299604 1312266 1330113 1358431 
2188.475 1400113 1454598 1516572 1579153 1635457 1681390 1716117 1741699 
2192.333 1760429 1773936 1782886 1787876 1790838 1795861 1807873 1831297 
2196.190 1867001 1911861 1959321 2000395 2029056 2042406 2042638 2034882 
2200.047 2025095 2018004 2016307 2020235 2030221 2045834 2067807 2095040 
2203.905 2125606 2155307 2178517 2191205 2191671 2181281 2164764 2148348 
2207.762 2136061 2130201 2130001 2133031 2136993 2140823 2145085 2150579 
2211.620 2158404 2168228 2179849 2193370 2210121 2232235 2262543 2300648 
2215.477 2343587 2386030 2420481 2441306 2446770 2438940 2423180 2406687 
2219.334 2394093 2387896 2388329 2393626 2403122 2416916 2436008 2459732 
2223.192 2487291 2514551 2537314 2553411 2562744 2568077 2573743 2582542 
2227.049 2593975 2605108 2610009 2604409 2587342 2562044 2534347 2511185 
2230.907 2497022 2492156 2494023 2498621 2503187 2508219 2516251 2531215 
2234.764 2555911 2590475 2633209 2681049 2731827 2785246 2842207 2903545 
2238.622 2968194 3032753 3092182 3141407 3177286 3200417 3214437 3224818 
2242.479 3236435 3252458 3273290 3298196 3325206 3352987 3381036 3409054 
2246.336 3436071 3461186 3482896 3500766 3515631 3529660 3545160 3563567 
2250.194 3584213 3604326 3620496 3629885 3631723 3628649 3625174 3625876 
2254.051 3634229 3651236 3675060 3703264 3733074 3762785 3791697 3819239 
2257.909 3843976 3863967 3876302 3878977 3871388 3855008 3832376 3806972 
2261.766 3781569 3757939 3736884 3719439 3706773 3700424 3702329 3712655 
2265.624 3730300 3752792 3777057 3800688 3823652 3846717 3871856 3900073 
2269.481 3930331 3959287 3982994 3998377 4003828 4001387 3995434 3990384 
2273.338 3990217 3996103 4007138 4021084 4035129 4046935 4056533 4063724 
2277.196 4069176 4073190 4075865 4077504 4078808 4081116 4086434 4096268 
2281.053 4111855 4133263 4160158 4191873 4227739 4267288 4310154 4355333 
2284.911 4401321 4446409 4488691 4527192 4562584 4596203 4630461 4667032 
2288.768 4707560 4752077 4800016 4850708 4903517 4958243 5014986 5073783 
2292.625 5134129 5195423 5257228 5319411 5382676 5448099 5516954 5589914 
2296.483 5666713 5746179 5827036 5907337 5986275 6063414 6139088 6214035 
2300.340 6289129 6365347 6443629 6525457 6611875 6704199 6803140 6909039 
2304.198 7021900 7141998 7269441 7404943 7549557 7703797 7867506 8039916 
2308.055 8219013 8402779 8588987 8776156 8962695 9147350 9328056 9502707 
2311.913 9669296 9826698 9975511 10118269 10259141 10402910 10554161 
2315.288 10715959 10890048 11076647 11274650 11481997 11696318 11913981 
2318.663 12131106 12343941 12548730 12742969 12925110 13093735 13246712 
2322.038 13380777 13490753 13571834 13620996 13639459 13633647 13614534 
2325.414 13596243 13592038 13611970 13660761 13737017 13834016 13941643 
2328.789 14049126 14146605 14226303 14283482 14316253 14325739 14316082 
2332.164 14294269 14269272 14250269 14245578 14260301 14295639 14349368 
2335.539 14417355 14494943 14578200 14665071 14754769 14846476 14939127 
2338.915 15030324 15116771 15195926 15266035 15326784 15378617 15421014 
2342.290 15450643 15459673 15435159 15359393 15214696 14985872 14667161 
2345.665 14267080 13811303 13339194 12898997 12542795 12312990 12240015 
2349.040 12338215 12603677 13015850 13539838 14135993 14761145 15378102 
2352.416 15961044 16495207 16975932 17404210 17783614 18117954 18410170 
2355.791 18664154 18885062 19078140 19248478 19399378 19531682 19645098 
2359.166 19739716 19816700 19878888 19929464 19969360 19996974 20007940 
2362.541 19996836 19959646 19896682 19812298 19714126 19609914 19504928 
2365.917 19400728 19295136 19183508 19060690 18923650 18769870 18597990 
2369.292 18406886 18195000 17960526 17703366 17424524 17127042 16814952 
2372.667 16492041 16160669 15821403 15473786 15117319 14752747 14382898 
2376.042 14011310 13642468 13280259 12927090 12584815 12255079 11939796 
2379.417 11642269 11365896 11114106 10888859 10690726 10518686 10370875 
2382.793 10245843 10142282 10059363 9995955 9949745 9917743 9896114 9881370 
2386.650 9870998 9864015 9860151 9859642 9861676 9864727 9866049 9863676 
2390.508 9856321 9844390 9829544 9813954 9799111 9785690 9773151 9761189 
2394.365 9749904 9740653 9735096 9735334 9742247 9755665 9774168 9796467 
2398.222 9821478 9849881 9883336 9923607 9972086 10029048 10093241 10163176 
2402.080 10237532 10315632 10397548 10483485 10573309 10666242 10761335 
2405.455 10857671 10955353 11056050 11161494 11274038 11394944 11524322 
2408.830 11661158 11804234 11952738 12106336 12265407 12429446 12597197 
2412.206 12766275 12932893 13093223 13244867 13386006 13516046 13634877 
2415.581 13741873 13835726 13914683 13977468 14024212 14056483 14077703 
2418.956 14091633 14101764 14110561 14118741 14126478 14133426 14139758 
2422.331 14146605 14155197 14167315 14184192 14206684 14235478 14271361 
2425.707 14315089 14368000 14431125 14505118 14590329 14686731 14794433 
2429.082 14914094 15046548 15192665 15353008 15527249 15714204 15911892 
2432.457 16117821 16330315 16547628 16769182 16994710 17224802 17460362 
2435.832 17702398 17952928 18213346 18484534 18766410 19057332 19355100 
2439.208 19657026 19961380 20267752 20577470 20892448 21214926 21545968 
2442.583 21885416 22232172 22584510 22940978 23301026 23664170 24030142 
2445.958 24397752 24765568 25131450 25494056 25853202 26209126 26563088 
2449.333 26915540 27266020 27612266 27951858 28282312 28602720 28913764 
2452.708 29217236 29515564 29810088 30100480 30384454 30658802 30919518 
2456.084 31163374 31388026 31591698 31773188 31931676 32065962 32174706 
2459.459 32257068 32311392 32336128 32329560 32289832 32215994 32108664 
2462.834 31970582 31806876 31624626 31432622 31238388 31048974 30869426 
2466.209 30703358 30553174 30421876 30311862 30227026 30170940 30146398 
2469.585 30155384 30198788 30276086 30386162 30526938 30695962 30889740 
2472.960 31104424 31335420 31578298 31829014 32084834 32343518 32603212 
2476.335 32862022 33117306 33366192 33605196 33831332 34042424 34236052 
2479.710 34410292 34562608 34689920 34788556 34855904 34890192 34891952 
2483.086 34863732 34809556 34734244 34642228 34537776 34423884 34302956 
2486.461 34177328 34048088 33916264 33781832 33644292 33502284 33354886 
2489.836 33201170 33041074 32874744 32702084 32521426 32330416 32125578 
2493.211 31902824 31659730 31394578 31108164 30802728 30480802 30145370 
2496.587 29798272 29440566 29072488 28694316 28306078 27908716 27503844 
2499.962 27093354 26680012 26266638 25856156 25451648 25055272 24668166 
2503.337 24290376 23921420 23559808 23204406 22855824 22515200 22185442 
2506.712 21868758 21567694 21282604 21012932 20756914 20512994 20280390 
2510.088 20059502 19851522 19658204 19480148 19317618 19169724 19034898 
2513.463 18911744 18799590 18698018 18606774 18525508 18453452 18389672 
2516.838 18333816 18285776 18246656 18217768 18200630 18195828 18203050 
2520.213 18220880 18247900 18282422 18323618 18370626 18423344 18481146 
2523.589 18543178 18608192 18675188 18742676 18809280 18873432 18933270 
2526.964 18985742 19028564 19059340 19077136 19081948 19075474 19059098 
2530.339 19034450 19001804 18960820 18910740 18851494 18784194 18710990 
2533.714 18634754 18558392 18483880 18412176 18343182 18276548 18212310 
2537.090 18150326 18091736 18036850 17985840 17938286 17893296 17850068 
2540.465 17808332 17768324 17730218 17694254 17659882 17626166 17591972 
2543.840 17556676 17520694 17484956 17451082 17420350 17392966 17368238 
2547.215 17344686 17320652 17294860 17266826 17236282 17203600 17168852 
2550.591 17132316 17094542 17056768 17020964 16989368 16963768 16945096 
2553.966 16932452 16923872 16916742 16909128 16899966 16889872 16879950 
2557.341 16871064 16863174 16855184 16844748 16829660 16808582 16780994 
2560.716 16747486 16708920 16666086 16619056 16567936 16512554 16453875 
2564.092 16393449 16333548 16276268 16223503 16175903 16133260 16095195 
2567.467 16061533 16032275 16008105 15989713 15977716 15972147 15972903 
2570.842 15979573 15991811 16009275 16031690 16057648 16086014 16115103 
2574.217 16143439 16170470 16196780 16223744 16253153 16285866 16322538 
2577.593 16362276 16403979 16446615 16489977 16534548 16581327 16631346 
2580.968 16684851 16741632 16800798 16861970 16925044 16990540 17059424 
2584.343 17132660 17210082 17290996 17374034 17457912 17541566 17624546 
2587.718 17707058 17789758 17872888 17956796 18041720 18127664 18214866 
2591.094 18303816 18394340 18485988 18577690 18668200 18756412 18841978 
2594.469 18924930 19006062 19086102 19165394 19243146 19318828 19391202 
2597.844 19460258 19526588 19591818 19658306 19727754 19801546 19880276 
2601.219 19963636 20051484 20143518 20239910 20340560 20445644 20554680 
2604.594 20667286 20782772 20901280 21022948 21148616 21278812 21413848 
2607.970 21553560 21697666 21845414 21996938 22152002 22310610 22472452 
2611.345 22636448 22800718 22963232 23121926 23275506 23423194 23564880 
2614.720 23700702 23830088 23952370 24066912 24173006 24271420 24363370 
2618.095 24450818 24535586 24618754 24700398 24780056 24856572 24929344 
2621.471 24998376 25064188 25127658 25189592 25250378 25309940 25368422 
2624.846 25426318 25484498 25544130 25606124 25670762 25737484 25805236 
2628.221 25872720 25939510 26005606 26072380 26140852 26211836 26285190 
2631.596 26359788 26433518 26504514 26571330 26633506 26691216 26745234 
2634.972 26796686 26846204 26894602 26942086 26989330 27037038 27085808 
2638.347 27136418 27189680 27245734 27305042 27367748 27433672 27502856 
2641.722 27575052 27649412 27725728 27803294 27882110 27962142 28044274 
2645.097 28128968 28217072 28308978 28404582 28504028 28607072 28713646 
2648.473 28823606 28936926 29053288 29171910 29291844 29412412 29533226 
2651.848 29654502 29776944 29901622 30029496 30160748 30295484 30433070 
2655.223 30573222 30715840 30861172 31009472 31161202 31316158 31473768 
2658.598 31633250 31793326 31953144 32112234 32270454 32427944 32585028 
2661.974 32741852 32898798 33056018 33213652 33371702 33530060 33688188 
2665.349 33845408 34001036 34154604 34306184 34456524 34606416 34756680 
2668.724 34907788 35059848 35212388 35365164 35518388 35672388 35828672 
2672.099 35988108 36151744 36319512 36490732 36664148 36838532 37012844 
2675.475 37186864 37360596 37534324 37708664 37883576 38059104 38235572 
2678.850 38413340 38593064 38776124 38963504 39156220 39355008 39560348 
2682.225 39772428 39991700 40218384 40452896 40695620 40947176 41207472 
2685.600 41477264 41756268 42044796 42342756 42649584 42964492 43286332 
2688.976 43614012 43946484 44283392 44624792 44970680 45321628 45677680 
2692.351 46039036 46405524 46777556 47155748 47541072 47934656 48337040 
2695.726 48747988 49166784 49591924 50022168 50456488 50894592 51336608 
2699.101 51783068 52234324 52690276 53150488 53614448 54081308 54550292 
2702.477 55020416 55490672 55959100 56424116 56883316 57334800 57777176 
2705.852 58209624 58631504 59042560 59441924 59828536 60200648 60556884 
2709.227 60895616 61216068 61517824 61801336 62067028 62316248 62549768 
2712.602 62768972 62974624 63167260 63346260 63511020 63659588 63789972 
2715.978 63899896 63987768 64052120 64092672 64109644 64104192 64077772 
2719.353 64032844 63972720 63901080 63822440 63741468 63662424 63589536 
2722.728 63526556 63477008 63443916 63430608 63439308 63472100 63529512 
2726.103 63611476 63716680 63843928 63991956 64159924 64347708 64555296 
2729.479 64782208 65027028 65287620 65560884 65843656 66133484 66427864 
2732.854 66725768 67025572 67326128 67625728 67922288 68213848 68498440 
2736.229 68775096 69043376 69302896 69553504 69795144 70028008 70252192 
2739.604 70468472 70678224 70882896 71084496 71284432 71484592 71686160 
2742.979 71891184 72102288 72321912 72553000 72797616 73056760 73330336 
2746.355 73616760 73913904 74219184 74529088 74840280 75148704 75448784 
2749.730 75735784 76003472 76247232 76463872 76651952 76811760 76945008 
2753.105 77054160 77141448 77208688 77257216 77287656 77299536 77291896 
2756.480 77262600 77208888 77127120 77013840 76866408 76682984 76463472 
2759.856 76208808 75920864 75601680 75253456 74877720 74475992 74049872 
2763.231 73601528 73133880 72650992 72157800 71660016 71163768 70675224 
2766.606 70200280 69744528 69312032 68906360 68530096 68185048 67872744 
2769.981 67594176 67350312 67140920 66965572 66822908 66710584 66625588 
2773.357 66564984 66525252 66503076 66495204 66498020 66507252 66518644 
2776.732 66526988 66527180 66514516 66484504 66433652 66358984 66258280 
2780.107 66130280 65974892 65793304 65588400 65364560 65127252 64882456 
2783.482 64635760 64392016 64154932 63926688 63708388 63499860 63299528 
2786.858 63104644 62911428 62714920 62510276 62293492 62061296 61812948 
2790.233 61549168 61272268 60985400 60691788 60394492 60096372 59800436 
2793.608 59509752 59227916 58959364 58708312 58478628 58273584 58095148 
2796.983 57944012 57820136 57723208 57652256 57606780 57586764 57591760 
2800.359 57621800 57676476 57754548 57854432 57973356 58108440 58255964 
2803.734 58412556 58575536 58742712 58912988 59085116 59258872 59432804 
2807.109 59605332 59774120 59936396 60088992 60229040 60353524 60459268 
2810.484 60543668 60603740 60636696 60640696 60614368 60557648 60471304 
2813.860 60356836 60216748 60053760 59871736 59675348 59470344 59263500 
2817.235 59063020 58876712 58712632 58578000 58478364 58418088 58400428 
2820.610 58426356 58496600 58610004 58764868 58957772 59184784 59441244 
2823.985 59721688 60020084 60330488 60645536 60958752 61262844 61551380 
2827.361 61818568 62059996 62272800 62455564 62608436 62732644 62830432 
2830.736 62904880 62959992 63000208 63030584 63056260 63081428 63109896 
2834.111 63144496 63187456 63240996 63307656 63390268 63492656 63619188 
2837.486 63774312 63962928 64190112 64461768 64785176 65168836 65622696 
2840.862 66158480 66788748 67526704 68387576 69386312 70540808 71870152 
2844.237 73393216 75128488 77088664 79276272 81677384 84255576 86951088 
2847.612 89670720 92300024 94708912 96755056 98312440 99280168 99594616 
2850.987 99240896 98251320 96701400 94690984 92340064 89774192 87105016 
2854.363 84436368 81853696 79417912 77173304 75143624 73335080 71740440 
2857.738 70342336 69117928 68040864 67085928 66230684 65454124 64739408 
2861.113 64072012 63439540 62832228 62242744 61666696 61102436 60551476 
2864.488 60017500 59505872 59023772 58579252 58179924 57833388 57546400 
2867.864 57323228 57166276 57075200 57046856 57075120 57151496 57265724 
2871.239 57404832 57555516 57704436 57838876 57949008 58028680 58076020 
2874.614 58093596 58087008 58064504 58034208 58003384 57978164 57962260 
2877.989 57958360 57968052 57991948 58030652 58083824 58151016 58231716 
2881.365 58325272 58431468 58550284 58681760 58825568 58980616 59144988 
2884.740 59316412 59492120 59670368 59850404 60032604 60218500 60409840 
2888.115 60608692 60816864 61035964 61268264 61516792 61785444 62079720 
2891.490 62405640 62771120 63185008 63657284 64199908 64825528 65546632 
2894.865 66375008 67317656 68375008 69536776 70781760 72074864 73367168 
2898.241 74603360 75722648 76666184 77389096 77862656 78081488 78062728 
2901.616 77845656 77484736 77037928 76566616 76124664 75753536 75487336 
2904.991 75348664 75352768 75510360 75829040 76315008 76973920 77811608 
2908.366 78833984 80047656 81458328 83070952 84886048 86898992 89095912 
2911.742 91451744 93931928 96487344 99056928 101574904 103965416 106153336 
2915.117 108072928 109667408 110900096 111756664 112244880 112391256 
2918.010 112234024 111819032 111188408 110376352 109407224 108292776 
2920.903 107035432 105632248 104079560 102379080 100540816 98585064 96542880 
2924.278 94454152 92359576 90301968 88319104 86439904 84686072 83069744 
2927.654 81594248 80256064 79045704 77950280 76953864 76040808 75196608 
2931.029 74408024 73665168 72960840 72289936 71649464 71037512 70453040 
2934.404 69895472 69364696 68860080 68380560 67924032 67486608 67063964 
2937.779 66650660 66242068 65835556 65430664 65029724 64637376 64259872 
2941.155 63903736 63574924 63278480 63016912 62790840 62597564 62431040 
2944.530 62282172 62137944 61985044 61810316 61603344 61359688 61081616 
2947.905 60778024 60462812 60153756 59869036 59623764 59429916 59293812 
2951.280 59216336 59192908 59215384 59272616 59351016 59438012 59521456 
2954.656 59591192 59640036 59663144 59657824 59623272 59559568 59468636 
2958.031 59353596 59218616 59069476 58912080 58752612 58595864 58445116 
2961.406 58302344 58168520 58044168 57930076 57827708 57738612 57664136 
2964.781 57604776 57559980 57528168 57507628 57496508 57493860 57499496 
2968.156 57513828 57537740 57572048 57617412 57674884 57745276 57829524 
2971.532 57928900 58044320 58176096 58323604 58484844 58656460 58832812 
2974.907 59007108 59169932 59310712 59418140 59480908 59489532 59438316 
2978.282 59325528 59154176 58931696 58669432 58379768 58076512 57772672 
2981.657 57479332 57205092 56955540 56732296 56533508 56353524 56184400 
2985.033 56015944 55838092 55642652 55423548 55178140 54907072 54613220 
2988.408 54300644 53972716 53631656 53277040 52906284 52515092 52099144 
2991.783 51655492 51184412 50689484 50178200 49660640 49146708 48645536 
2995.158 48162340 47698324 47250792 46814056 46381668 45948056 45509388 
2998.534 45064916 44616272 44167208 43721508 43283292 42855536 42439672 
3001.909 42035996 41643348 41260196 40884776 40516220 40154196 39799664 
3005.284 39454236 39119852 38798624 38491536 38199100 37920780 37655720 
3008.659 37402520 37160192 36927556 36703628 36486768 36275312 36067344 
3012.035 35861200 35655588 35450468 35246276 35044184 34845492 34651272 
3015.410 34462228 34278756 34101200 33929808 33765216 33607952 33457942 
3018.785 33314850 33177852 33045650 32917172 32792016 32670364 32553352 
3022.160 32442190 32337878 32241188 32152370 32071918 32000650 31940124 
3025.536 31892698 31860784 31846664 31851192 31873762 31911206 31958386 
3028.911 32008604 32053512 32084334 32093362 32073810 32021836 31936560 
3032.286 31820278 31677872 31515628 31340160 31157536 30971964 30786900 
3035.661 30604260 30425678 30252534 30086060 29927642 29778078 29637544 
3039.037 29505634 29381318 29263204 29150048 29040958 28935156 28832530 
3042.412 28733044 28637118 28545710 28459556 28379716 28306822 28241010 
3045.787 28181290 28126634 28075378 28026496 27979070 27933062 27888824 
3049.162 27846782 27807038 27769490 27733710 27699558 27666998 27636734 
3052.538 27609300 27585362 27565024 27547512 27532050 27517434 27503068 
3055.913 27489266 27476098 27464558 27454956 27447402 27441932 27438508 
3059.288 27437274 27439072 27445074 27456192 27472994 27495444 27522906 
3062.663 27555208 27591892 27633840 27681900 27737102 27799480 27867872 
3066.039 27940198 28013808 28085770 28153784 28216294 28272340 28321214 
3069.414 28362420 28394890 28418238 28431962 28437056 28434792 28427220 
3072.789 28416964 28406280 28396906 28390116 28386826 28388028 28393864 
3076.164 28405114 28421032 28440700 28462456 28484180 28503782 28520092 
3079.540 28532124 28539908 28543906 28544966 28543836 28541464 28538774 
3082.915 28536404 28535200 28535484 28537430 28540792 28545356 28551018 
3086.290 28558520 28569100 28584352 28605444 28633120 28666780 28705008 
3089.665 28745822 28787918 28830618 28874562 28920848 28970964 29025690 
3093.041 29084676 29146646 29209688 29272206 29333566 29394542 29457442 
3096.416 29524642 29598738 29681036 29771338 29867868 29967756 30067170 
3099.791 30162950 30252640 30335098 30410502 30480518 30546916 30612046 
3103.166 30677934 30746068 30817454 30892658 30971822 31054704 31140378 
3106.542 31227670 31315088 31400956 31484098 31564154 31641554 31717862 
3109.917 31794790 31874082 31956748 32043132 32132678 32224846 32318852 
3113.292 32414806 32512606 32612604 32714448 32817672 32921064 33023484 
3116.667 33123850 33221594 33316388 33408056 33496234 33580172 33659044 
3120.042 33732232 33800276 33864716 33928408 33994692 34066396 34145104 
3123.418 34230996 34322248 34416316 34510476 34602752 34691716 34777212 
3126.793 34860500 34942512 35024972 35109344 35196976 35288104 35382740 
3130.168 35480204 35578840 35676956 35773188 35866852 35958484 36049484 
3133.543 36141984 36237780 36337776 36441580 36547784 36654376 36759304 
3136.919 36861076 36959124 37054232 37147884 37241772 37337304 37435532 
3140.294 37536600 37639964 37744732 37849844 37954480 38058416 38161908 
3143.669 38266180 38372292 38481400 38594116 38710412 38829496 38950240 
3147.044 39071780 39193608 39315248 39437112 39559116 39680968 39802096 
3150.420 39921804 40039584 40155252 40269388 40382896 40496940 40612260 
3153.795 40729024 40847096 40965780 41084460 41202700 41320464 41437748 
3157.170 41555028 41672304 41789828 41907896 42026652 42146100 42266568 
3160.545 42387360 42508548 42629588 42750588 42872212 42995768 43122400 
3163.921 43253460 43388656 43527084 43666104 43803084 43935228 44061472 
3167.296 44181700 44297412 44410292 44522100 44633456 44744404 44854132 
3170.671 44961864 45067268 45170492 45272532 45374372 45476972 45580628 
3174.046 45685304 45789704 45892516 45991956 46086528 46175252 46258064 
3177.422 46335772 46410652 46485872 46563912 46647056 46735788 46829040 
3180.797 46924492 47019448 47111764 47200704 47287108 47372572 47459088 
3184.172 47548352 47640932 47736412 47833988 47932584 48031348 48129728 
3187.547 48227648 48324300 48419376 48512100 48602360 48690900 48778792 
3190.923 48867704 48959520 49054888 49153832 49255476 49358216 49460316 
3194.298 49560432 49657264 49750292 49838880 49923024 50003096 50079836 
3197.673 50154656 50229304 50305192 50383548 50464600 50547860 50632444 
3201.048 50717676 50802956 50888556 50974736 51061744 51149448 51237496 
3204.424 51325160 51412056 51497852 51582616 51666280 51748464 51828016 
3207.799 51904108 51975848 52043376 52107772 52171288 52236080 52303724 
3211.174 52374292 52446704 52519020 52589996 52658968 52726748 52795032 
3214.549 52866244 52941320 53020412 53102220 53185164 53267452 53347660 
3217.925 53425480 53501140 53574944 53647364 53718828 53789552 53860212 
3221.300 53931900 54005584 54081988 54161064 54242260 54324220 54406200 
3224.675 54487780 54569224 54651172 54734300 54818200 54902148 54984648 
3228.050 55064608 55141796 55216704 55291020 55366780 55445268 55526592 
3231.426 55610040 55694176 55777208 55858368 55937280 56014208 56090020 
3234.801 56164980 56239688 56314444 56389668 56466260 56544944 56626060 
3238.176 56709608 56794640 56879992 56964416 57047160 57128672 57210080 
3241.551 57291964 57375296 57459632 57543788 57626072 57705572 57782172 
3244.927 57857196 57932464 58010200 58091700 58177500 58266648 58357940 
3248.302 58449968 58542056 58634124 58726440 58819496 58913444 59008020 
3251.677 59102504 59195984 59288036 59378252 59466852 59554136 59640756 
3255.052 59726860 59812716 59898512 59983904 60068788 60152920 60235476 
3258.427 60316404 60395520 60472900 60549156 60625420 60702156 60780084 
3261.803 60859212 60938696 61017316 61093588 61166440 61235336 61300696 
3265.178 61363504 61425448 61487896 61551840 61617780 61685408 61754428 
3268.553 61824180 61894400 61964792 62035340 62106136 62177012 62247600 
3271.928 62317700 62387356 62457056 62528336 62602424 62680468 62762580 
3275.304 62847888 62934480 63020168 63103268 63183436 63261732 63340544 
3278.679 63422868 63510984 63606152 63707972 63814992 63925072 64036728 
3282.054 64149476 64263412 64379796 64499708 64624420 64754596 64891196 
3285.429 65034652 65185540 65343924 65509288 65680584 65855844 66033176 
3288.805 66211192 66389524 66568924 66751300 66938588 67132608 67334024 
3292.180 67542928 67759208 67982736 68213816 68452616 68699672 68954248 
3295.555 69215376 69481520 69751488 70025128 70303304 70587776 70880400 
3298.930 71182032 71492672 71810800 72135104 72464520 72799496 73141528 
3302.306 73492808 73855056 74228856 74613280 75006480 75406528 75812440 
3305.681 76223968 76642032 77067768 77502008 77944920 78396152 78854952 
3309.056 79321008 79793984 80274000 80760896 81254336 81753368 82257264 
3312.431 82766200 83280576 83801928 84331336 84869368 85415296 85967520 
3315.807 86523920 87083344 87645936 88212688 88785392 89365168 89952112 
3319.182 90544992 91141624 91739784 92337728 92935104 93531880 94128344 
3322.557 94724200 95318768 95910928 96500176 97086528 97670736 98253400 
3325.932 98834472 99412656 99985568 100550512 101104768 101646752 102175536 
3329.308 102690352 103190200 103672824 104136192 104577552 104995760 
3332.201 105390384 105761904 106110696 106435504 106733272 107000592 
3335.094 107233208 107428952 107588360 107714792 107812632 107886192 
3337.987 107937816 107967080 107971712 107947920 107892824 107804224 
3340.880 107681160 107523720 107331368 107103568 106839112 106536784 
3343.773 106195528 105815392 105396552 104939432 104444400 103911832 
3346.666 103342256 102737328 102099528 101432296 100739120 100022824 
3349.559 99285160 98527312 97749824 96953632 96140368 95312664 94473224 
3352.934 93624760 92769336 91908224 91042480 90173368 89303416 88435664 
3356.310 87574544 86724184 85888528 85070640 84272272 83494568 82737488 
3359.685 82000856 81283336 80583552 79899784 79230656 78575184 77933544 
3363.060 77306424 76695520 76102120 75527712 74972880 74437952 73922736 
3366.435 73426840 72950136 72492160 72052064 71628208 71218344 70819896 
3369.811 70430280 70047672 69671000 69299704 68933232 68570528 68210136 
3373.186 67850000 67488232 67123320 66754356 66381188 66003396 65620692 
3376.561 65232128 64836524 64432828 64020484 63599660 63170976 62735020 
3379.936 62291844 61840724 61379800 60907320 60421832 59923156 59412064 
3383.312 58890864 58362260 57829412 57294796 56760692 56228068 55697908 
3386.687 55170348 54645496 54123420 53604480 53089452 52579452 52075276 
3390.062 51577840 51087500 50603704 50125612 49652472 49183480 48719144 
3393.437 48260416 47808464 47364296 46927556 46496568 46069172 45642200 
3396.813 45214028 44783632 44351940 43921112 43493868 43072672 42658976 
3400.188 42253092 41854768 41462392 41074736 40690232 40307668 39925912 
3403.563 39544340 39163072 38783012 38405884 38033460 37667824 37309716 
3406.938 36959268 36615296 36275960 35939336 35604084 35269524 34936188 
3410.313 34604800 34276568 33952448 33633088 33318858 33010364 32708160 
3413.689 32413092 32125682 31846128 31574488 31310386 31053352 30802940 
3417.064 30558862 30320460 30087126 29857680 29630982 29405214 29179212 
3420.439 28952158 28723946 28495078 28266010 28037488 27809828 27582818 
3423.814 27356490 27130950 26907008 26686072 26469648 26259528 26056476 
3427.190 25860694 25671288 25486746 25304882 25123796 24941872 24758764 
3430.565 24574644 24391232 24210282 24033888 23863866 23701052 23545538 
3433.940 23396234 23251524 23109590 22968366 22826384 22682494 22536138 
3437.315 22386972 22235764 22083214 21931100 21781200 21635116 21493778 
3440.691 21356870 21222826 21090352 20957502 20824380 20691578 20561524 
3444.066 20436060 20315838 20198948 20081328 19957044 19820204 19667564 
3447.441 19499174 19319488 19134924 18953484 18781598 18622822 18477586 
3450.816 18344116 18219012 18098680 17980418 17862532 17744162 17625098 
3454.192 17505412 17384998 17264208 17143138 17022448 16903100 16785542 
3457.567 16670389 16557541 16446924 16337436 16228629 16118955 16006662 
3460.942 15890308 15768865 15641857 15510526 15377037 15244791 15116942 
3464.317 14995681 14882272 14775715 14673707 14573162 14471237 14365670 
3467.693 14255200 14140169 14021235 13900553 13780007 13662402 13550058 
3471.068 13444647 13346984 13256140 13169585 13084208 12996526 12904391 
3474.443 12807122 12706189 12604257 12504805 12410795 12324511 12246593 
3477.818 12176868 12114104 12056629 12001888 11947084 11888645 11823335 
3481.194 11748707 11663915 11570360 11471313 11371644 11275670 11186720 
3484.569 11106117 11033074 10965887 10902110 10839699 10777230 10714362 
3487.944 10651301 10588417 10526188 10465631 10407492 10352924 10302977 
3491.319 10258226 10218534 10183358 10151846 10123424 10097819 10075267 
3494.695 10055633 10038543 10023114 10007619 9991615 9975647 9962661 9957576 
3498.552 9965373 9990395 10034406 10094631 10165075 10237429 10302806 
3501.927 10354179 10387503 10403317 10405320 10399992 10394901 10398431 
3505.302 10417503 10456976 10519398 10603560 10705058 10815954 10927694 
3508.678 11031850 11122433 11198620 11263462 11324062 11387801 11461482 
3512.053 11548616 11649552 11761575 11880608 12003080 12125586 12246866 
3515.428 12366202 12483764 12599345 12713081 12824424 12933439 13039785 
3518.803 13144072 13247292 13350162 13452918 13554537 13651768 13739617 
3522.179 13810996 13858577 13875715 13858817 13807883 13726655 13620552 
3525.554 13495606 13355219 13200667 13029883 12840873 12632126 12404829 
3528.929 12162965 11912380 11658537 11406067 11157380 10913967 10677041 
3532.304 10448422 10230645 10025793 9834188 9652865 9475851 9294881 9102278 
3536.162 8893866 8670173 8437035 8203278 7978928 7771054 7584015 7418358 
3540.019 7272339 7143851 7031497 6935231 6856052 6794120 6748013 6713251 
3543.877 6682227 6644442 6588562 6503426 6381587 6220253 6023029 5799769 
3547.734 5565313 5336552 5127893 4950032 4806248 4693257 4601661 4519726 
3551.592 4435497 4339637 4228274 4101988 3965573 3824788 3686054 3555182 
3555.449 3436138 3332485 3246683 3179255 3129426 3093417 3065920 3040561 
3559.306 3010799 2973165 2927028 2875426 2825231 2785813 2767373 2780344 
3563.164 2833102 2930231 3069891 3241843 3426787 3595271 3711285 3742432 
3567.021 3665504 3476918 3193474 2849211 2484025 2132565 1820649 1560630 
3570.879 1353412 1192938 1068926 971382 890860 820909 756777 695709 636274 
3575.218 577910 521113 467574 419381 378356 345493 319761 298209 277254 
3579.558 252886 222751 186418 146709 109322 82080 75353 99380 162652 270656 
3584.380 422565 610592 816460 1014688 1174166 1263447 1260889 1160843 976795 
3588.719 736531 476496 231436 25977 -125261 -218464 -258832 -257706 -229856 
3593.059 -191207 -157722 -142254 -153383 -194453 -263335 -353098 -453401 
3596.916 -552787 -641431 -712261 -763267 -796904 -820650 -842741 -872205 
3600.774 -914662 -971000 -1036123 -1100840 -1153750 -1183325 -1180186 
3604.149 -1139507 -1060815 -949345 -814035 -668990 -531012 -416924 -341974 
3608.006 -316314 -340583 -405967 -496825 -594514 -682025 -750400 -798194 
3611.864 -831993 -862086 -898592 -946964 -1004984 -1062831 -1106987 -1125297 
3615.721 -1110226 -1062005 -989579 -909140 -841187 -805503 -817806 -884407 
3619.579 -1000786 -1153188 -1323805 -1493992 -1648664 -1777609 -1874714 
3622.954 -1936436 -1960582 -1944848 -1886261 -1781602 -1628133 -1426097 
3626.329 -1180451 -907024 -634583 -403219 -262243 -249725 -375445 -612084 
3630.187 -908479 -1209991 -1475269 -1685368 -1839478 -1950158 -2035187 
3633.562 -2112648 -2194645 -2284899 -2379287 -2469536 -2548402 -2612301 
3636.937 -2662261 -2702304 -2737437 -2769374 -2797226 -2817110 -2825110 
3640.312 -2819711 -2803086 -2780337 -2755809 -2731313 -2702337 -2659132 
3643.688 -2587961 -2475861 -2314496 -2104042 -1852444 -1577426 -1303225 
3647.063 -1054567 -855208 -723111 -668494 -694894 -800641 -978207 -1213692 
3650.920 -1485935 -1768667 -2033340 -2255465 -2418862 -2515460 -2549357 
3654.295 -2533908 -2493157 -2454545 -2445122 -2481726 -2565629 -2682579 
3657.671 -2809045 -2923626 -3011524 -3067755 -3096608 -3106971 -3109340 
3661.046 -3111051 -3115393 -3121216 -3125394 -3123519 -3112893 -3091213 
3664.421 -3056042 -3002310 -2923757 -2811514 -2658573 -2461134 -2221809 
3667.796 -1948674 -1654639 -1352907 -1051659 -748846 -429800 -71431 354413 
3671.654 874027 1507295 2267473 3154790 4150123 5192203 6168695 6927993 
3675.511 7308730 7215704 6658607 5736812 4584951 3328245 2069871 881729 
3679.369 -181172 -1078762 -1792789 -2325109 -2698188 -2945149 -3102826 
3682.744 -3202332 -3263570 -3297244 -3305563 -3287510 -3241832 -3168749 
3686.119 -3070881 -2953969 -2825966 -2697661 -2582263 -2492861 -2439916 
3689.494 -2429208 -2460245 -2528011 -2623729 -2737503 -2858785 -2977532 
3692.870 -3085784 -3177696 -3250744 -3305136 -3343508 -3369943 -3388124 
3696.245 -3401110 -3409592 -3411170 -3402688 -3380135 -3341765 -3289121 
3699.620 -3228216 -3168387 -3121940 -3099109 -3105655 -3140855 -3197069 
3702.995 -3262353 -3324010 -3372146 -3400650 -3407126 -3392135 -3357087 
3706.371 -3304412 -3235451 -3151578 -3054792 -2947651 -2834920 -2723871 
3709.746 -2623071 -2543955 -2497176 -2491148 -2529922 -2611214 -2726275 
3713.121 -2861451 -3001883 -3133979 -3246732 -3333611 -3391149 -3418829 
3716.496 -3418271 -3393187 -3347881 -3287378 -3216310 -3138585 -3056766 
3719.872 -2972991 -2888968 -2805917 -2724925 -2646947 -2571920 -2499021 
3723.247 -2428252 -2360800 -2301313 -2257245 -2238423 -2254641 -2311398 
3726.622 -2405945 -2526463 -2653995 -2766905 -2845881 -2879456 -2863327 
3729.997 -2800255 -2696541 -2560227 -2396521 -2208293 -1996896 -1766786 
3733.373 -1529487 -1307718 -1132964 -1040288 -1059559 -1200739 -1448125 
3736.748 -1761341 -2091149 -2393753 -2639900 -2818822 -2931755 -2985660 
3740.123 -2988227 -2944261 -2857073 -2729304 -2568198 -2389008 -2216139 
3743.498 -2084916 -2029943 -2068528 -2189139 -2354407 -2521917 -2658309 
3746.874 -2748204 -2789852 -2789556 -2757093 -2704708 -2646420 -2596096 
3750.249 -2568100 -2574226 -2621918 -2711063 -2833274 -2973122 -3111051 
3753.624 -3228479 -3313619 -3361263 -3373691 -3357613 -3322859 -3279289 
3756.999 -3236241 -3201542 -3181972 -3182728 -3208647 -3260906 -3337360 
3760.375 -3429711 -3525362 -3608900 -3666663 -3690154 -3678294 -3636928 
3763.750 -3576959 -3512610 -3457093 -3418797 -3399203 -3393154 -3392496 
3767.125 -3389406 -3380924 -3369318 -3362578 -3370798 -3402096 -3460183 
3770.500 -3541466 -3636731 -3734110 -3823717 -3898528 -3955958 -3996834 
3773.875 -4023032 -4036688 -4038067 -4025953 -3998377 -3954185 -3894719 
3777.251 -3825195 -3754214 -3692323 -3650432 -3634398 -3644781 -3674614 
3780.626 -3713414 -3749090 -3773266 -3782562 -3779179 -3768996 -3759503 
3784.001 -3758123 -3768799 -3791595 -3823421 -3859416 -3895310 -3928377 
3787.376 -3958059 -3985540 -4012428 -4039446 -4066167 -4090949 -4111036 
3790.752 -4123672 -4126495 -4118027 -4097349 -4064295 -4019125 -3962032 
3794.127 -3894259 -3818068 -3737757 -3658581 -3586554 -3525921 -3477473 
3797.502 -3438093 -3401504 -3361756 -3313981 -3258374 -3200588 -3152105 
3800.877 -3127334 -3136907 -3183682 -3258439 -3345481 -3426686 -3489142 
3804.253 -3527761 -3544029 -3546133 -3545442 -3555302 -3585010 -3637454 
3807.628 -3707402 -3784040 -3856100 -3914947 -3956549 -3980090 -3986164 
3811.003 -3974968 -3946206 -3897642 -3827888 -3736673 -3627728 -3508468 
3814.378 -3392069 -3294054 -3227755 -3198812 -3200588 -3215784 -3221605 
3817.754 -3200457 -3143717 -3054332 -2945018 -2837454 -2758805 -2732498 
3821.129 -2770888 -2867903 -3001850 -3143519 -3268009 -3361723 -3421920 
3824.504 -3453708 -3467382 -3474679 -3484934 -3503538 -3529700 -3557865 
3827.879 -3579588 -3586817 -3574231 -3541269 -3491245 -3430763 -3367115 
3831.255 -3306582 -3251435 -3200161 -3148289 -3090719 -3024719 -2950777 
3834.630 -2872741 -2796864 -2729732 -2675038 -2633412 -2602387 -2577915 
3838.005 -2557559 -2541451 -2534039 -2541484 -2569088 -2619711 -2691898 
3841.380 -2781062 -2881464 -2986680 -3092989 -3198780 -3303952 -3408671 
3844.756 -3510835 -3605416 -3685653 -3743144 -3770638 -3763872 -3720707 
3848.131 -3641331 -3527104 -3379346 -3199766 -2990135 -2756106 -2509201 
3851.506 -2269375 -2068494 -1943858 -1927134 -2028096 -2223490 -2466373 
3854.881 -2706815 -2913193 -3074895 -3196576 -3288200 -3358896 -3412518 
3858.257 -3447495 -3458737 -3441216 -3393417 -3318847 -3226637 -3127696 
3861.632 -3033274 -2951567 -2886961 -2841865 -2817835 -2816287 -2837948 
3865.007 -2879555 -2931097 -2976874 -2999579 -2985199 -2927740 -2832549 
3868.382 -2716858 -2608151 -2533677 -2513385 -2548171 -2621457 -2706584 
3871.758 -2780601 -2833833 -2869483 -2901377 -2945808 -3015835 -3112728 
3875.133 -3226012 -3335617 -3419290 -3459920 -3447199 -3380398 -3267483 
3878.508 -3125131 -2974866 -2842227 -2750048 -2710733 -2723345 -2771646 
3881.883 -2831430 -2876230 -2887026 -2857336 -2795218 -2722324 -2667728 
3885.259 -2660614 -2715738 -2827414 -2970029 -3109669 -3216606 -3272317 
3888.634 -3273600 -3229729 -3160394 -3088318 -3036860 -3022679 -3052390 
3892.009 -3121413 -3217066 -3323451 -3424747 -3506299 -3558062 -3571668 
3895.384 -3541893 -3467119 -3349427 -3194504 -3012084 -2814543 -2615924 
3898.760 -2429438 -2266902 -2135201 -2036737 -1969026 -1927497 -1907572 
3902.135 -1907572 -1929377 -1978954 -2062921 -2185842 -2346267 -2536378 
3905.510 -2743298 -2951863 -3148519 -3324010 -3473167 -3594769 -3689957 
3908.885 -3760948 -3810284 -3840500 -3854260 -3854293 -3842897 -3821648 
3912.260 -3789624 -3743900 -3679740 -3593324 -3483094 -3352912 -3211936 
3915.636 -3074335 -2956141 -2870108 -2823694 -2816156 -2840845 -2887487 
3919.011 -2945446 -3006786 -3064465 -3113156 -3147828 -3164177 -3159769 
3922.386 -3136447 -3101115 -3065255 -3042322 -3044889 -3078810 -3141841 
3925.761 -3223184 -3307602 -3379017 -3424418 -3436811 -3414063 -3359356 
3929.137 -3278368 -3180492 -3076540 -2979342 -2903286 -2861912 -2864710 
3932.512 -2914805 -3007148 -3129144 -3262747 -3390721 -3499199 -3580705 
3935.887 -3634267 -3663969 -3677078 -3679280 -3674187 -3661735 -3638998 
3939.262 -3601966 -3547743 -3477177 -3395455 -3312633 -3240812 -3192662 
3942.638 -3176577 -3194208 -3238970 -3297342 -3353701 -3392595 -3404102 
3946.013 -3386118 -3344462 -3290502 -3238707 -3203055 -3192826 -3211640 
3949.388 -3257190 -3323451 -3402096 -3484409 -3562992 -3631277 -3684274 
3952.763 -3718868 -3734209 -3732139 -3716502 -3693308 -3668897 -3648165 
3956.139 -3634168 -3626906 -3623719 -3620860 -3615012 -3603412 -3585470 
3959.514 -3562565 -3537424 -3513891 -3496044 -3487301 -3490489 -3506365 
3962.889 -3533414 -3567658 -3604069 -3636501 -3660027 -3671362 -3669883 
3966.264 -3656642 -3634562 -3606797 -3576301 -3545673 -3516981 -3492330 
3969.640 -3473266 -3461104 -3455877 -3456732 -3460742 -3464654 -3465114 
3973.015 -3460446 -3450683 -3437732 -3425766 -3417613 -3416068 -3421821 
3976.390 -3433787 -3449697 -3466593 -3481648 -3492856 -3499101 -3500186 
3979.765 -3496965 -3491311 -3485395 -3481450 -3480826 -3484211 -3490325 
3983.141 -3497326 -3502618 -3504130 -3501172 -3494171 -3484277 -3473430 
3986.516 -3462681 -3452984 -3444372 -3437206 -3432176 -3430302 -3432538 
3989.891 -3439310 -3450026 -3462583 -3474186 -3482535 -3486052 -3485033 
3993.266 -3481713 -3478887 -3479248 -3484770 -3495518 -3511130 -3529864 
3996.642 -3550767 -3572391 -3594310 -3616293 -3637355 -3657004 -3674286 
4000.017 -3688512 -3699255 
##END=
