
##TITLE=Z351_2_c
##JCAMP-DX=5.01  $$ Nicolet v. 1
##DATATYPE=INFRARED SPECTRUM
##ORIGIN=UniL
##OWNER=Nicolet
##LONGDATE=2011/09/13
##TIME=13:40:42
##SPECTROMETER/DATA SYSTEM=Nicolet iS5
##DATA PROCESSING=
Ratio against background
%Transmittance->Absorbance
Truncated
ElementMultiply or ElementDivide
##COMMENTS=
Number of sample scans: 32
Collection length: 51.18 sec
Sample gain: 2.0
Background collected on: Mar Sep 13 11:10:05 2011 (GMT+02:00);
Number of background scans: 32
Background gain: 2.0
Sample spacing:  1.000
Number of scan points: 12415
Resolution points: 8192
Number of FFT points: 65536
Apodization: N-B fort;
Phase correction: Mertz;
Laser frequency: 15798.0 cm-1
Number of rejected sample scans: 0
Number of rejected background scans: 0
Bench serial number: ASB1000141;
##RESOLUTION=4.000
##XUNITS=1/CM
##YUNITS=ABSORBANCE
##FIRSTX=649.893372
##LASTX=4000.122314
##FIRSTY=0.100976
##MAXX=4000.122314
##MINX=649.893372
##MAXY=0.291503
##MINY=-0.004605
##XFACTOR=1.000000
##YFACTOR=1.000000E-009
##NPOINTS=6950
##DELTAX=0.482117
##ZPD=6100
##XYDATA=(X++(Y..Y))
649.893 100976144 100524320 100106504 99751048 99470232 99263432 99128608 
653.268 99070368 99104336 99252304 99528776 99932640 100442640 101026944 
656.643 101656040 102317760 103022736 103798792 104676496 105672816 
659.536 106788224 108010248 109328192 110746824 112290104 113992264 
662.428 115884976 117982168 120279944 122766784 125443768 128331992 
665.321 131455552 134808736 138287664 141608416 144328480 145948176 
668.214 146154176 145003376 142860144 140180560 137304016 134423792 
671.107 131606936 128849312 126138344 123476456 120883784 118395312 
673.999 116038736 113826184 111756664 109823072 108022232 106357232 
676.892 104833800 103452072 102199600 101051696 99976472 98942944 97932408 
680.267 96938304 95966552 95025184 94119296 93246056 92396544 91560024 
683.642 90730616 89910536 89110192 88343432 87622296 86953840 86338384 
687.016 85771320 85244024 84747688 84273520 83811200 83350096 82877824 
690.391 82381856 81852736 81286096 80683248 80051000 79399096 78739160 
693.766 78081448 77437488 76820384 76244232 75725488 75279776 74917760 
697.141 74643616 74453416 74336416 74278192 74264864 74288376 74345976 
700.516 74440280 74575080 74751792 74966504 75210752 75473384 75745920 
703.890 76024632 76311216 76610328 76925424 77255992 77596280 77937864 
707.265 78273488 78601832 78928624 79267048 79634144 80051272 80541432 
710.640 81130576 81850016 82731600 83800752 85065488 86503584 88053304 
714.015 89610352 91051440 92249464 93100904 93555960 93621024 93361192 
717.390 92876880 92297200 91758320 91381976 91283840 91557080 92261184 
720.765 93412880 94962824 96789712 98685976 100395664 101657384 102238592 
724.139 102011816 100977024 99270592 97122616 94811704 92605480 90689952 
727.514 89165352 88044328 87279168 86793736 86512520 86381520 86363736 
730.889 86435048 86575200 86759344 86960720 87157328 87335400 87494968 
734.264 87645408 87799896 87967480 88148560 88336896 88523448 88702360 
737.639 88873784 89044048 89221296 89411856 89617072 89833392 90055328 
741.013 90278960 90502624 90727352 90954032 91181480 91406344 91624744 
744.388 91834864 92039552 92244992 92458240 92682248 92913520 93141304 
747.763 93352280 93535408 93685896 93807352 93909096 94001576 94090704 
751.138 94176992 94256728 94325888 94384152 94436160 94489496 94551240 
754.513 94623792 94703552 94782728 94853416 94912608 94963944 95016968 
757.888 95083128 95173248 95293512 95444976 95625528 95831264 96058184 
761.262 96301976 96558936 96825032 97098048 97379072 97676000 98005224 
764.637 98390352 98864384 99466976 100238712 101220624 102440944 103902152 
768.012 105564256 107334040 109071712 110595704 111735840 112377608 
770.905 112502864 112212784 111711504 111262504 111087408 111309584 
773.797 111895296 112661744 113308152 113499976 112988480 111655664 
776.690 109560704 106897128 103946520 100986432 98218168 95756656 93615720 
780.065 91740840 90041384 88432416 86856136 85287656 83733608 82220864 
783.440 80785720 79461680 78275512 77245064 76378128 75675352 75132392 
786.815 74743376 74504112 74415184 74482752 74718504 75137552 75753968 
790.189 76580848 77627856 78903632 80418760 82188112 84229992 86564280 
793.564 89204664 92150960 95380344 98845624 102471824 106155584 109781896 
796.939 113225272 116363864 119107680 121408800 123284480 124817528 
799.832 126156240 127484384 128969608 130735368 132803264 135072736 
802.724 137301552 139143456 140218736 140160384 138735776 135900544 
805.617 131826640 126860064 121446792 116046128 110993056 106465816 
808.510 102463680 98847080 95398832 91904704 88231888 84345536 80314656 
811.885 76266144 72352440 68702936 65396456 62467732 59909848 57693504 
815.259 55779992 54132540 52720204 51514636 50491248 49627172 48901484 
818.634 48298264 47806612 47420244 47136284 46953396 46870340 46886324 
822.009 47001316 47217176 47536856 47964924 48505284 49160584 49930456 
825.384 50811004 51793596 52861040 53986676 55134084 56255036 57299184 
828.759 58223644 59001568 59636348 60164640 60659824 61216144 61943164 
832.133 62950568 64322232 66106976 68293728 70802344 73464400 76027824 
835.508 78199256 79651424 80102672 79383936 77465568 74483184 70695848 
838.883 66455932 62115880 57972556 54252508 51074228 48469680 46406112 
842.258 44815148 43614852 42724012 42076700 41616216 41296160 41082096 
845.633 40947320 40874508 40854996 40883792 40956752 41068180 41209408 
849.008 41371708 41550000 41744996 41963404 42214892 42508876 42849648 
852.382 43235632 43661272 44121032 44612488 45138620 45706616 46325596 
855.757 47004936 47751280 48571904 49476020 50476620 51592392 52847080 
859.132 54266060 55878224 57714920 59808112 62192384 64894272 67922056 
862.507 71246792 74788008 78406944 81896056 85017640 87527520 89205800 
865.882 89914288 89608568 88354152 86307544 83701224 80809184 77886600 
869.256 75167648 72832648 70992600 69707144 68984384 68794808 69077912 
872.631 69751256 70719008 71863816 73060568 74183648 75106832 75730696 
876.006 75991552 75870480 75396552 74639640 73699440 72677976 71670096 
879.381 70747480 69945448 69266904 68685352 68159000 67639480 67087672 
882.756 66484236 65831624 65153048 64484140 63865348 63330308 62900088 
886.131 62584056 62381576 62289208 62305236 62434176 62684872 63067980 
889.505 63590072 64250388 65039500 65943068 66944152 68028576 69188448 
892.880 70420888 71726328 73105840 74557648 76074680 77643936 79241872 
896.255 80831936 82363752 83766000 84955832 85848072 86362440 86446288 
899.630 86082520 85295552 84145368 82720568 81128224 79471304 77847400 
903.005 76340288 75010016 73899680 73035592 72428224 72078896 71982408 
906.379 72131312 72517960 73136736 73985120 75061688 76365928 77896672 
909.754 79651376 81626912 83819000 86221016 88822880 91607848 94548312 
913.129 97609824 100751240 103932544 107126768 110324664 113540432 116808760 
916.504 120181088 123714992 127456696 131432592 135628416 139979280 
919.397 144348704 148532672 152278912 155291312 157303664 158132624 
922.289 157725136 156200160 153847776 151120496 148530400 146612960 
925.182 145854192 146583008 148955680 152902288 158144496 164184016 
928.075 170361824 175990640 180372832 182948448 183381440 181552784 
930.967 177566464 171678608 164256320 155701744 146413824 136798752 
933.860 127219784 117999344 109424016 101702232 94979776 89341592 84810760 
937.235 81372448 78986688 77602856 77159888 77578696 78756992 80539672 
940.610 82714760 85035416 87211032 88962216 90068088 90378784 89853808 
943.985 88554968 86636392 84302280 81769248 79247440 76894696 74817256 
947.359 73071192 71665832 70581504 69780360 69221128 68862360 68666328 
950.734 68601760 68639288 68752576 68920184 69124648 69354976 69606976 
954.109 69881608 70181936 70510640 70868184 71253008 71661848 72092512 
957.484 72544112 73017320 73512472 74028896 74563352 75111480 75669352 
960.859 76235504 76811760 77402320 78011928 78643440 79296752 79968776 
964.233 80655480 81354496 82065656 82791408 83534608 84296856 85077616 
967.608 85874192 86683968 87506528 88343840 89200960 90082720 90992064 
970.983 91929320 92892264 93878008 94885696 95916880 96975368 98065232 
974.358 99188640 100345520 101534256 102753824 104006048 105295624 106628640 
977.733 108011144 109446352 110934656 112475776 114072096 115730800 
980.625 117465416 119292840 121229120 123286192 125467880 127770128 
983.518 130180416 132680640 135243312 137827584 140380288 142827952 
986.411 145081712 147053008 148656256 149828592 150541184 150800640 
989.304 150650352 150160944 149431152 148571248 147692800 146908448 
992.196 146310512 145967600 145922768 146189680 146760288 147612224 
995.089 148720272 150061552 151618704 153380080 155334912 157468896 
997.982 159765760 162205472 164768560 167438720 170199600 173030960 
1000.874 175904848 178778448 181598336 184308464 186854560 189199616 
1003.767 191327696 193245952 194980800 196574496 198084080 199571680 
1006.660 201106000 202757792 204586752 206638880 208938752 211487280 
1009.552 214265568 217242416 220385152 223660640 227038544 230489280 
1012.445 233975088 237452240 240875808 244202800 247403584 250462256 
1015.338 253369744 256112672 258660464 260956176 262925056 264483600 
1018.231 265558480 266109232 266136528 265688688 264851808 263751920 
1021.123 262543552 261386336 260450272 259889152 259817040 260308512 
1024.016 261382128 263008240 265115408 267611296 270399808 273379712 
1026.909 276455712 279529952 282488416 285212096 287577376 289465184 
1029.802 290785696 291476512 291503328 290854272 289529280 287538432 
1032.695 284902720 281662560 277880352 273631648 269002656 264071904 
1035.588 258899248 253531184 248003280 242350640 236619904 230868416 
1038.481 225161232 219569984 214159120 208985744 204100160 199537568 
1041.374 195316128 191426848 187825296 184423152 181088224 177672208 
1044.267 174018320 169999488 165549936 160671552 155440144 149982592 
1047.160 144466912 139066688 133933800 129198552 124947656 121225312 
1050.053 118041832 115377008 113191392 111432736 110048880 108989384 
1052.947 108208600 107669016 107334640 107167048 107124056 107153480 
1055.840 107194320 107185792 107066088 106782032 106297384 105590832 
1058.733 104661568 103528936 102233936 100836528 99409072 98038288 96809624 
1062.108 95800616 95079696 94693584 94669568 95014704 95717048 96745992 
1065.483 98051408 99569192 101215520 102890696 104495352 105928488 107104040 
1068.858 107964232 108476352 108636368 108461296 107983224 107240976 
1071.751 106273176 105118272 103810152 102378568 100852752 99261096 97635472 
1075.127 96015152 94443904 92972336 91655232 90541680 89674184 89083264 
1078.502 88782264 88768200 89020496 89504648 90169696 90950392 91774768 
1081.877 92559264 93222728 93699208 93944352 93950360 93749048 93413576 
1085.252 93043960 92754528 92667080 92885088 93490000 94535136 96036736 
1088.628 97974256 100286416 102881120 105630808 108385336 110999520 
1091.521 113333736 115278136 116766664 117770448 118298232 118384128 
1094.414 118080784 117448048 116545080 115434360 114175264 112825696 
1097.307 111447432 110097560 108827200 107675008 106654944 105749904 
1100.200 104904752 104035472 103031768 101775896 100173736 98164376 95741992 
1103.575 92955632 89907200 86733848 83578384 80587104 77881496 75547944 
1106.950 73643608 72191488 71188832 70614016 70434104 70608992 71091760 
1110.326 71834256 72784336 73883064 75070352 76278792 77434640 78467912 
1113.701 79310160 79904488 80215048 80226728 79947784 79404432 78638000 
1117.076 77696792 76627920 75478232 74287552 73086672 71900176 70743816 
1120.451 69626344 68552560 67524304 66543864 65615104 64743288 63934056 
1123.827 63190556 62511348 61889248 61312676 60770368 60254844 59768152 
1127.202 59322716 58942136 58655968 58491744 58471992 58606172 58889196 
1130.577 59300308 59806288 60365632 60928592 61447204 61879044 62191888 
1133.952 62371440 62423272 62373660 62262708 62140160 62056708 62051704 
1137.328 62150788 62360576 62668220 63042848 63438968 63806012 64086608 
1140.703 64227992 64187652 63933864 63450664 62736132 61801068 60665004 
1144.078 59353596 57898424 56332852 54692172 53014424 51334108 49684196 
1147.453 48093528 46582168 45164868 43849376 42638688 41533408 40533536 
1150.829 39639220 38850328 38165708 37582372 37095732 36700344 36391600 
1154.204 36166724 36024576 35965432 35989152 36094776 36280064 36543028 
1157.579 36882792 37300800 37800464 38385724 39059380 39821744 40670036 
1160.954 41599040 42601260 43668340 44788480 45945660 47119336 48281936 
1164.330 49401836 50447260 51386548 52192812 52845508 53329152 53634432 
1167.705 53758316 53704244 53482624 53110836 52612996 52015508 51346900 
1171.080 50635088 49903956 49175576 48470124 47804804 47197488 46665024 
1174.455 46221468 45878924 45645476 45525244 45519396 45626996 45846448 
1177.831 46176176 46615920 47167420 47836392 48633232 49573948 50679916 
1181.206 51973044 53473072 55194240 57141104 59309916 61689880 64265788 
1184.581 67016720 69912744 72914008 75958872 78964112 81832776 84449280 
1187.956 86699664 88485704 89726160 90373280 90413992 89870392 88796088 
1191.332 87269080 85389080 83258344 80979000 78648048 76342976 74126816 
1194.707 72045336 70124840 68377992 66805788 65400580 64148976 63033312 
1198.082 62034236 61129096 60293864 59504848 58736984 57967448 57176520 
1201.457 56347564 55470828 54544164 53574944 52579112 51580040 50606456 
1204.833 49685160 48839336 48084348 47426564 46864660 46392508 46002492 
1208.208 45687476 45441248 45258960 45135348 45064220 45040292 45059328 
1211.583 45120900 45228184 45388348 45609588 45899440 46263376 46704164 
1214.958 47222240 47816564 48484720 49222516 50022244 50873508 51762764 
1218.333 52675428 53599380 54525644 55449484 56370160 57288788 58208412 
1221.709 59132916 60069472 61028604 62024528 63074916 64196260 65400348 
1225.084 66692188 68067176 69512088 71005512 72521520 74029952 75496056 
1228.459 76885272 78162448 79295560 80261960 81049792 81661544 82113128 
1231.834 82435216 82671992 82875336 83111152 83453088 83976248 84761904 
1235.210 85885304 87409704 89387712 91853816 94825592 98305624 102282992 
1238.585 106733312 111613976 116866952 122412008 128145368 133955720 
1241.478 139718992 145308480 150608544 155504000 159886320 163661840 
1244.371 166745536 169072064 170600752 171311872 171207344 170305856 
1247.264 168643152 166269920 163250096 159662528 155587040 151096912 
1250.157 146250736 141084112 135615072 129853712 123816368 117539024 
1253.050 111087192 104549728 98041856 91691848 85618312 79932008 74717560 
1256.426 70022600 65863864 62224960 59065720 56327232 53942780 51845380 
1259.801 49966332 48245792 46633776 45090316 43590420 42122336 40684372 
1263.176 39282208 37924540 36620452 35376916 34200420 33096530 32070172 
1266.551 31125890 30265108 29485776 28781510 28143426 27563576 27036896 
1269.927 26563230 26146448 25792122 25504842 25285916 25134118 25047268 
1273.302 25024700 25068540 25182922 25371830 25635400 25968106 26356760 
1276.677 26780650 27215396 27631472 27997164 28283338 28462456 28515420 
1280.052 28434934 28227290 27912354 27517824 27075862 26613848 26149616 
1283.427 25692100 25242896 24801314 24369712 23955906 23572648 23235306 
1286.803 22956488 22744850 22604442 22536138 22540744 22620426 22778160 
1290.178 23015844 23332420 23722362 24175846 24680302 25222424 25786462 
1293.553 26354612 26906550 27416980 27861478 28220360 28483296 28654002 
1296.928 28750212 28800948 28838548 28895528 28999690 29171060 29424148 
1300.304 29767186 30200812 30715308 31287242 31880290 32443974 32922390 
1303.679 33265878 33434038 33405804 33179962 32773256 32215208 31541884 
1307.054 30794974 30015152 29240486 28506328 27838726 27254696 26760810 
1310.429 26354366 26027874 25773522 25586758 25466826 25415216 25431726 
1313.805 25512012 25646896 25825422 26038006 26280542 26554846 26866684 
1317.180 27222450 27624800 28071456 28556574 29072452 29612748 30173320 
1320.555 30750550 31338628 31927928 32503604 33046972 33539868 33966640 
1323.930 34317548 34590484 34791860 34937592 35051012 35165640 35320016 
1327.306 35550860 35889344 36351176 36930948 37603040 38327560 39061264 
1330.681 39765056 40415516 41005436 41542048 42039724 42515164 42983224 
1334.056 43454608 43937756 44440096 44967228 45522672 46105576 46711252 
1337.431 47331592 47959224 48589984 49223928 49863592 50510084 51159248 
1340.807 51801024 52421060 53005028 53543568 54033200 54475684 54875228 
1344.182 55234576 55552872 55826676 56051376 56224452 56345528 56414456 
1347.557 56426716 56369860 56220000 55945420 55515032 54904628 54107468 
1350.932 53138056 52034000 50849968 49648904 48500800 47469768 46610460 
1354.308 45967168 45564292 45404684 45465788 45703816 46058048 46459172 
1357.683 46846204 47168640 47392380 47502628 47500296 47402432 47240004 
1361.058 47063464 46938924 46938224 47132668 47568908 48254828 49155356 
1364.433 50200072 51300848 52360872 53294912 54031816 54514300 54706528 
1367.809 54593572 54183512 53504812 52602972 51533292 50347496 49093764 
1371.184 47812752 46537504 45305300 44162372 43163604 42374172 41851048 
1374.559 41625296 41691524 42008148 42514464 43146512 43860372 44639296 
1377.934 45493272 46451688 47554640 48847088 50371568 52169456 54275864 
1381.310 56705108 59430340 62358092 65330288 68112488 70428216 72016592 
1384.685 72642336 72155056 70520856 67854416 64422340 60591016 56777004 
1388.060 53318512 50417040 48137096 46429232 45185128 44274772 43582576 
1391.435 43012632 42491956 41976504 41446352 40907232 40384968 39916172 
1394.811 39531384 39239916 39025340 38853192 38688388 38508188 38314168 
1398.186 38131592 38003660 37972416 38061632 38268752 38566884 38918128 
1401.561 39285180 39645100 39992060 40337952 40707008 41130028 41635216 
1404.936 42238044 42938304 43719532 44556828 45422376 46294520 47162400 
1408.312 48024908 48889284 49766196 50666848 51599032 52566548 53568532 
1411.687 54598080 55640428 56668452 57644612 58522264 59251576 59795944 
1415.062 60138004 60288576 60283968 60186564 60081872 60064984 60242552 
1418.437 60707032 61503964 62612340 63939704 65357132 66730864 67961616 
1421.813 69001112 69848296 70552352 71198000 71892504 72726432 73747064 
1425.188 74943672 76257976 77609232 78921392 80149696 81281304 82333312 
1428.563 83339384 84339984 85372016 86463392 87639560 88923304 90329952 
1431.938 91864544 93513464 95249864 97038296 98856768 100714512 102663912 
1435.313 104800608 107240168 110079496 113333488 116923120 120705728 
1438.207 124531064 128274320 131834712 135129536 138056704 140489664 
1441.100 142300048 143354976 143547920 142817312 141146288 138571344 
1443.993 135176896 131102352 126524464 121633872 116642728 111752512 
1446.886 107150216 103010600 99459816 96556072 94272040 92510224 91136112 
1450.261 90020920 89086640 88313096 87731408 87389248 87317168 87497688 
1453.636 87865120 88313016 88726168 89017688 89156320 89202056 89300936 
1457.011 89653000 90410368 91617304 93230000 95161408 97327992 99661632 
1460.387 102108464 104612832 107103656 109504976 111722472 113648976 
1463.280 115186856 116259656 116847304 116999320 116836080 116506432 
1466.173 116133744 115801000 115539056 115342608 115185944 115031848 
1469.066 114833296 114523976 114017768 113213064 112008320 110346360 
1471.959 108255872 105873864 103401824 101036016 98902952 97043272 95448984 
1475.334 94108384 93030496 92249904 91802816 91696808 91897008 92328304 
1478.709 92902528 93536888 94182264 94831856 95516976 96291016 97206912 
1482.085 98304328 99601240 101104680 102826120 104793104 107049344 109642840 
1485.460 112601624 115903320 119445368 123049704 126446696 129302560 
1488.353 131279288 132053856 131399456 129251688 125735608 121148136 
1491.246 115861736 110242272 104551792 98926208 93420024 88031264 82757816 
1494.621 77652056 72825824 68453472 64735868 61829872 59804044 58623772 
1497.997 58189736 58372680 59049508 60121336 61500796 63105412 64857528 
1501.372 66670984 68458016 70135200 71603816 72753544 73455248 73544648 
1504.747 72842720 71195896 68567112 65125024 61255440 57423360 53947468 
1508.122 50908860 48207212 45693952 43250600 40827400 38436220 36135216 
1511.498 33995840 32066606 30363774 28864930 27525802 26297722 25146442 
1514.873 24060152 23052074 22154550 21405878 20834634 20442520 20198880 
1518.248 20044858 19914200 19749216 19521148 19249344 19011602 18929532 
1521.623 19109092 19592996 20334416 21232360 22174284 23078804 23914908 
1524.999 24695628 25470410 26299200 27233776 28294620 29469640 30724482 
1528.374 32018840 33316892 34587540 35808880 36966016 38054328 39089180 
1531.749 40114000 41207840 42466016 43975156 45761504 47761820 49838468 
1535.124 51826636 53591884 55028536 56070300 56685252 56872704 56679020 
1538.500 56201936 55608080 55081456 54763956 54705172 54854436 55106772 
1541.875 55349468 55500200 55504224 55328168 54961256 54415064 53726704 
1545.250 52947980 52130676 51303608 50462144 49574132 48598284 47508692 
1548.625 46315532 45073592 43862720 42763020 41813580 41001284 40273308 
1552.000 39569456 38850292 38112672 37386452 36710980 36103276 35534104 
1555.376 34925708 34169408 33160254 31824380 30167390 28313646 26553472 
1558.751 25269306 24729264 24923310 25588446 26410454 27144284 27660146 
1562.126 27913238 27900800 27653898 27227108 26697628 26145394 25632588 
1565.501 25184712 24781282 24369852 23890928 23309696 22636588 21940580 
1568.877 21328472 20916854 20775472 20893352 21185320 21530682 21823322 
1572.252 21982160 21963200 21751346 21353912 20803244 20162538 19542150 
1575.627 19079144 18898384 19060448 19528598 20193048 20919046 21601752 
1579.002 22176830 22623674 22956872 23211048 23426552 23633310 23846120 
1582.378 24063796 24277972 24480334 24668412 24843906 25006906 25150128 
1585.753 25259226 25315594 25306288 25231554 25108280 24966052 24839942 
1589.128 24762410 24754904 24828502 24986128 25225864 25541458 25918616 
1592.503 26332750 26744176 27102276 27358254 27471440 27423190 27219736 
1595.879 26890546 26477184 26020874 25558010 25114176 24707412 24355064 
1599.254 24073532 23878954 23783780 23792428 23901674 24103582 24390460 
1602.629 24756902 25198476 25706724 26262590 26833304 27377946 27849430 
1606.004 28206252 28420678 28479048 28382686 28142260 27773374 27291390 
1609.380 26711194 26051444 25335580 24591088 23845874 23115986 22400926 
1612.755 21680634 20923080 20096008 19182468 18194308 17186742 16259689 
1616.130 15529653 15096392 14993349 15176058 15541295 15970910 16368367 
1619.505 16658546 16797044 16766805 16578745 16277783 15939904 15667895 
1622.881 15554070 15650341 15946779 16379857 16862246 17315100 17698292 
1626.256 18011774 18290096 18581286 18930362 19358910 19857972 20392856 
1629.631 20917064 21387186 21765212 22020884 22129026 22063936 21803916 
1633.006 21338146 20682888 19894912 19082916 18405504 18015470 17999930 
1636.382 18335370 18908144 19571472 20199226 20716668 21087396 21304354 
1639.757 21377580 21325652 21169978 20928016 20611030 20219152 19740514 
1643.132 19154038 18435892 17569372 16561499 15456549 14343204 13353681 
1646.507 12620426 12228326 12174585 12371964 12680806 12952521 13068295 
1649.883 12932551 12474217 11648497 10461116 9024970 7596188 6574601 6300324 
1653.740 6825085 7904080 9193712 10436407 11485977 12294617 12868416 
1657.115 13234278 13428995 13486343 13432003 13278995 13031760 12693838 
1660.490 12276279 11808592 11342972 10943460 10674357 10574361 10638872 
1663.866 10819554 11039667 11222523 11299542 11224902 10976524 10554670 
1667.241 9984834 9316817 8630762 8020676 7574743 7350683 7353009 7532599 
1671.098 7801481 8067493 8249641 8293239 8180183 7930367 7605898 7296464 
1674.956 7104241 7098885 7286052 7606876 7968466 8286654 8499979 8581992 
1678.813 8534411 8374741 8122247 7784209 7348594 6787086 6069429 5190963 
1682.671 4200003 3229925 2494722 2198465 2427378 3084808 3965205 4856840 
1686.528 5617302 6189465 6569555 6790889 6901767 6955567 6996375 7050490 
1690.385 7124315 7204115 7261591 7256941 7148533 6898973 6481834 5894440 
1694.243 5172185 4404434 3713123 3214203 2951714 2872991 2853780 2760303 
1698.100 2505120 2069405 1530870 1052185 848131 1058629 1656244 2464064 
1701.958 3269751 3921102 4338332 4514503 4490599 4345929 4175848 4070046 
1705.815 4089144 4244100 4504526 4817136 5132352 5412468 5637073 5801078 
1709.673 5906833 5957789 5954631 5892324 5763001 5559641 5279732 4929019 
1713.530 4519358 4068975 3595739 3116110 2649111 2222410 1880445 1686878 
1717.387 1705340 1974233 2481326 3161799 3919197 4654205 5295764 5800138 
1721.245 6156328 6380141 6506856 6580925 6642154 6719073 6820743 6939709 
1725.102 7057966 7156179 7219140 7236592 7204250 7121519 6991729 6821248 
1728.960 6618604 6391573 6141171 5857832 5519537 5098859 4574136 3951931 
1732.817 3283172 2681215 2294153 2231768 2503953 3005360 3581106 4082722 
1736.675 4416116 4545976 4483233 4280104 4015231 3781335 3649432 3649766 
1740.532 3767130 3957949 4173038 4375114 4546746 4683745 4787654 4858247 
1744.389 4890147 4875101 4806281 4684047 4518085 4324979 4127075 3944975 
1748.247 3794003 3684751 3625107 3623637 3691401 3838260 4065631 4360387 
1752.104 4693593 5025947 5315453 5530377 5650768 5673763 5614248 5504135 
1755.962 5386702 5301298 5272790 5298917 5353559 5394854 5382777 5293752 
1759.819 5126753 4907572 4682238 4508912 4434895 4480187 4630628 4844778 
1763.677 5070330 5257161 5372411 5399920 5340040 5205650 5018539 4802730 
1767.534 4575441 4342181 4093191 3810315 3474546 3080603 2646744 2223675 
1771.391 1888399 1721240 1779093 2062979 2518450 3055810 3590962 4066133 
1775.249 4453674 4752646 4975168 5134833 5239722 5290700 5286809 5232042 
1779.106 5141673 5043344 4967795 4941251 4972587 5050451 5148378 5236871 
1782.964 5296536 5322497 5325717 5325583 5341684 5383280 5446220 5514940 
1786.821 5569340 5590350 5561386 5470949 5309617 5072274 4760452 4389004 
1790.678 3993160 3623704 3345541 3214804 3256364 3453939 3755566 4097573 
1794.536 4419062 4679090 4859085 4955528 4976140 4932706 4839618 4712417 
1798.393 4568778 4431915 4325649 4272307 4285324 4364370 4494148 4650555 
1802.251 4810134 4955360 5079012 5181976 5268832 5342757 5402940 5444911 
1806.108 5463298 5454776 5419647 5362213 5289459 5209339 5130541 5062083 
1809.966 5014685 4999769 5026920 5100401 5215341 5357014 5503967 5635562 
1813.823 5736610 5802018 5837279 5854473 5867571 5886177 5913249 5945662 
1817.680 5977676 6005055 6027867 6049269 6073057 6098427 6119059 6122285 
1821.538 6094327 6025011 5912678 5766056 5605018 5456655 5345407 5286440 
1825.395 5277955 5301298 5325918 5318707 5257228 5135437 4970845 4801859 
1829.253 4683879 4669980 4791038 5043948 5390862 5775256 6137374 6434919 
1833.110 6648143 6779682 6847705 6877933 6894765 6913887 6942402 6982065 
1836.968 7033349 7100065 7187439 7298183 7427020 7557412 7665485 7722819 
1840.825 7706563 7606977 7432312 7211695 6991257 6830942 6785504 6888369 
1844.682 7140954 7512573 7952403 8403759 8821498 9174896 9450046 9648494 
1848.540 9782165 9867744 9919335 9945473 9947100 9919674 9858252 9761562 
1852.397 9634639 9487467 9331813 9175979 9023008 8870835 8715605 8555430 
1856.255 8393219 8236201 8092439 7966779 7858092 7759416 7662652 7561829 
1860.112 7456075 7350212 7250809 7161973 7082450 7005299 6920182 6818758 
1863.969 6695484 6549271 6380410 6189096 5974316 5737148 5485914 5240828 
1867.827 5034730 4909247 4897787 5013579 5240627 5539404 5859209 6153269 
1871.684 6393120 6567537 6681184 6746331 6776619 6782509 6769282 6740812 
1875.542 6701171 6656554 6614365 6579142 6550818 6523808 6490309 6444503 
1879.399 6386496 6322748 6263312 6216623 6185399 6164595 6144364 6115195 
1883.257 6072385 6017889 5958326 5899780 5843559 5784557 5712638 5619249 
1887.114 5502826 5372311 5246463 5147406 5095137 5099093 5155051 5247636 
1890.971 5356779 5463633 5553801 5619685 5659295 5675676 5675408 5668258 
1894.829 5666075 5678261 5710994 5762934 5826667 5890678 5943882 5980800 
1898.686 6002502 6016276 6030622 6051755 6080147 6110994 6136466 6151690 
1902.544 6156530 6155924 6156899 6163688 6175316 6185332 6184525 6165704 
1906.401 6127964 6077090 6023768 5978885 5950197 5940255 5946737 5965683 
1910.259 5993532 6028237 6068622 6111700 6152160 6181870 6191785 6175585 
1914.116 6129443 6053401 5950298 5825357 5685882 5543230 5414380 5318438 
1917.973 5273997 5290733 5363421 5471083 5582530 5668123 5707267 5696759 
1921.831 5650601 5596190 5562292 5567125 5613711 5689004 5773342 5849066 
1925.688 5907707 5950533 5984159 6014193 6040197 6056291 6055283 6034318 
1929.546 5998269 5958763 5928767 5916574 5921175 5932932 5939179 5931488 
1933.403 5909957 5883255 5862634 5857025 5866933 5885338 5901526 5908378 
1937.260 5905019 5896757 5889670 5885673 5877411 5853331 5801515 5719689 
1941.118 5618142 5519302 5450213 5429746 5462224 5535008 5628345 5722845 
1944.975 5810212 5893029 5981405 6083440 6198843 6317100 6422342 6500903 
1948.833 6546782 6564947 6566494 6563904 6563433 6564408 6560910 6549271 
1952.690 6530670 6513651 6508471 6522665 6555057 6595895 6630816 6647134 
1956.548 6640472 6614970 6581363 6549036 6522900 6500096 6474401 6440670 
1960.405 6399980 6359496 6329640 6317234 6322547 6338214 6354386 6363733 
1964.262 6364809 6362220 6362858 6371096 6385252 6399408 6406873 6406369 
1968.120 6403343 6407075 6425066 6458426 6498179 6530670 6543385 6531242 
1971.977 6500365 6464816 6440131 6435356 6450556 6479714 6516106 6559228 
1975.835 6616047 6696662 6806641 6939271 7074839 7187002 7255729 7273417 
1979.692 7248619 7199533 7146310 7100973 7063792 7026547 6979573 6919340 
1983.550 6849994 6782845 6727587 6688889 6662476 6638184 6606324 6564543 
1987.407 6518763 6480690 6459603 6457955 6467405 6475309 6469558 6448000 
1991.264 6419215 6400048 6406941 6447160 6514996 6595895 6672940 6734956 
1995.122 6780355 6815190 6847671 6882040 6915334 6940079 6949978 6944928 
1998.979 6933380 6928330 6941224 6975095 7021799 7065510 7089253 7085616 
2002.837 7057528 7018364 6983446 6965095 6965263 6977688 6993210 7004895 
2006.694 7013347 7024661 7044193 7071673 7098987 7113604 7106127 7076118 
2010.552 7033282 6995365 6978832 6991325 7028163 7073761 7112122 7131826 
2014.409 7132062 7121014 7111516 7112257 7125393 7146613 7169182 7190168 
2018.266 7210987 7239085 7279280 7332520 7393147 7452300 7502190 7540960 
2022.124 7573057 7606404 7645420 7688451 7727002 7749972 7750916 7732162 
2025.981 7704775 7684809 7684944 7709058 7749837 7794026 7829617 7850771 
2029.839 7860892 7869159 7884476 7910795 7945282 7981695 8015075 8046227 
2033.696 8080692 8125320 8182546 8247548 8309889 8357176 8383422 8390483 
2037.553 8388456 8389233 8400617 8422237 8446596 8464096 8468658 8462981 
2041.411 8454839 8455515 8470854 8498560 8528227 8548198 8550834 8537588 
2045.268 8517786 8504304 8507513 8529241 8564486 8602878 8636744 8663717 
2049.126 8686804 8710839 8739034 8768042 8792351 8805809 8807059 8801616 
2052.983 8800297 8813552 8846859 8897146 8954373 9006331 9044491 9067463 
2056.841 9081774 9096730 9118959 9148669 9178787 9199804 9203629 9188230 
2060.698 9158686 9123900 9092331 9067936 9050479 9036540 9023482 9012014 
2064.555 9006263 9009375 9021689 9037792 9048144 9042325 9014652 8966753 
2068.413 8906717 8845743 8792588 8751171 8718885 8690860 8662838 8635156 
2072.270 8612038 8599295 8599363 8609806 8622785 8629308 8622515 8602033 
2076.128 8573510 8545901 8527179 8520725 8525017 8534816 8545731 8555464 
2079.985 8565196 8578004 8595240 8616194 8636237 8651278 8658647 8660202 
2083.843 8660472 8664629 8675547 8691638 8707763 8717735 8717634 8707831 
2087.700 8692686 8677103 8664190 8652867 8639076 8617850 8586926 8549144 
2091.557 8511433 8482307 8467576 8468320 8480145 8496566 8510892 8520252 
2095.415 8525524 8529815 8535357 8542454 8548671 8551273 8549246 8544650 
2099.272 8541575 8544008 8553335 8567156 8581519 8592705 8600411 8608725 
2103.130 8624475 8653171 8696574 8750495 8807397 8859574 8902727 8938442 
2106.987 8972470 9011506 9058565 9112159 9165691 9212258 9247052 9271084 
2110.844 9289295 9308556 9333473 9364619 9398138 9429628 9456108 9479000 
2114.702 9502910 9533188 9572546 9619191 9667704 9711513 9747160 9775897 
2118.559 9803346 9836120 9878624 9930218 9985954 10038102 10081100 10113928 
2122.417 10140451 10167517 10200521 10241806 10289948 10340436 10389199 
2125.792 10434846 10479140 10524864 10574260 10625528 10674629 10715823 
2129.167 10745303 10762760 10772135 10779778 10792040 10812183 10841058 
2132.542 10876933 10917501 10961674 11008162 11055675 11099795 11135317 
2135.918 11156429 11160882 11151806 11137663 11129980 11137187 11162480 
2139.293 11200558 11241393 11274038 11291482 11293999 11287469 11279547 
2142.668 11274786 11272269 11266013 11248568 11215144 11166560 11108360 
2146.043 11047960 10989403 10932927 10873842 10806850 10730528 10649195 
2149.419 10570899 10504327 10453242 10414585 10380037 10338434 10282959 
2152.794 10213039 10133362 10050174 9967746 9884217 9795077 9696334 9591820 
2156.651 9493597 9421535 9395056 9424549 9504603 9616481 9734758 9837306 
2160.509 9912420 9959542 9985309 9995786 9993582 9977579 9944727 9895030 
2164.366 9832934 9765696 9700264 9639517 9580980 9517202 9441818 9353108 
2168.224 9255209 9157705 9069662 8997704 8941453 8896030 8853724 8810204 
2172.081 8765607 8724192 8692550 8673925 8668280 8671829 8679942 8688798 
2175.938 8697993 8707898 8718175 8725139 8721894 8701407 8659627 8598924 
2179.796 8527552 8456325 8394807 8346266 8306309 8266121 8216919 8155299 
2183.653 8083865 8010484 7943595 7887918 7843517 7806069 7770143 7734759 
2187.511 7703055 7682212 7678334 7694590 7727946 7771189 7816291 7856844 
2191.368 7891292 7921391 7949635 7978118 8006299 8031747 8053519 8071881 
2195.226 8089839 8110398 8134908 8161377 8185248 8201658 8208039 8207060 
2199.083 8205337 8209086 8223301 8246264 8271118 8288647 8291449 8277299 
2202.940 8249776 8215737 8182040 8151991 8124678 8096287 8063948 8028102 
2206.798 7993103 7966137 7953111 7955912 7971537 7993778 8016120 8035022 
2210.655 8050818 8066851 8087038 8113571 8144867 8177819 8209356 8237518 
2214.513 8262507 8285100 8304722 8318536 8322657 8312929 8289254 8255280 
2218.370 8219114 8188962 8170729 8165158 8168062 8172991 8174240 8170661 
2222.228 8165260 8164280 8172180 8190684 8216007 8241570 8260211 8267438 
2226.085 8262609 8248661 8230258 8211246 8194769 8181972 8174072 8172450 
2229.942 8178360 8192371 8211720 8231777 8245859 8248628 8238497 8219013 
2233.800 8197672 8183424 8183391 8200239 8232216 8274192 8320900 8368830 
2237.657 8416798 8464806 8512582 8558269 8597842 8627922 8646343 8654286 
2241.515 8655334 8654456 8655469 8659829 8666185 8672235 8676833 8681125 
2245.372 8687987 8701509 8724125 8755329 8791573 8828058 8860318 8886020 
2249.229 8905026 8918623 8928668 8935940 8941250 8945545 8951127 8961341 
2253.087 8980317 9009747 9048584 9091586 9131750 9162205 9179329 9183458 
2256.944 9179025 9171174 9164135 9158720 9153103 9144642 9131615 9115441 
2260.802 9100045 9090808 9091011 9101568 9119298 9139364 9157299 9170429 
2264.659 9179600 9186538 9194186 9203561 9214188 9224037 9231652 9236526 
2268.517 9239978 9243600 9249523 9257849 9267835 9278565 9288956 9299789 
2272.374 9312382 9328293 9347184 9367327 9385272 9397596 9402302 9400101 
2276.231 9394278 9389166 9388488 9393973 9404639 9417336 9428409 9434944 
2280.089 9435553 9430678 9422178 9412155 9403250 9397698 9397969 9406433 
2283.946 9424718 9453840 9493291 9540775 9593954 9649646 9705449 9760071 
2287.804 9813209 9864897 9915132 9964119 10011992 10059431 10108332 10160564 
2291.661 10218500 10283535 10355401 10432743 10513560 10596158 10679893 
2295.036 10765716 10854986 10949101 11048878 11153097 11259722 11366066 
2298.412 11469817 11569441 11664425 11755208 11842981 11929136 12015581 
2301.787 12105109 12200347 12304366 12418978 12544706 12680533 12824116 
2305.162 12972765 13124470 13278414 13435112 13596107 13763180 13937264 
2308.537 14118331 14305843 14498197 14693448 14889473 15083871 15273653 
2311.913 15455657 15627569 15787968 15937636 16079653 16219376 16362723 
2315.288 16515858 16684059 16870134 17075208 17297410 17533424 17777228 
2318.663 18022206 18261586 18489064 18699816 18891116 19061210 19208718 
2322.038 19331854 19427858 19493560 19527490 19530954 19509918 19474328 
2325.414 19438116 19414692 19416078 19449620 19516642 19612374 19726920 
2328.789 19848124 19962594 20058460 20127102 20163960 20168960 20146572 
2332.164 20105620 20057142 20012450 19981814 19971926 19985422 20020950 
2335.539 20074944 20143102 20221650 20308582 20402718 20503476 20609538 
2338.915 20718474 20827022 20931772 21030078 21120336 21201672 21272548 
2342.290 21328540 21361568 21357426 21298054 21163924 20938100 20614194 
2345.665 20200894 19725708 19231958 18771774 18401840 18167600 18101684 
2349.040 18218874 18514928 18967502 19538788 20185446 20860638 21523160 
2352.416 22145656 22712518 23219960 23671204 24071920 24427964 24744206 
2355.791 25025858 25278856 25508146 25717692 25908030 26077374 26221796 
2359.166 26339086 26429328 26496272 26543892 26575840 26591126 26585808 
2362.541 26554142 26491764 26398834 26281036 26147820 26008208 25868922 
2365.917 25731404 25592452 25446378 25287110 25111404 24917518 24705800 
2369.292 24476828 24230180 23965850 23683660 23385638 23074612 22754696 
2372.667 22428664 22097334 21759080 21410786 21049694 20675070 20288272 
2376.042 19893560 19496194 19101060 18711680 18331016 17961182 17604876 
2379.417 17265760 16947712 16654208 16387532 16147634 15933443 15743269 
2382.793 15575844 15431211 15309794 15211848 15136120 15079343 15037149 
2386.168 15004256 14976578 14951816 14929559 14910493 14895165 14883438 
2389.543 14873735 14864065 14852853 14839001 14822819 14805060 14786924 
2392.918 14769030 14752199 14736910 14724056 14714597 14709626 14709147 
2396.294 14712162 14717202 14722822 14728718 14736328 14748805 14769613 
2399.669 14801563 14845036 14898526 14958984 15023292 15089840 15158696 
2403.044 15231579 15310309 15396090 15488721 15587075 15690086 15797729 
2406.419 15910689 16030658 16158501 16293675 16434295 16577438 16721178 
2409.795 16865276 17011628 17162648 17320652 17485542 17654084 17821068 
2413.170 17980348 18127456 18259720 18377264 18481526 18574162 18656094 
2416.545 18727386 18787344 18835750 18873226 18901120 18920916 18933512 
2419.920 18939500 18938532 18931366 18919460 18905340 18892604 18883816 
2423.296 18880458 18882568 18889386 18900392 18916036 18939086 18972832 
2426.671 19020566 19084026 19163318 19256964 19362894 19479838 19607902 
2430.046 19747518 19899770 20064566 20240778 20426648 20620378 20821182 
2433.421 21029520 21246554 21473410 21710346 21956612 22210760 22471860 
2436.797 22739680 23014934 23298754 23591572 23892678 24200016 24511674 
2440.172 24826538 25145142 25469636 25802214 26144688 26496378 26854980 
2443.547 27217018 27579922 27942672 28306574 28674036 29047796 29428366 
2446.922 29814952 30204472 30593914 30980718 31363628 31742566 32117408 
2450.298 32487142 32850336 33204388 33547170 33877752 34196472 34504520 
2453.673 34802628 35090488 35366208 35626528 35867968 36087544 36283452 
2457.048 36455128 36601924 36723388 36817940 36883116 36916880 36916948 
2460.423 36882068 36811592 36705356 36563752 36388068 36180696 35945528 
2463.799 35688576 35417036 35138480 34859640 34586320 34322176 34070088 
2467.174 33832908 33614112 33418220 33250566 33115554 33017014 32956418 
2470.549 32933362 32946516 32993454 33071856 33178672 33310022 33461842 
2473.924 33629112 33806728 33990716 34178120 34367040 34555824 34742428 
2477.300 34923980 35096052 35254108 35394028 35513428 35611388 35688900 
2480.675 35747068 35787004 35809132 35812764 35797548 35762828 35709220 
2484.050 35638148 35551436 35451836 35342196 35225324 35104176 34981584 
2487.425 34859748 34740136 34622420 34505560 34386800 34263512 34133060 
2490.801 33993904 33845016 33686004 33516102 33334776 33140480 32932538 
2494.176 32710518 32474968 32226912 31967516 31697296 31416058 31123184 
2497.551 30817846 30500280 30172148 29836172 29495740 29154158 28813870 
2500.926 28476256 28141624 27810076 27482064 27158180 26839190 26525998 
2504.302 26219262 25919776 25628546 25346996 25077316 24821558 24580954 
2507.677 24355416 24142636 23939906 23743884 23552778 23366442 23186442 
2511.052 23015424 22856034 22709482 22576030 22454692 22344098 22243402 
2514.427 22151828 22068816 21993696 21924862 21860882 21800956 21745424 
2517.802 21696552 21657716 21632224 21622018 21626790 21643716 21668794 
2521.178 21697770 21727692 21757512 21788134 21821372 21858898 21902072 
2524.553 21951002 22004886 22062542 22122226 22181782 22238344 22289160 
2527.928 22331086 22361854 22380448 22387040 22382680 22368378 22345248 
2531.303 22313228 22272070 22221848 22164032 22100506 22034864 21970482 
2534.679 21909320 21852242 21798552 21747026 21696588 21647478 21600568 
2538.054 21557738 21520098 21488138 21461330 21438458 21418442 21400796 
2541.429 21385688 21373298 21363796 21356592 21350606 21344482 21337276 
2544.804 21328472 21318136 21306720 21293982 21279890 21264022 21246764 
2548.180 21228948 21212144 21197808 21186538 21177354 21168204 21156582 
2551.555 21140826 21120788 21098770 21077934 21061552 21051538 21047640 
2554.930 21047712 21049100 21049450 21047920 21044928 21042076 21039816 
2558.305 21037868 21033694 21024478 21006916 20978958 20940082 20890988 
2561.681 20833486 20769392 20700716 20629342 20557146 20486560 20419770 
2565.056 20358444 20303512 20254908 20212036 20174098 20140846 20113220 
2568.431 20092434 20079696 20075186 20078032 20085874 20096804 20108710 
2571.806 20121028 20134114 20149002 20166460 20186836 20210022 20235536 
2575.182 20263552 20294348 20328582 20366882 20408796 20453216 20497850 
2578.557 20540784 20580700 20617702 20653040 20688796 20727128 20769878 
2581.932 20817670 20871172 20930206 20994606 21063882 21137346 21213952 
2585.307 21292452 21371976 21452104 21533502 21617108 21703694 21793080 
2588.683 21884368 21975118 22063238 22147296 22227394 22305346 22383728 
2592.058 22464846 22549854 22638230 22727984 22816570 22901892 22982374 
2595.433 23057630 23127728 23192662 23252852 23308752 23361930 23414382 
2598.808 23469568 23530392 23599164 23676276 23760542 23849340 23940360 
2602.184 24031750 24123826 24217954 24315884 24419412 24528748 24643372 
2605.559 24762550 24885342 25012062 25143422 25280544 25423998 25573438 
2608.934 25727254 25883658 26040608 26196598 26351056 26503562 26653130 
2612.309 26799116 26939724 27073112 27197970 27313512 27419908 27518246 
2615.685 27609794 27695708 27777224 27855084 27929670 28001404 28070536 
2619.060 28136852 28199994 28259398 28314566 28365568 28412966 28457680 
2622.435 28500986 28543906 28586830 28629652 28672158 28713928 28755310 
2625.810 28797052 28840144 28885576 28933846 28984848 29037876 29092222 
2629.186 29147284 29202706 29258916 29315982 29374368 29433934 29494606 
2632.561 29556138 29618530 29681214 29744192 29806610 29867726 29926222 
2635.936 29981672 30033758 30083114 30131092 30179572 30229798 30282802 
2639.311 30338758 30397424 30458162 30520648 30584386 30649414 30715662 
2642.687 30783094 30851532 30921190 30992532 31066450 31143796 31225820 
2646.062 31312596 31403910 31498812 31596154 31694766 31794362 31895052 
2649.437 31997546 32102566 32210250 32320638 32432944 32546890 32661896 
2652.812 32777938 32895796 33015796 33138872 33265482 33395856 33530560 
2656.188 33669388 33812240 33958756 34108260 34259644 34411976 34564684 
2659.563 34717664 34871452 35026876 35184540 35344852 35507276 35670912 
2662.938 35834612 35997180 36158444 36318576 36478156 36637796 36797636 
2666.313 36957572 37116844 37274588 37430584 37584756 37737936 37891276 
2669.688 38045900 38203224 38363896 38528356 38696900 38869168 39044408 
2673.064 39222148 39401336 39581072 39760628 39939532 40117708 40294904 
2676.439 40471116 40646492 40820632 40993640 41165692 41337776 41510912 
2679.814 41686636 41866700 42052716 42246076 42447636 42658468 42879052 
2683.189 43109776 43350796 43601884 43862388 44131448 44408200 44692064 
2686.565 44982736 45280068 45584344 45895276 46212844 46536472 46865728 
2689.940 47200372 47540484 47887072 48240204 48600804 48968424 49342772 
2693.315 49722908 50108060 50497836 50892656 51293240 51700352 52114984 
2696.690 52537416 52967256 53403708 53845472 54291596 54740688 55192248 
2700.066 55645476 56100348 56556608 57014100 57472600 57931440 58389964 
2703.441 58846888 59300952 59750244 60193224 60627628 61051564 61462432 
2706.816 61858180 62236320 62595420 62934332 63253112 63552216 63832380 
2710.191 64094284 64338372 64564408 64772368 64962260 65134764 65290504 
2713.567 65430312 65554680 65663084 65754092 65825612 65875316 65901032 
2716.942 65901348 65875628 65823956 65747508 65648056 65528056 65391412 
2720.317 65243104 65088144 64932712 64781748 64639724 64509928 64394632 
2723.692 64295180 64213164 64149784 64106500 64084528 64084836 64107880 
2727.068 64153396 64221224 64310744 64421608 64553484 64705560 64876424 
2730.443 65064244 65266320 65480128 65703480 65934776 66173032 66417708 
2733.818 66667736 66921852 67177888 67433432 67685792 67933376 68175088 
2737.193 68410616 68640328 68864312 69082768 69295464 69501816 69701848 
2740.569 69895384 70083104 70266264 70446728 70627072 70809952 70998648 
2743.944 71195896 71404048 71624800 71858416 72104320 72360664 72625416 
2747.319 72896048 73169760 73443408 73713768 73976440 74227360 74462112 
2750.694 74676864 74869096 75037584 75182696 75305872 75409488 75495936 
2754.070 75567416 75625344 75670424 75702368 75720280 75722088 75705368 
2757.445 75667904 75607128 75521160 75408576 75268360 75099496 74901584 
2760.820 74674032 74417032 74131296 73818688 73481856 73124432 72750256 
2764.195 72363240 71967272 71565728 71162752 70762064 70367784 69984368 
2767.571 69615880 69265304 68935448 68627952 68344216 68085704 67853680 
2770.946 67649504 67474264 67327872 67209264 67115904 67044676 66991588 
2774.321 66953204 66926336 66908092 66896072 66887452 66878408 66864804 
2777.696 66841996 66804820 66748640 66669360 66563904 66430756 66269936 
2781.072 66082940 65873504 65645784 65405436 65158016 64908392 64660756 
2784.447 64417840 64181432 63952140 63730032 63514092 63302404 63092464 
2787.822 62880708 62663436 62437468 62200336 61951072 61690108 61419380 
2791.197 61141148 60858220 60573264 60288840 60007948 59733740 59469736 
2794.573 59219564 58986880 58774312 58583500 58415132 58269152 58144692 
2797.948 58041140 57957792 57894148 57849324 57822828 57813628 57820820 
2801.323 57843344 57880328 57930756 57992968 58065456 58146056 58232816 
2804.698 58323412 58416572 58511116 58606288 58701672 58796088 58887868 
2808.073 58975264 59055620 59126268 59184592 59228072 59254272 59261188 
2811.449 59246524 59209120 59148484 59065264 58961148 58838236 58699508 
2814.824 58547704 58385492 58216064 58042652 57869464 57701640 57544736 
2818.199 57404832 57287804 57199084 57142956 57123680 57143828 57205660 
2821.574 57309848 57455316 57639204 57856820 58102384 58368964 58650052 
2824.950 58939708 59232248 59522860 59806328 60077156 60330108 60559780 
2828.325 60761832 60933588 61074252 61184408 61266276 61322976 61358088 
2831.700 61375220 61378428 61371936 61359840 61346372 61335688 61331184 
2835.075 61335912 61352512 61383084 61429872 61494956 61581008 61691368 
2838.451 61830140 62002780 62216588 62479320 62801176 63192824 63665032 
2841.826 64229408 64897924 65682552 66597744 67659848 68886208 70295128 
2845.201 71901464 73711448 75717200 77891160 80183568 82515504 84787640 
2848.576 86886120 88685208 90072000 90954072 91269656 90999168 90164112 
2851.952 88824952 87065416 84989800 82709792 80326424 77935528 75616400 
2855.327 73426808 71409048 69587216 67968944 66549420 65314496 64244120 
2858.702 63314288 62500900 61782008 61136536 60547480 60000116 59481668 
2862.077 58982972 58496824 58018532 57545944 57079732 56622660 56178968 
2865.453 55754676 55356620 54991680 54667444 54390764 54167108 54000932 
2868.828 53894008 53845324 53851100 53904628 53996656 54115912 54249692 
2872.203 54386220 54513700 54623556 54710060 54770872 54807560 54824172 
2875.578 54826844 54821808 54815156 54812144 54816280 54830152 54855456 
2878.954 54892860 54942344 55003752 55076304 55159476 55252976 55356884 
2882.329 55471660 55597836 55735504 55883988 56041652 56206308 56375480 
2885.704 56547360 56720932 56895972 57073196 57254048 57439736 57631824 
2889.079 57831836 58041932 58264412 58502320 58759292 59038692 59345316 
2892.455 59684360 60062168 60486916 60968088 61515228 62137408 62840388 
2895.830 63624984 64484560 65405012 66362656 67324968 68255064 69111664 
2899.205 69854408 70451208 70880160 71134720 71223888 71172472 71016632 
2902.580 70796112 70553560 70327496 70148208 70041400 70025752 70114872 
2905.956 70319824 70649064 71109120 71705736 72443928 73328328 74365640 
2909.331 75562056 76924200 78455928 80156432 82016352 84015280 86123032 
2912.706 88296568 90482064 92622544 94653088 96510352 98139080 99491360 
2916.081 100535928 101259608 101667512 101780968 101631344 101257344 
2918.974 100695000 99973600 99114616 98128576 97017752 95779664 94411080 
2922.350 92912456 91291160 89563200 87753832 85896440 84026824 82183312 
2925.725 80401296 78708176 77125544 75665448 74331664 73121368 72026600 
2929.100 71037000 70140304 69324848 68580104 67896336 67265744 66682300 
2932.475 66141196 65639272 65174876 64746940 64355120 63998864 63676848 
2935.851 63386588 63123652 62881896 62654092 62432340 62208944 61978664 
2939.226 61738652 61489384 61234460 60980180 60733860 60502684 60292876 
2942.601 60108280 59950240 59817048 59704124 59603812 59505644 59398348 
2945.976 59270452 59112716 58920692 58695716 58445948 58184508 57928712 
2949.352 57696380 57501952 57355900 57262324 57219832 57221952 57259148 
2952.727 57320620 57395148 57472564 57544320 57602884 57643100 57660996 
2956.102 57654300 57621912 57563916 57481756 57377492 57254840 57118276 
2959.477 56973032 56824360 56676984 56534376 56398532 56270424 56149896 
2962.853 56036788 55931776 55835756 55750644 55678772 55621376 55579536 
2966.228 55553324 55541876 55543684 55557092 55580588 55612148 55650828 
2969.603 55695460 55745788 55802184 55865636 55937620 56019448 56112040 
2972.978 56215060 56327268 56446148 56567928 56688084 56800868 56899520 
2976.354 56976812 57024452 57034992 57002124 56921996 56793656 56619528 
2979.729 56404760 56156760 55883988 55595764 55300956 55008376 54725844 
2983.104 54459456 54213168 53987912 53781304 53587688 53398912 53207116 
2986.479 53004692 52787212 52553424 52304884 52044980 51776724 51501468 
2989.854 51217516 50920004 50601356 50254044 49871992 49452556 48998168 
2993.230 48516360 48018652 47517524 47025244 46550524 46097212 45664208 
2996.605 45246644 44837928 44431652 44023516 43611960 43198300 42784996 
2999.980 42374972 41970704 41573368 41183392 40801048 40426788 40061744 
3003.355 39707292 39364840 39035128 38718088 38413084 38118896 37834664 
3006.731 37559972 37294664 37038896 36792728 36555676 36327148 36106376 
3010.106 35892476 35685156 35484412 35290404 35103564 34923696 34750576 
3013.481 34583632 34422200 34265452 34112880 33964132 33818760 33676944 
3016.856 33538580 33403728 33272460 33144772 33020406 32898906 32779974 
3020.232 32663148 32548424 32436230 32327026 32221668 32120510 32023978 
3023.607 31932600 31846948 31768336 31698826 31640842 31596758 31567790 
3026.982 31553890 31552966 31561374 31574238 31586320 31592730 31589098 
3030.357 31572278 31539392 31488516 31418480 31328834 31220124 31094068 
3033.733 30953570 30801982 30643476 30482082 30321634 30165472 30016076 
3037.108 29875036 29742986 29619522 29503366 29392840 29286030 29181302 
3040.483 29078016 28976170 28876404 28779456 28686176 28596916 28511494 
3043.858 28429592 28350676 28274604 28201338 28130806 28063502 27999744 
3047.234 27939810 27884478 27833992 27788882 27749426 27715062 27684902 
3050.609 27657146 27629848 27600472 27566930 27527990 27482842 27432120 
3053.984 27377312 27321134 27266690 27217336 27176028 27144670 27123368 
3057.359 27110778 27104676 27101996 27099950 27096916 27092332 27086584 
3060.735 27080482 27074982 27070926 27069022 27070114 27075828 27088030 
3064.110 27108836 27139664 27181072 27231764 27289306 27350562 27412074 
3067.485 27470946 27525308 27573568 27614702 27648000 27672684 27688364 
3070.860 27695602 27695462 27689598 27679852 27667704 27653720 27638112 
3074.236 27620634 27601250 27580806 27560788 27542958 27528872 27519270 
3077.611 27513552 27510446 27507658 27503774 27497456 27488382 27476982 
3080.986 27464274 27451568 27439992 27430636 27424356 27420932 27420084 
3084.361 27420898 27422062 27422874 27423086 27423720 27426720 27434272 
3087.737 27448180 27469074 27496008 27526754 27558492 27588608 27615762 
3091.112 27639806 27661276 27681688 27702066 27723044 27745118 27768960 
3094.487 27795204 27825336 27860524 27901826 27949526 28002782 28060108 
3097.862 28119634 28180160 28240762 28301516 28362844 28425276 28489204 
3101.238 28554592 28621264 28688832 28756620 28823996 28890214 28954246 
3104.613 29015348 29073304 29128290 29181372 29234142 29287802 29343244 
3107.988 29400606 29459322 29518296 29576604 29633888 29690474 29747136 
3111.363 29804836 29864354 29926540 29991328 30058826 30129068 30201844 
3114.739 30276478 30352476 30428414 30503194 30575890 30646002 30713316 
3118.114 30777936 30839720 30898028 30952144 31001286 31045700 31086914 
3121.489 31127634 31171278 31220692 31277486 31340908 31408470 31476758 
3124.864 31542920 31605560 31664968 31723708 31784772 31850550 31921904 
3128.240 31997904 32075808 32152336 32224200 32289442 32347764 32400596 
3131.615 32451044 32502926 32560532 32627068 32704338 32792050 32887828 
3134.990 32987948 33087950 33184112 33274178 33357248 33434358 33506904 
3138.365 33576344 33643504 33708528 33771304 33832192 33892224 33953240 
3141.740 34017340 34086648 34162168 34243760 34330424 34420548 34512772 
3145.116 34605768 34698712 34790640 34880896 34968476 35052916 35134348 
3148.491 35213792 35292992 35374116 35458344 35546368 35637244 35729404 
3151.866 35820464 35908924 35994368 36077424 36159524 36242572 36327868 
3155.241 36416248 36507776 36602212 36698868 36797236 36896820 36997076 
3158.617 37097288 37196648 37294304 37389520 37481872 37571644 37659408 
3161.992 37746140 37833324 37922156 38013640 38108768 38207600 38309500 
3165.367 38413812 38518728 38622872 38724792 38823408 38918416 39009860 
3168.742 39098428 39184724 39269624 39353664 39437620 39522096 39607204 
3172.118 39693020 39778640 39862780 39943276 40017968 40085148 40144164 
3175.493 40195736 40241900 40286108 40332280 40384056 40443952 40513056 
3178.868 40590504 40673784 40759120 40842544 40920376 40990576 41052268 
3182.243 41107008 41157748 41207472 41259796 41316676 41379140 41446792 
3185.619 41518388 41592696 41668584 41745728 41823904 41903336 41983768 
3188.994 42064836 42146100 42226648 42306336 42385128 42463164 42540668 
3192.369 42617636 42693848 42768140 42840068 42908492 42973124 43034256 
3195.744 43092724 43149844 43207668 43268208 43333116 43403708 43480352 
3199.120 43562248 43647824 43735032 43821628 43906048 43987440 44065544 
3202.495 44141020 44214896 44287652 44360308 44433048 44505948 44578856 
3205.870 44651160 44721924 44790316 44854972 44915228 44971600 45025184 
3209.245 45077964 45132444 45190164 45251132 45314088 45376876 45437460 
3212.621 45495148 45551408 45609332 45672640 45744056 45823948 45910116 
3215.996 45997592 46081772 46158192 46225040 46283612 46337172 46390036 
3219.371 46445712 46506560 46572984 46644108 46718408 46794756 46872224 
3222.746 46950220 47028344 47105520 47180720 47252676 47320620 47384656 
3226.122 47445412 47504292 47562884 47622408 47683860 47747732 47813900 
3229.497 47882116 47951752 48021984 48092044 48161008 48228352 48293928 
3232.872 48357740 48420260 48482092 48543852 48605956 48668628 48732196 
3236.247 48796920 48863176 48931076 49000616 49071208 49142552 49213796 
3239.623 49284568 49354504 49423596 49491724 49558164 49621748 49681816 
3242.998 49737956 49791016 49843300 49898048 49958636 50027708 50105380 
3246.373 50190216 50279004 50367996 50453996 50535504 50612300 50685352 
3249.748 50756104 50825268 50893140 50959716 51024628 51088356 51151980 
3253.124 51217032 51284404 51354808 51427348 51500872 51573736 51645008 
3256.499 51714460 51782624 51850228 51918000 51986192 52054320 52121748 
3259.874 52187916 52252412 52315196 52376572 52436688 52495760 52554056 
3263.249 52611692 52669476 52728248 52788932 52851760 52916652 52982340 
3266.625 53047520 53110680 53170672 53227636 53282176 53335256 53387708 
3270.000 53440056 53492144 53543456 53593492 53642456 53691232 53741516 
3273.375 53795140 53854100 53919444 53991368 54069000 54151080 54235916 
3276.750 54322384 54409164 54496232 54583764 54672028 54761476 54852408 
3280.125 54945052 55039480 55135812 55234464 55335884 55440524 55548916 
3283.501 55661032 55776868 55896276 56018880 56145032 56275288 56409700 
3286.876 56548984 56692956 56840672 56991164 57143180 57295708 57448928 
3290.251 57603752 57761848 57925116 58095224 58273548 58460428 58655476 
3293.626 58857968 59066932 59281164 59499300 59720548 59944116 60169856 
3297.002 60398492 60631288 60869692 61115480 61369112 61630456 61899024 
3300.377 62172884 62451428 62733792 63020320 63311560 63608332 63911104 
3303.752 64219496 64532956 64851068 65173456 65500624 65833480 66172912 
3307.127 66520036 66875004 67238000 67608472 67985720 68369000 68757432 
3310.503 69149856 69545640 69944400 70346864 70754656 71170632 71597416 
3313.878 72036848 72489064 72951632 73420968 73892808 74363672 74831976 
3317.253 75298856 75766232 76237120 76713624 77196144 77684160 78176048 
3320.628 78670128 79165216 79660496 80155232 80648136 81137816 81622360 
3324.004 82100480 82571800 83036968 83497696 83955744 84412056 84866424 
3327.379 85318016 85765144 86206024 86639152 87062784 87475112 87873680 
3330.754 88255728 88618760 88961448 89283600 89586120 89870680 90138336 
3334.129 90388816 90621080 90832672 91021608 91186624 91327512 91445000 
3337.505 91539360 91610224 91656136 91675000 91664512 91623888 91552984 
3340.880 91452768 91324888 91169416 90985896 90773048 90528784 90251912 
3344.255 89942168 89600008 89226672 88823608 88391640 87931656 87444720 
3347.630 86932104 86395672 85837856 85260912 84666176 84054520 83425784 
3351.006 82779704 82116696 81437744 80744736 80040680 79328928 78612704 
3354.381 77895488 77180152 76469552 75766200 75071416 74386080 73710544 
3357.756 73044208 72386880 71738720 71100808 70474704 69862464 69265352 
3361.131 68683648 68116552 67562400 67019500 66487016 65965288 65456084 
3364.507 64962068 64485372 64027780 63589536 63169792 62767216 62379512 
3367.882 62005224 61642868 61291116 60948684 60614256 60286024 59962640 
3371.257 59643076 59326172 59011476 58698296 58386136 58074240 57761928 
3374.632 57448620 57133888 56817940 56500560 56181684 55860892 55537136 
3378.008 55209104 54875752 54535640 54187788 53831408 53465648 53089900 
3381.383 52703668 52306676 51899592 51484384 51063312 50640000 50217884 
3384.758 49799824 49387508 48981440 48580608 48183296 47787452 47391120 
3388.133 46992716 46591500 46186828 45779064 45369628 44959696 44552092 
3391.509 44149788 43755808 43372764 43002320 42643992 42295784 41954680 
3394.884 41616688 41278636 40938584 40596432 40253752 39913448 39578892 
3398.259 39252356 38935488 38627216 38325820 38028432 37731504 37432788 
3401.634 37130924 36825656 36518264 36210552 35904496 35601532 35302732 
3405.010 35008124 34717524 34430016 34144820 33861492 33579636 33299252 
3408.385 33020482 32743816 32469932 32199580 31933706 31672846 31417732 
3411.760 31168856 30925816 30688566 30456562 30229016 30005744 29785992 
3415.135 29569048 29353382 29137538 28919714 28698070 28471940 28241436 
3418.510 28008896 27777578 27551538 27335742 27133842 26948256 26779382 
3421.886 26625756 26483912 26349296 26217152 26082900 25943132 25796130 
3425.261 25641868 25482144 25319670 25157782 24999112 24845870 24698222 
3428.636 24555498 24415942 24277586 24138678 23998274 23856586 23714734 
3432.011 23574326 23437462 23305606 23179100 23057594 22939546 22822402 
3435.387 22704208 22583254 22459018 22332414 22205110 22079066 21955218 
3438.762 21833916 21713932 21593430 21470696 21345002 21216842 21087988 
3442.137 20960214 20834322 20709924 20584244 20453702 20315804 20169550 
3445.512 20017308 19864634 19718808 19587416 19475678 19384894 19313252 
3448.888 19255130 19203628 19152722 19097426 19034898 18964490 18886550 
3452.263 18801978 18711474 18616044 18516070 18412072 18304990 18195862 
3455.638 18086002 17976758 17868988 17763526 17660330 17558506 17456704 
3459.013 17353098 17246106 17134832 17019898 16903202 16788262 16678654 
3462.389 16577506 16486466 16404426 16329179 16257212 16185362 16112112 
3465.764 16037362 15962522 15889071 15817795 15747769 15676552 15601224 
3469.139 15519386 15430009 15334507 15235251 15135708 15038555 14945060 
3472.514 14854602 14765979 14677580 14588650 14499603 14411635 14326766 
3475.890 14245818 14168821 14094166 14019489 13942259 13860185 13772620 
3479.265 13679773 13583457 13487061 13394412 13309913 13237728 13180071 
3482.640 13137481 13107770 13086393 13066963 13043711 13011890 12969282 
3486.015 12917088 12859132 12800706 12746722 12700764 12663715 12634275 
3489.391 12609134 12584644 12557802 12526221 12489220 12446767 12399476 
3492.766 12348612 12295674 12242810 12192680 12148108 12111992 12085724 
3496.141 12070359 12064464 12065623 12070938 12076525 12079250 12076150 
3499.516 12064669 12043480 12011833 11971504 11925969 11882072 11847305 
3502.892 11830145 11837635 11872776 11934108 12015512 12107733 12200586 
3506.267 12285277 12356248 12412261 12456348 12494062 12533212 12580824 
3509.642 12642598 12721269 12816847 12926543 13045998 13169755 13293070 
3513.017 13411395 13521892 13622774 13713968 13796048 13869866 13937127 
3516.393 13998854 14055970 14109500 14159544 14205589 14246297 14279236 
3519.768 14301597 14310740 14305466 14286633 14257185 14221235 14182788 
3523.143 14144619 14105734 14061891 14006964 13934081 13838668 13720808 
3526.518 13584620 13438872 13293651 13158246 13038453 12935964 12847187 
3529.894 12765762 12684695 12597197 12498870 12386930 12260533 12119760 
3533.269 11965749 11800488 11626851 11449745 11274207 11105845 10948931 
3536.644 10805151 10673509 10550393 10430196 10307319 10177760 10038169 
3540.019 9888081 9728252 9560657 9388285 9214628 9043239 8877633 8721014 
3543.877 8575504 8442677 8322825 8216109 8122721 8042447 7974777 7917578 
3547.734 7866695 7815549 7757392 7685720 7597300 7493526 7380981 7269509 
3551.592 7170226 7092217 7038838 7007487 6990113 6977014 6958260 6927723 
3555.449 6883252 6826062 6759590 6687173 6611270 6532924 6451498 6365985 
3559.306 6275111 6178240 6075241 5966019 5850275 5727478 5595720 5452427 
3563.164 5294356 5118539 4923121 4710340 4487285 4268459 4075598 3932136 
3567.021 3860022 3871555 3963667 4119849 4313132 4515742 4700894 4850473 
3570.879 4954724 5011065 5023802 5000205 4949965 4882707 4806616 4728126 
3574.736 4651928 4580364 4514101 4452971 4395698 4341277 4289507 4241089 
3578.594 4197226 4159590 4128881 4104329 4083859 4063356 4037437 4000584 
3582.451 3946581 3869081 3762886 3623503 3449096 3242677 3014102 2781078 
3586.308 2569377 2409485 2327830 2340788 2446404 2625242 2844308 3065420 
3590.166 3256498 3393558 3464760 3469837 3418805 3328078 3216606 3104229 
3594.023 3005961 2930664 2881030 2853380 2840639 2833969 2825231 2808690 
3597.881 2781278 2743764 2700586 2659079 2628509 2617075 2630676 2669947 
3601.738 2729527 2798752 2864587 2912151 2928396 2904145 2834203 2718423 
3605.595 2561911 2375969 2176286 1981921 1814028 1688242 1612409 1581181 
3609.453 1578255 1580250 1563823 1514810 1431194 1325194 1217857 1134598 
3613.310 1094735 1103006 1147588 1202939 1238824 1226895 1150013 1006252 
3617.168 811348 597187 404821 279608 256698 350964 554388 838204 1161907 
3621.507 1482060 1764588 1985949 2133697 2205292 2202661 2128336 1982088 
3625.365 1760063 1456759 1070886 614706 124104 -339391 -689733 -846048 
3629.222 -768327 -478258 -50327 423593 861577 1216196 1470856 1634293 
3633.080 1730621 1790671 1841678 1898915 1964680 2029955 2082156 2111222 
3636.937 2113919 2094075 2061381 2025594 1993006 1964946 1937388 1904805 
3640.794 1862276 1807107 1738938 1656477 1554345 1422152 1242845 998481 
3644.652 673076 259218 -238135 -799450 -1389338 -1965167 -2478530 -2884459 
3648.509 -3146973 -3239266 -3145723 -2865302 -2415072 -1835320 -1184515 
3651.885 -534255 47317 507943 813406 956372 955542 856231 719670 613147 
3656.224 591679 678120 860647 1101512 1357134 1589695 1776465 1910530 
3660.082 1995935 2043437 2064611 2070170 2067807 2061581 2052359 2038011 
3663.939 2013377 1969373 1895354 1779160 1608983 1376313 1077695 720401 
3667.796 324901 -68184 -395010 -580947 -555104 -280455 225204 890163 1612209 
3672.136 2300415 2887334 3346810 3691501 3963700 4219040 4499370 4807387 
3675.993 5093696 5280067 5291739 5096043 4706421 4176952 3583077 3007596 
3679.851 2523149 2169426 1950734 1839183 1791969 1766617 1732551 1675735 
3683.708 1590094 1470058 1304788 1076300 765772 362869 -123340 -658668 
3687.566 -1186233 -1632391 -1932742 -2050951 -1986738 -1767875 -1434651 
3690.941 -1026603 -574892 -106579 351561 774635 1138850 1427637 1636454 
3694.798 1772639 1854157 1901145 1931796 1953563 1961152 1939052 1868499 
3698.656 1735578 1538085 1289601 1018939 768361 580000 487244 504825 623466 
3702.995 813705 1032789 1238824 1394661 1473914 1463010 1358829 1166990 
3706.853 898131 566895 190562 -214059 -626080 -1021810 -1374475 -1652097 
3710.710 -1822617 -1859537 -1748438 -1493893 -1121397 -674019 -200315 252753 
3714.568 645698 954181 1166159 1282356 1314625 1282688 1210082 1117025 
3718.425 1018308 919448 820012 716650 609663 505687 417756 360813 345626 
3722.765 373448 434903 513350 590618 655454 707192 755549 814269 894313 
3727.104 994463 1098290 1176658 1194001 1120380 935552 637336 240818 -217967 
3731.444 -690362 -1128601 -1494818 -1773650 -1970510 -2103119 -2186007 
3734.819 -2221116 -2196392 -2094150 -1905098 -1638300 -1321856 -995298 
3738.194 -697639 -456545 -289064 -203163 -202468 -292475 -483222 -788139 
3742.052 -1216533 -1760351 -2381791 -2994808 -3478755 -3726193 -3695181 
3745.427 -3442663 -3087561 -2762855 -2563356 -2536872 -2687848 -2982994 
3748.802 -3357909 -3725832 -4005205 -4133518 -4080806 -3849334 -3463503 
3752.177 -2961440 -2388942 -1799586 -1247096 -775736 -417288 -184981 -73783 
3756.035 -63513 -123771 -222305 -327274 -413978 -465184 -466574 -406728 
3759.892 -278170 -83125 161591 423195 657479 824726 896537 866590 752728 
3764.232 593969 439712 329875 282725 286306 308255 308123 258058 154664 
3768.572 21703 -96276 -150468 -102040 59579 315849 625888 943023 1227095 
3772.911 1449944 1600203 1678729 1694396 1657708 1577823 1458854 1300966 
3776.769 1104468 874890 627017 389134 198650 91061 90863 197689 385984 
3781.108 609928 820676 980415 1068959 1089852 1064641 1027242 1008179 
3784.966 1028205 1091447 1187688 1298607 1405232 1495425 1563257 1608684 
3788.823 1634392 1643306 1638084 1620557 1592754 1554977 1505400 1437145 
3792.680 1338156 1194931 996422 741443 443360 132755 -150634 -368989 -501525 
3797.020 -556295 -570557 -600503 -698963 -904346 -1223406 -1626251 -2041057 
3800.877 -2368610 -2519413 -2443079 -2158643 -1742464 -1300946 -928780 
3804.253 -687186 -601893 -656948 -801369 -953610 -1029181 -964619 -742495 
3808.110 -395208 13055 412018 751068 1001437 1155461 1219685 1203902 1114334 
3812.450 948868 700620 364760 -51652 -517874 -977942 -1362684 -1607501 
3816.307 -1688042 -1631797 -1513143 -1418303 -1418964 -1554976 -1822881 
3819.682 -2173381 -2513912 -2736779 -2746689 -2505577 -2049269 -1472231 
3823.058 -886821 -381271 -11298 207965 294263 290019 248476 216916 226530 
3827.397 280636 358525 424986 446445 401803 288129 120061 -74942 -265653 
3831.737 -429436 -557056 -655095 -740080 -833051 -952122 -1107384 -1300483 
3835.594 -1523412 -1761473 -1990729 -2182480 -2308432 -2344619 -2280911 
3838.969 -2123595 -1894805 -1624601 -1343460 -1077704 -841980 -640108 
3842.345 -464522 -301216 -134172 49107 252322 468204 680210 867486 1008112 
3846.684 1084737 1086896 1009972 853874 618190 300861 -104922 -608477 
3850.542 -1216170 -1922285 -2697727 -3471031 -4130991 -4545118 -4605348 
3853.917 -4289419 -3674614 -2900093 -2096656 -1356474 -724467 -209720 193645 
3857.774 495338 703773 823830 859286 816859 707822 548814 357033 149659 
3862.114 -60896 -265819 -455089 -615326 -727676 -773256 -744413 -652812 
3865.971 -534586 -438274 -413614 -495071 -688641 -964619 -1257470 -1487586 
3869.829 -1582180 -1511526 -1301706 -1019496 -739187 -511222 -353495 -248798 
3873.686 -159544 -41581 132523 362372 618489 855700 1027973 1099386 1054942 
3878.026 900754 665178 390925 131462 -62055 -156894 -146129 -52348 82577 
3882.365 207800 279509 273508 188673 51294 -91937 -181271 -169712 -41813 
3886.705 178065 436428 672180 831133 883655 825423 678784 486249 303182 
3891.045 184662 165304 254179 432481 665708 912940 1137588 1313695 1422983 
3895.384 1456094 1410418 1288205 1098090 853808 576052 289820 20311 -209720 
3899.724 -387660 -511784 -592132 -643053 -678088 -703428 -714213 -696448 
3903.581 -630447 -500598 -300587 -37936 269728 596490 917057 1211378 1465170 
3907.921 1670879 1826905 1935956 2003591 2037911 2048631 2045202 2035548 
3911.778 2024329 2011214 1990942 1954461 1892692 1799588 1675436 1528110 
3915.636 1373056 1230318 1117922 1049229 1028571 1051621 1107989 1185828 
3919.493 1273882 1362552 1444359 1511983 1559067 1580616 1575162 1546365 
3923.351 1503904 1461846 1435948 1437876 1471454 1530703 1602066 1668351 
3927.208 1713988 1730056 1714687 1673440 1615668 1552517 1494129 1447052 
3931.065 1415836 1402805 1409620 1437378 1485019 1549757 1625379 1703909 
3934.923 1777130 1838284 1884239 1915621 1936389 1951067 1962749 1971503 
3938.780 1973533 1962916 1934192 1884971 1818121 1742398 1670047 1615103 
3942.638 1588431 1594616 1630601 1686346 1748685 1803081 1838284 1848467 
3946.495 1833193 1798091 1752012 1706204 1670047 1650290 1648993 1664526 
3950.353 1692034 1726097 1762591 1798157 1832195 1864739 1896452 1927669 
3954.210 1957757 1986149 2011613 2034183 2054024 2071769 2088282 2103164 
3958.067 2115717 2124407 2128136 2126438 2120811 2113819 2108458 2107926 
3961.925 2113819 2126105 2143553 2163499 2183546 2201529 2216448 2227772 
3965.782 2235299 2239462 2240394 2238496 2234466 2228838 2222810 2216948 
3969.640 2211653 2206757 2201762 2196200 2190173 2184045 2178984 2176586 
3973.497 2178551 2185943 2199198 2218114 2241494 2267439 2294252 2319569 
3977.354 2341588 2358711 2370238 2376435 2378501 2378467 2378434 2380433 
3981.212 2385297 2392727 2401223 2408953 2413484 2413584 2408519 2399090 
3985.069 2386463 2372537 2358811 2346518 2335991 2327563 2320868 2315505 
3988.927 2311474 2308476 2306511 2305311 2304179 2302347 2298849 2292820 
3992.784 2284227 2273568 2261977 2251419 2243259 2238663 2237897 2240095 
3996.642 2243758 2247488 2250086 2251219 2250986 2250286 2249553 2249487 
4000.499 2249853 
##END=
