
##TITLE=Z351_1_d
##JCAMP-DX=5.01  $$ Nicolet v. 1
##DATATYPE=INFRARED SPECTRUM
##ORIGIN=UniL
##OWNER=Nicolet
##LONGDATE=2011/09/13
##TIME=11:00:40
##SPECTROMETER/DATA SYSTEM=Nicolet iS5
##DATA PROCESSING=
Ratio against background
%Transmittance->Absorbance
Truncated
ElementMultiply or ElementDivide
##COMMENTS=
Number of sample scans: 32
Collection length: 51.17 sec
Sample gain: 2.0
Background collected on: Mar Sep 13 10:14:34 2011 (GMT+02:00);
Number of background scans: 32
Background gain: 2.0
Sample spacing:  1.000
Number of scan points: 12415
Resolution points: 8192
Number of FFT points: 65536
Apodization: N-B fort;
Phase correction: Mertz;
Laser frequency: 15798.0 cm-1
Number of rejected sample scans: 0
Number of rejected background scans: 0
Bench serial number: ASB1000141;
##RESOLUTION=4.000
##XUNITS=1/CM
##YUNITS=ABSORBANCE
##FIRSTX=649.893372
##LASTX=4000.122314
##FIRSTY=0.110686
##MAXX=4000.122314
##MINX=649.893372
##MAXY=0.331489
##MINY=-0.003589
##XFACTOR=1.000000
##YFACTOR=1.000000E-009
##NPOINTS=6950
##DELTAX=0.482117
##ZPD=6100
##XYDATA=(X++(Y..Y))
649.893 110685984 110234160 109844832 109541432 109322616 109169904 
652.786 109065360 109007056 109013744 109120056 109359136 109749560 
655.679 110286264 110947280 111706528 112549056 113480272 114518800 
658.571 115686040 116992032 118430608 119987208 121652728 123435864 
661.464 125364736 127473576 129789424 132314624 135031456 137914128 
664.357 140951424 144157264 147547344 151105632 154720512 158111888 
667.250 160862976 162525024 162827552 161827216 159848720 157297328 
670.142 154474880 151556464 148603920 145623008 142622128 139633888 
673.035 136710048 133911592 131279200 128822744 126528992 124375288 
675.928 122344160 120432200 118645352 116988864 115458568 114038704 
678.820 112705896 111439336 110228560 109073792 107979576 106946416 
681.713 105962064 105002384 104040224 103053488 102036912 101004200 99982984 
685.088 99004192 98090520 97251632 96483912 95776608 95116984 94496496 
688.463 93910504 93353592 92816856 92285392 91738752 91158592 90532624 
691.838 89859432 89147496 88412512 87672968 86943800 86238440 85567552 
695.212 84941160 84370968 83868672 83444048 83103520 82848344 82675920 
698.587 82580336 82556816 82601648 82713480 82890736 83130048 83423416 
701.962 83760176 84127792 84514848 84915296 85326568 85749040 86182752 
705.337 86623456 87063672 87494280 87908120 88303352 88684880 89062672 
708.712 89448984 89855720 90297480 90793144 91370896 92072888 92946688 
712.086 94035688 95362888 96912120 98618944 100366440 102013112 103410488 
715.461 104435336 105022136 105169728 104943016 104450968 103839616 
718.354 103266728 102875080 102797728 103136504 103949128 105241160 
721.247 106946584 108925168 110952416 112759720 114077920 114671640 
724.139 114414520 113310424 111504952 109240368 106810640 104500912 
727.032 102511216 100951776 99837640 99116128 98699120 98495968 98438976 
730.407 98480256 98591376 98754104 98950352 99162248 99376416 99585736 
733.782 99792280 100003256 100225144 100457584 100693200 100919544 101127512 
737.156 101316344 101495872 101681592 101888712 102125528 102389056 
740.049 102669072 102952344 103230592 103501984 103770944 104042840 
742.942 104320264 104600648 104878976 105151616 105420328 105692376 
745.835 105976912 106279096 106594848 106910096 107206408 107467488 
748.727 107685064 107862920 108011608 108143944 108266320 108377176 
751.620 108468832 108534424 108573472 108594712 108612792 108643640 
754.513 108697040 108774256 108869520 108974688 109086104 109205776 
757.405 109340680 109498624 109683400 109892800 110120952 110361832 
760.298 110612800 110876792 111158576 111460960 111782080 112114808 
763.191 112452552 112794728 113154888 113560576 114056248 114696016 
766.083 115532320 116612344 117961960 119572768 121387720 123294120 
768.976 125132992 126703856 127822248 128363192 128305944 127757936 
771.869 126938760 126135424 125595824 125469120 125744192 126254736 
774.762 126711488 126787664 126237184 124939048 122941336 120417992 
777.654 117620208 114789056 112091520 109612816 107350888 105251080 
780.547 103236888 101244384 99237280 97206960 95167760 93147632 91182456 
783.922 89307776 87558528 85967840 84559848 83352112 82351496 81555944 
787.297 80957520 80546896 80318128 80270656 80409752 80744464 81286456 
790.671 82048688 83044832 84292592 85813104 87629672 89765432 92235000 
794.046 95038048 98151328 101527592 105092984 108746280 112375936 115859792 
797.421 119080568 121953040 124435920 126555416 128404616 130144816 
800.314 131972536 134064880 136547808 139432080 142590896 145732240 
803.206 148440992 150259312 150737408 149580416 146715648 142328560 
806.099 136816592 130703408 124533808 118710632 113456864 108788000 
808.992 104556552 100525152 96458920 92215040 87763112 83189352 78642768 
812.367 74297496 70296840 66722364 63603156 60919708 58628168 56674568 
815.742 55009132 53590684 52382704 51355516 50484064 49748356 49135764 
819.116 48638904 48254052 47977576 47803356 47722876 47727796 47812608 
822.491 47977504 48228760 48575980 49029180 49594676 50274092 51063496 
825.866 51954484 52932896 53978236 55062728 56147820 57190652 58151624 
829.241 59002252 59739408 60392244 61026696 61734032 62625924 63819944 
832.616 65410860 67458816 69959888 72832536 75894464 78865608 81415560 
835.990 83171256 83809152 83132368 81102984 77871896 73731320 69078608 
839.365 64309820 59756096 55666680 52169232 49293812 47000392 45212224 
842.740 43840324 42800244 42025780 41461444 41061880 40792388 40624408 
846.115 40536956 40517420 40557256 40649148 40785472 40955552 41148936 
849.490 41359060 41584676 41830764 42106012 42419472 42776036 43176376 
852.865 43617160 44094772 44608416 45160828 45758224 46408144 47117968 
856.239 47894100 48744612 49681300 50720320 51883872 53198800 54691760 
859.614 56393024 58334480 60549572 63075492 65943152 69164280 72712176 
862.989 76504888 80396312 84163984 87550424 90288016 92134256 92935520 
866.364 92643048 91332248 89180896 86453568 83460152 80486752 77792304 
869.739 75570408 73934560 72938888 72580808 72819168 73580920 74771240 
873.113 76280408 77971008 79691944 81286176 82591352 83475576 83851792 
876.488 83690456 83026264 81949480 80591816 79090672 77577624 76155856 
879.863 74882328 73771688 72798360 71913624 71057216 70178776 69251784 
883.238 68278528 67289376 66330804 65456936 64711676 64121052 63693308 
886.613 63421444 63291864 63292512 63418956 63674816 64068556 64608192 
889.987 65296628 66129968 67099384 68193768 69403488 70723728 72153616 
893.362 73694648 75349336 77118256 78998848 80982352 83047600 85154768 
896.737 87241856 89213608 90953256 92336496 93240928 93580456 93317776 
900.112 92473448 91120088 89372856 87374984 85266360 83181128 81233952 
903.487 79505728 78053456 76907784 76077528 75558472 75338544 75403728 
906.862 75742136 76345584 77210160 78334160 79717216 81358536 83257944 
910.236 85415856 87833160 90509200 93437728 96600944 99963336 103475232 
913.611 107074056 110694408 114287288 117826640 121320728 124808960 
916.504 128358440 132050128 135956464 140129088 144571808 149226432 
919.397 153947280 158504624 162607312 165907824 168089184 168927824 
922.289 168349776 166480832 163645760 160356528 157195056 154771232 
925.182 153641008 154183872 156587712 160787456 166482016 173119552 
928.075 179960944 186228912 191130288 194029520 194550624 192573376 
930.967 188236592 181851600 173848112 164681808 154788896 144598672 
933.860 134484256 124769960 115742088 107608904 100517384 94555528 89749096 
937.235 86085824 83527256 82022472 81509536 81908064 83113512 84967480 
940.610 87252432 89713528 92047824 93960520 95215120 95646296 95202584 
943.985 93941312 92019280 89649008 87059824 84475280 82065176 79943680 
947.359 78171376 76759096 75685408 74910048 74388448 74075576 73930088 
950.734 73917280 74004928 74165096 74376528 74623232 74897288 75197200 
954.109 75525504 75885272 76277760 76700848 77150784 77623696 78117696 
957.484 78633640 79174320 79741784 80335712 80952728 81587376 82234880 
960.859 82892976 83562680 84247496 84950832 85674568 86417336 87176568 
964.233 87949424 88735888 89538520 90361368 91207888 92078872 92972424 
967.608 93885160 94814912 95762400 96732160 97730400 98762048 99828720 
970.983 100927984 102055064 103206336 104381696 105585216 106824104 
973.876 108105688 109433824 110808960 112228792 113691512 115197480 
976.768 116751096 118358280 120025248 121756520 123554664 125423384 
979.661 127370592 129409176 131559160 133841064 136273328 138868176 
982.554 141629360 144553008 147628512 150838544 154153168 157521664 
985.447 160871424 164097424 167068832 169654272 171725520 173187920 
988.339 173996320 174157392 173731184 172817520 171555968 170102336 
991.232 168614080 167249168 166136224 165369936 165009536 165073008 
994.125 165548560 166404880 167606384 169119856 170919008 172985216 
997.017 175300656 177844992 180596656 183531520 186628096 189869104 
999.910 193236064 196702912 200230000 203754400 207196416 210471488 
1002.803 213497440 216215856 218599200 220653200 222413200 223939184 
1005.695 225314880 226632992 227997488 229515024 231274976 233347136 
1008.588 235769232 238545392 241651808 245047232 248688864 252534272 
1011.481 256545568 260687472 264914896 269175456 273414528 277578880 
1014.374 281630080 285545088 289305632 292884576 296227872 299240736 
1017.266 301802176 303777568 305045728 305535200 305236832 304217248 
1020.159 302604416 300589696 298409056 296303360 294524416 293293152 
1023.052 292768224 293047680 294150464 296029056 298580224 301674144 
1025.945 305176800 308947424 312853440 316759200 320507968 323938208 
1028.838 326884672 329193056 330751232 331489088 331378464 330423520 
1031.731 328646208 326080288 322769952 318777568 314185024 309082784 
1034.624 303565952 297715008 291587200 285224352 278659872 271933376 
1037.517 265103616 258246240 251446608 244797152 238379072 232262896 
1040.410 226510224 221164400 216249920 211758512 207639648 203789424 
1043.303 200050496 196244992 192186128 187723088 182779488 177360160 
1046.196 171557344 165521120 159447088 153534496 147954528 142853408 
1049.089 138326576 134422256 131150512 128487272 126386016 124785640 
1051.982 123624024 122842048 122385920 122212120 122278288 122537688 
1054.875 122937944 123411824 123879208 124259360 124468664 124434464 
1057.768 124105000 123448184 122459584 121162280 119611472 117889800 
1060.661 116099464 114363208 112801728 111523848 110623704 110164760 
1063.554 110182784 110686368 111659008 113060688 114825704 116871336 
1066.448 119089456 121352312 123532424 125501272 127149808 128404168 
1069.341 129221216 129591824 129531232 129071368 128251224 127109480 
1072.234 125685784 124015416 122131256 120068232 117863632 115562752 
1075.127 113225536 110920976 108729224 106737720 105024240 103657512 
1078.020 102688136 102142248 102023168 102309496 102958432 103900768 
1080.913 105042936 106277448 107475000 108506896 109266408 109676624 
1083.806 109715608 109419536 108884424 108245792 107659936 107293528 
1086.699 107289200 107760184 108782424 110381864 112537040 115173464 
1089.592 118177864 121393632 124637544 127733352 130512016 132839648 
1092.485 134632192 135846672 136482288 136566272 136148496 135289312 
1095.378 134053200 132512168 130738200 128804072 126789216 124769208 
1098.271 122814744 120985336 119313032 117795312 116386040 115002528 
1101.164 113529288 111838536 109826024 107422800 104620336 101471088 
1104.057 98085336 94611384 91202360 88013448 85172456 82768840 80861912 
1107.433 79475488 78607384 78236232 78328168 78841376 79725144 80925896 
1110.808 82383344 84027184 85782904 87564528 89275184 90820864 92107832 
1114.183 93056896 93616088 93760888 93497848 92858248 91894600 90669864 
1117.558 89247792 87693856 86065192 84407304 82756736 81136936 79560840 
1120.934 78035008 76562264 75146336 73793872 72514352 71318640 70215824 
1124.309 69210320 68300624 67480768 66744388 66088692 65518924 65049192 
1127.684 64702748 64506664 64485020 64654796 65019832 65568596 66272712 
1131.059 67089492 67966424 68839848 69647584 70334392 70858048 71200144 
1134.435 71369208 71401040 71349328 71280960 71263936 71350968 71578000 
1137.810 71954680 72465304 73068680 73703208 74298320 74774504 75057432 
1141.185 75087648 74819808 74230504 73316056 72089264 70576280 68812088 
1144.560 66841692 64713440 62479436 60194972 57909932 55670108 53514560 
1147.936 51470804 49558124 47788192 46165932 44693092 43369472 42194224 
1151.311 41164744 40276616 39523728 38897688 38390136 37993896 37703852 
1154.686 37516980 37432172 37448392 37563840 37776536 38084964 38489072 
1158.061 38991484 39596896 40310464 41136692 42077172 43130924 44293888 
1161.437 45558768 46915964 48350372 49840292 51357976 52866092 54322084 
1164.812 55682688 56903564 57946132 58778828 59377076 59725948 59820736 
1168.187 59667668 59283708 58694844 57935340 57041036 56048624 54994012 
1171.562 53907516 52817892 51752012 50733200 49784920 48928256 48180000 
1174.938 47553788 47058068 46696860 46471048 46379604 46421268 46595044 
1178.313 46901200 47342120 47923296 48654392 49549328 50626748 51905452 
1181.688 53403036 55132468 57099268 59302816 61736820 64391056 67248608 
1185.063 70281488 73448080 76681088 79887800 82958832 85764176 88174976 
1188.438 90080320 91388808 92047536 92043560 91405368 90197104 88510368 
1191.814 86460032 84161368 81727288 79262952 76851384 74559656 72436992 
1195.189 70512352 68800320 67302104 66008644 64902544 63959860 63153736 
1198.564 62451696 61819060 61221372 60621344 59984096 59279832 58483632 
1201.939 57581620 56572460 55469100 54296736 53090164 51890520 50735584 
1205.315 49658040 48681784 47819152 47073876 46443168 45920832 45499452 
1208.690 45171300 44928676 44762988 44665148 44626960 44641976 44707788 
1212.065 44826136 45002692 45244880 45560276 45955236 46433252 46995116 
1215.440 47638936 48360036 49150456 49997928 50888184 51804720 52731052 
1218.816 53654524 54566068 55460852 56337608 57197420 58043148 58879748 
1222.191 59716140 60565684 61445180 62375188 63374972 64459464 65637344 
1225.566 66908204 68263632 69686288 71152992 72634384 74094592 75496448 
1228.941 76801992 77976872 78996976 79849968 80537800 81075584 81492704 
1232.317 81830888 82140392 82485856 82941064 83582888 84495000 85755896 
1235.692 87431872 89578960 92234752 95420336 99142352 103393752 108153592 
1239.067 113381232 119019680 124987560 131179016 137479984 143763600 
1241.960 149899664 155768656 161250080 166228176 170600512 174271360 
1244.853 177164160 179226432 180425840 180751120 180207872 178818528 
1247.746 176622800 173677696 170060176 165853760 161138672 155983472 
1250.639 150434224 144520240 138265120 131699536 124876808 117881184 
1253.532 110818496 103818528 97020696 90549112 84517744 79011448 74076712 
1256.908 69727680 65943652 62677600 59860860 57414208 55257832 53309932 
1260.283 51500796 49774928 48090492 46424808 44770884 43133560 41525060 
1263.658 39961072 38457216 37026196 35678612 34422844 33264984 32208536 
1267.033 31253804 30397036 29630414 28943692 28327546 27774506 27280946 
1270.409 26846874 26473874 26163692 25916964 25733722 25615120 25564160 
1273.784 25586722 25689532 25877714 26151726 26505078 26922908 27382146 
1277.159 27854658 28306432 28700476 29002382 29180486 29213408 29093852 
1280.534 28830158 28445406 27971224 27443978 26894882 26345706 25809528 
1283.910 25291606 24794544 24322648 23883822 23488802 23149568 22874930 
1287.285 22670134 22537396 22478210 22495414 22594948 22783746 23067588 
1290.660 23447848 23920510 24475250 25097256 25769056 26468804 27170596 
1294.035 27845580 28459132 28978792 29379332 29648114 29790428 29829110 
1297.411 29801996 29751394 29720064 29745504 29854380 30065288 30387298 
1300.786 30819944 31350274 31950324 32579388 33181890 33696672 34068944 
1304.161 34253584 34225620 33981580 33537828 32925286 32183130 31357858 
1307.536 30495020 29638394 28829626 28100618 27473910 26959572 26556220 
1310.912 26253158 26035648 25890374 25807524 25782032 25812658 25899554 
1314.287 26043036 26242844 26499618 26814096 27187316 27618478 28102562 
1317.662 28630394 29188742 29764524 30348816 30938908 31538072 32152370 
1321.037 32785404 33433464 34082992 34710988 35290296 35793264 36197552 
1324.413 36492424 36680984 36782272 36828468 36865152 36943680 37110784 
1327.788 37405232 37846300 38429700 39128444 39900556 40699404 41482440 
1331.163 42223548 42913504 43559724 44178984 44792264 45419544 46075916 
1334.538 46773208 47519596 48319964 49174536 50076860 51012964 51959340 
1337.914 52885440 53759928 54551644 55237548 55806332 56259296 56610016 
1341.289 56879388 57093260 57275028 57443328 57609920 57778616 57946584 
1344.664 58106812 58251984 58377040 58480180 58561240 58617476 58637992 
1348.039 58601816 58475896 58220232 57799056 57186004 56376048 55387596 
1351.415 54264524 53069536 51873044 50752644 49777712 49004404 48475312 
1354.790 48210360 48206696 48435892 48850128 49386020 49972872 50549164 
1358.165 51063720 51482144 51788520 51981336 52071536 52078824 52034036 
1361.540 51978500 51959900 52033512 52248564 52636748 53205876 53934112 
1364.916 54774292 55653840 56488072 57184872 57648552 57802272 57596756 
1368.291 57024452 56121616 54964492 53653480 52285784 50949024 49707268 
1371.666 48594876 47627876 46809072 46138736 45621628 45268044 45089504 
1375.041 45092520 45273560 45619456 46111728 46733536 47474240 48332004 
1378.417 49315228 50443128 51747980 53271460 55063140 57169376 59613352 
1381.792 62373428 65359408 68417752 71322040 73806400 75617224 76515632 
1385.167 76329424 74986232 72547056 69227768 65364948 61376440 57634700 
1388.542 54394108 51778664 49787336 48346036 47347812 46688340 46275168 
1391.917 46027616 45880104 45770964 45643192 45453244 45175164 44809384 
1395.293 44379352 43922248 43472368 43049144 42656308 42284608 41921984 
1398.668 41563088 41217748 40910876 40678480 40555104 40565548 40722184 
1402.043 41022404 41451604 41984680 42593512 43248808 43926208 44610872 
1405.418 45298092 45992108 46702840 47443896 48229316 49070504 49974880 
1408.794 50942728 51967444 53035388 54130476 55239352 56353936 57471016 
1412.169 58587972 59694468 60769796 61783076 62700680 63500284 64180276 
1415.544 64764476 65295400 65826536 66408904 67076572 67843064 68697656 
1418.919 69612112 70552000 71487864 72398744 73271144 74093920 74858512 
1422.295 75560552 76209080 76830112 77468416 78174776 78991256 79938624 
1425.670 81010424 82179744 83409320 84665656 85919664 87149152 88340672 
1429.045 89487864 90596752 91687104 92797232 93979400 95285968 96764872 
1432.420 98445552 100339472 102443296 104751768 107266936 109993560 
1435.313 112935912 116079720 119380808 122766168 126161336 129520656 
1438.207 132826744 136077056 139251232 142294400 145095872 147495232 
1441.100 149321888 150401520 150597056 149832288 148089312 145415264 
1443.993 141911696 137739456 133094680 128178584 123200384 118340960 
1446.886 113751992 109565736 105876600 102734592 100133504 98018184 96303008 
1450.261 94901688 93760640 92870144 92264088 91993976 92104392 92602928 
1453.636 93454904 94578592 95858288 97164720 98347552 99274304 99873752 
1457.011 100182032 100339520 100526160 100907584 101583656 102602056 
1459.905 103981120 105715800 107782264 110127440 112672696 115295080 
1462.798 117821256 120057576 121798840 122894232 123304904 123127168 
1465.691 122558560 121810952 121069448 120450440 120007168 119757216 
1468.584 119691472 119780040 119958640 120120440 120109208 119719360 
1471.477 118757192 117110080 114819312 112083800 109186720 106386992 
1474.370 103836160 101592656 99659544 98028944 96711296 95733776 95117728 
1477.745 94861576 94927784 95252216 95754184 96360216 97020696 97712760 
1481.120 98445376 99250480 100176240 101275920 102607096 104236600 106235856 
1484.496 108679040 111627648 115108328 119084832 123429344 127931264 
1487.389 132275848 136066592 138886432 140311632 140011584 137846176 
1490.282 133919936 128587320 122338536 115692256 109049560 102645280 
1493.175 96594360 90910768 85572992 80583672 75984288 71866552 68348872 
1496.550 65531060 63455992 62096424 61380984 61217556 61520340 62223280 
1499.925 63271584 64616464 66211932 68006216 69944352 71974000 74027712 
1503.301 76023560 77855168 79352560 80279816 80340688 79234040 76806936 
1506.676 73193792 68819896 64193456 59695724 55500200 51623736 48024908 
1510.051 44667424 41538296 38659376 36068280 33794008 31852656 30238714 
1513.426 28930730 27898046 27103794 26504866 26045710 25667246 25320196 
1516.802 24979916 24660100 24403184 24260838 24265216 24414786 24667570 
1520.177 24955384 25201636 25358658 25435452 25495672 25622080 25870540 
1523.552 26259670 26772368 27376182 28035474 28725290 29436770 30172964 
1526.927 30943536 31756788 32619390 33537004 34519444 35582936 36747760 
1530.302 38034256 39456196 41017816 42708256 44497720 46341668 48184556 
1533.678 49977368 51691508 53328552 54908164 56451772 57970172 59458528 
1537.053 60903356 62274560 63535720 64642764 65543660 66182560 66512004 
1540.428 66516324 66222964 65697236 65019028 64248160 63406452 62472436 
1543.803 61401936 60154672 58729284 57178672 55599228 54093996 52726712 
1547.179 51511580 50410228 49358328 48291672 47178760 46034580 44914420 
1550.554 43884272 42990024 42245200 41632628 41122888 40689652 40323264 
1553.929 40030608 39826536 39720108 39706200 39761244 39847128 39903860 
1557.304 39842296 39548732 38902436 37848364 36466948 34954432 33516492 
1560.680 32273594 31257332 30439148 29764418 29173966 28614504 28048340 
1564.055 27460780 26864674 26292898 25785652 25369406 25048110 24801946 
1567.430 24597188 24394388 24160186 23878324 23552148 23203602 22862320 
1570.805 22556730 22306740 22122818 22008998 21962712 21975502 22029284 
1574.181 22097090 22147332 22148830 22086560 21970798 21833776 21711950 
1577.556 21628880 21588554 21581206 21593778 21617004 21649776 21697494 
1580.931 21767754 21865030 21988260 22130524 22283126 22438190 22590758 
1584.306 22737272 22872450 22987266 23070174 23109520 23099770 23044598 
1587.682 22958864 22864520 22785980 22745548 22758712 22835638 22982968 
1591.057 23204722 23501466 23864706 24274080 24691980 25067558 25349630 
1594.432 25491736 25467422 25276750 24944470 24513602 24031892 23546868 
1597.807 23095542 22704978 22396322 22185198 22082342 22092940 22214282 
1601.183 22436794 22746594 23130942 23580098 24087294 24646036 25244372 
1604.558 25860834 26465740 27019828 27480936 27811560 27980200 27968220 
1607.933 27770620 27395662 26861818 26193674 25423364 24587792 23727646 
1611.308 22887886 22106502 21410054 20810094 20301638 19868136 19485866 
1614.684 19130768 18779870 18415668 18033086 17639522 17257208 16915466 
1618.059 16642055 16455354 16361244 16354844 16422113 16543670 16696764 
1621.434 16860866 17021690 17173024 17317408 17463326 17620474 17795834 
1624.809 17994230 18219498 18474958 18762396 19078970 19414484 19751228 
1628.185 20068836 20352644 20599600 20820870 21035782 21266110 21526992 
1631.560 21823182 22148340 22489412 22829702 23149114 23426340 23636494 
1634.935 23752562 23753892 23637054 23422810 23147332 22849118 22555892 
1638.310 22278556 22013982 21749814 21472332 21172482 20852330 20524526 
1641.686 20209988 19928596 19692838 19504754 19354892 19226416 19095624 
1645.061 18936800 18726728 18446990 18092220 17674962 17226042 16786228 
1648.436 16397063 16092408 15890926 15799686 15812298 15908729 16047779 
1651.811 16162731 16173702 16013365 15678853 15237996 14782160 14369541 
1655.187 14014082 13706445 13432412 13183315 12959690 12767298 12612341 
1658.562 12497166 12417614 12363680 12322056 12279858 12224475 12143815 
1661.937 12027571 11868588 11667999 11438281 11203346 10992530 10830731 
1665.312 10734366 10706008 10735488 10800804 10873502 10925486 10932282 
1668.688 10880229 10768603 10606752 10410342 10197028 9985309 9791689 
1672.063 9630607 9510936 9431659 9378737 9324568 9235950 9086376 8872695 
1675.920 8620149 8372850 8171742 8038700 7975621 7966981 7990706 8026752 
1679.778 8066008 8113065 8182175 8287160 8430446 8593212 8733490 8789646 
1683.635 8701847 8451190 8080050 7675231 7315300 7043620 6863828 6755888 
1687.492 6690370 6638016 6576047 6489098 6371332 6227345 6071142 5923695 
1691.350 5806988 5742452 5743795 5815216 5949223 6126956 6318546 6485365 
1695.207 6595525 6636367 6624928 6597073 6590984 6629605 6713285 6820743 
1699.065 6910150 6931561 6843598 6643870 6374493 6099569 5869821 5707099 
1702.922 5611294 5566353 5548264 5527759 5479136 5386233 5248776 5081996 
1706.780 4909314 4753484 4627715 4534793 4468905 4421271 4384920 4359350 
1710.637 4351451 4373206 4436066 4546311 4701698 4890817 5098457 5307067 
1714.494 5502926 5677859 5824685 5933738 5989433 5971058 5863305 5666512 
1718.352 5403644 5112202 4833185 4598580 4424082 4312664 4257618 4246844 
1722.209 4265281 4298040 4332743 4360421 4377758 4387498 4397974 4421137 
1726.067 4468973 4550998 4669645 4818945 4984117 5146769 5290163 5405087 
1729.924 5494638 5572092 5655233 5756990 5876672 5992860 6065430 6040903 
1733.781 5878251 5577664 5188280 4785476 4432786 4166849 3993895 3901109 
1737.639 3865872 3862262 3867009 3863064 3845046 3819707 3801524 3803462 
1741.496 3832276 3884627 3949623 4012054 4059042 4085364 4095933 4104095 
1745.354 4125202 4173306 4254774 4366646 4497797 4632905 4756834 4855332 
1749.211 4916117 4926439 4872421 4743669 4538509 4271103 3971023 3675929 
1753.069 3423815 3240140 3135333 3102894 3122117 3161633 3188234 3178822 
1756.926 3125921 3040060 2942874 2858016 2801653 2778477 2781678 2795350 
1760.783 2799452 2773208 2702920 2586376 2435008 2270104 2118314 2005655 
1764.641 1950734 1962683 2037811 2160202 2303080 2435041 2531581 2580909 
1768.498 2588675 2571410 2549379 2536280 2533348 2530581 2511518 2462932 
1772.356 2381832 2278531 2170892 2074632 1997433 1937953 1890329 1849964 
1776.213 1816623 1795263 1793266 1815825 1861810 1922411 1982687 2026193 
1780.071 2042139 2028956 1995569 1957524 1931097 1926338 1944676 1977761 
1783.928 2011147 2028856 2018470 1975897 1907668 1829866 1762724 1726696 
1787.785 1738406 1805843 1927370 2089813 2272036 2445704 2580509 2652245 
1791.643 2648044 2571776 2442139 2288390 2138592 2010515 1912194 1841911 
1795.500 1793067 1758466 1733283 1716716 1712358 1726363 1763955 1826971 
1799.358 1910729 2002725 2083021 2131899 2133098 2080558 1980057 1847269 
1803.215 1703876 1570008 1462311 1388911 1350720 1342311 1355805 1384290 
1807.073 1422285 1466933 1516339 1568212 1618728 1662896 1694495 1708566 
1810.930 1701381 1672542 1624448 1563224 1497985 1438973 1396057 1377775 
1814.787 1387614 1423515 1477738 1538584 1592954 1631233 1649758 1651721 
1818.645 1644836 1637785 1638749 1653417 1684783 1735511 1808438 1905038 
1822.502 2024229 2159370 2296584 2416083 2499354 2535114 2525915 2487757 
1826.360 2445238 2421880 2431676 2474961 2538313 2600308 2637143 2632909 
1830.217 2585909 2508552 2420714 2341921 2286458 2259879 2262043 2289123 
1834.074 2336258 2398191 2469496 2544513 2617009 2681915 2736295 2781245 
1837.932 2822297 2867922 2929096 3016270 3137068 3296293 3495088 3730701 
1841.789 3994665 4273914 4549458 4798944 5002819 5150726 5245993 5302539 
1845.647 5338799 5369795 5402067 5432967 5453601 5454608 5428639 5375061 
1849.504 5298816 5208065 5110090 5008518 4902110 4787118 4659999 4520094 
1853.362 4370160 4215393 4061550 3911875 3767531 3627479 3490579 3357428 
1857.219 3229892 3110103 2999422 2896140 2796684 2696518 2592775 2484658 
1861.076 2375136 2269171 2171158 2085319 2014875 1962183 1931064 1926371 
1864.934 1952298 2011114 2099902 2209954 2325498 2427911 2498488 2522483 
1868.791 2493989 2416916 2303846 2171225 2035914 1911495 1807374 1728160 
1872.649 1674405 1642874 1626643 1616965 1606057 1588032 1560564 1525017 
1876.506 1484321 1440868 1395692 1347529 1294353 1234936 1170345 1103737 
1880.364 1039564 981577 931003 886643 845375 803879 760860 717248 675664 
1884.703 640157 614275 600737 601534 618356 651273 697633 751068 800725 
1889.043 832494 834918 803016 742040 666804 596192 548416 533454 550440 
1893.382 588229 631662 665178 679547 674635 656516 634250 614607 599676 
1897.722 587034 573663 557174 539060 523203 514279 514545 523899 539093 
1902.062 556677 574725 593504 614739 639692 667932 696870 723487 745990 
1906.401 765075 783796 805306 830005 854206 870972 872599 854771 818585 
1910.741 770652 720268 676394 643177 621044 608070 602297 604586 618821 
1915.080 647922 692224 745658 796078 828378 831333 802186 748977 687279 
1919.420 633819 599709 587267 589224 593040 586338 559729 509801 439778 
1923.760 357099 269761 185523 110913 50167 6262 -20145 -31674 -33762 -34159 
1928.581 -39659 -53640 -74280 -96740 -113899 -121187 -119266 -113403 -110885 
1932.921 -118073 -137219 -164876 -195546 -223067 -244592 -262044 -279329 
1936.778 -299362 -322936 -345218 -358958 -357435 -337769 -301249 -255057 
1940.636 -207965 -168387 -142751 -135298 -146891 -177529 -225319 -285057 
1944.493 -350516 -412488 -461808 -491695 -500863 -492787 -477033 -463364 
1948.351 -458730 -465350 -479880 -496924 -511156 -521349 -528828 -536837 
1952.208 -547823 -561424 -575752 -590279 -606856 -631142 -671439 -733299 
1956.065 -818269 -920977 -1030272 -1132831 -1219474 -1286608 -1336952 
1959.441 -1377547 -1414472 -1449412 -1481312 -1505978 -1521563 -1529487 
1962.816 -1534077 -1539459 -1547019 -1555339 -1560457 -1561513 -1562933 
1966.191 -1573597 -1605058 -1664640 -1750385 -1849706 -1944122 -2015465 
1969.566 -2053226 -2059195 -2043333 -2020676 -2003559 -1995775 -1994885 
1972.942 -1995940 -1994489 -1991586 -1992477 -1999898 -2011243 -2017477 
1976.317 -2003295 -1954941 -1870062 -1756754 -1633744 -1521794 -1436896 
1979.692 -1383261 -1357861 -1351255 -1354327 -1364434 -1381411 -1407173 
1983.067 -1441949 -1481708 -1517997 -1544312 -1556066 -1553755 -1542199 
1986.443 -1526153 -1505912 -1477845 -1434651 -1369422 -1281521 -1177444 
1989.818 -1068086 -967462 -886523 -828951 -793927 -776034 -769386 -769981 
1993.675 -776861 -788701 -803948 -820054 -833283 -842377 -849454 -858812 
1997.533 -875876 -903320 -938600 -975264 -1006373 -1027760 -1041709 -1056815 
2001.390 -1084183 -1132237 -1203515 -1292125 -1385705 -1473255 -1546194 
2004.765 -1602582 -1645232 -1678041 -1701244 -1712201 -1705633 -1679691 
2008.141 -1638630 -1593768 -1557188 -1538270 -1538567 -1548736 -1555868 
2011.516 -1547383 -1516379 -1465891 -1405390 -1344285 -1289185 -1240554 
2014.891 -1193734 -1143473 -1090099 -1037710 -995001 -969380 -962470 -969281 
2018.749 -981777 -991596 -995463 -997480 -1003364 -1018703 -1044321 -1072416 
2022.606 -1091883 -1093239 -1071325 -1030008 -979463 -931623 -895153 -873858 
2026.463 -866054 -866584 -872933 -882423 -893765 -905668 -913141 -908975 
2030.321 -888011 -847801 -790785 -724831 -657510 -591768 -525850 -452242 
2034.178 -362864 -255355 -135298 -12524 98750 188805 256400 306763 349273 
2038.518 393479 443924 499020 555681 609132 657811 703674 749077 794319 
2042.857 836744 871105 890926 894877 886245 872599 863801 869146 892121 
2047.197 933792 991773 1063113 1146525 1240552 1341579 1443062 1535691 
2051.054 1610380 1661333 1688940 1699751 1705107 1716583 1740501 1777929 
2054.912 1825075 1874455 1921213 1964979 2007852 2053991 2105362 2159969 
2058.769 2212519 2256714 2288956 2309508 2323133 2335758 2351582 2371371 
2062.627 2391827 2407753 2415649 2414650 2407320 2397791 2388995 2380766 
2066.484 2371171 2356679 2334826 2307144 2276832 2247622 2222976 2203161 
2070.342 2186343 2169460 2152277 2135062 2121976 2116882 2120978 2133098 
2074.199 2150213 2167595 2183146 2197499 2212852 2231635 2255316 2281628 
2078.056 2306844 2327797 2343054 2354214 2365807 2381466 2402989 2429644 
2081.914 2457833 2483659 2505786 2525082 2544646 2568443 2597775 2630843 
2085.771 2664379 2693518 2715123 2729026 2736228 2738196 2735028 2724892 
2089.629 2704987 2674381 2635143 2592442 2554445 2528615 2518550 2523549 
2093.486 2538713 2557711 2575209 2589809 2602308 2615875 2632209 2650378 
2097.344 2667813 2681115 2688817 2692484 2696618 2705787 2723425 2750500 
2101.201 2784546 2822063 2860351 2898541 2937036 2977636 3020541 3064719 
2105.058 3108735 3151419 3193675 3238605 3289582 3348446 3414263 3482395 
2108.916 3546329 3601185 3645656 3682746 3718904 3760814 3811518 3869650 
2112.773 3929394 3982392 4022622 4047470 4058641 4061818 4063624 4068373 
2116.631 4078708 4094562 4114230 4136842 4162433 4191070 4223456 4259391 
2120.488 4297538 4336626 4376084 4415279 4454511 4494114 4532650 4568142 
2124.345 4598312 4621318 4637058 4647942 4656550 4665458 4676277 4687932 
2128.203 4698114 4705148 4707928 4706957 4704646 4702703 4702301 4704344 
2132.060 4708565 4716034 4729299 4751307 4783869 4826484 4874766 4920675 
2135.918 4956969 4978285 4983279 4976107 4963170 4949730 4938838 4929388 
2139.775 4917893 4900769 4876743 4846687 4813786 4779815 4744406 4704646 
2143.633 4656952 4598815 4531746 4459967 4388535 4320294 4254640 4187022 
2147.490 4111153 4024427 3927589 3827295 3731570 3645121 3566473 3487639 
2151.347 3396197 3280167 3135066 2962790 2772207 2573143 2372670 2172324 
2155.205 1969972 1763323 1556208 1361788 1200945 1095532 1061751 1101844 
2159.062 1202008 1340981 1493198 1637851 1763822 1866369 1944310 1998132 
2162.920 2030721 2044103 2044137 2038311 2032086 2029223 2028823 2024629 
2166.777 2009816 1980290 1936422 1885237 1837685 1802117 1783352 1779592 
2170.635 1782453 1781455 1768879 1740102 1696026 1641477 1581680 1520728 
2174.492 1461813 1405930 1354376 1309241 1270957 1238425 1209252 1177688 
2178.349 1138784 1090483 1034316 975766 923001 882891 859020 851583 856829 
2182.689 870043 888934 911744 937876 966766 995924 1021098 1039398 1050359 
2187.029 1056404 1064375 1081116 1110746 1154697 1209285 1268365 1325460 
2190.886 1376712 1420124 1456028 1485551 1508858 1526015 1538185 1547662 
2194.743 1559034 1577557 1606622 1646066 1691535 1736243 1771840 1794464 
2198.601 1803913 1804479 1802150 1802150 1806841 1815825 1826871 1838684 
2202.458 1851628 1868233 1889996 1917319 1946840 1972102 1987613 1989111 
2206.316 1976496 1954329 1929932 1908999 1895853 1891627 1893657 1899814 
2210.173 1908100 1917652 1929233 1943678 1960652 1980024 2001660 2025961 
2214.031 2054024 2087449 2125439 2165197 2202261 2230802 2246623 2250120 
2217.888 2243758 2233034 2224108 2219879 2220278 2224308 2229237 2235232 
2221.745 2244891 2262077 2289356 2327630 2372237 2416183 2453335 2478493 
2225.603 2490723 2493323 2490690 2486458 2482725 2478593 2472162 2462665 
2229.460 2451135 2440006 2432809 2431709 2436075 2444205 2453202 2461099 
2233.318 2468596 2477427 2490423 2509352 2534681 2565444 2600675 2640443 
2237.175 2685983 2738963 2800553 2868455 2938437 3004559 3060915 3104530 
2241.032 3135633 3157360 3174916 3191872 3210665 3231060 3252592 3274492 
2244.890 3297228 3322201 3350850 3383006 3417603 3451935 3483197 3510319 
2248.747 3533502 3553879 3573422 3592632 3609905 3624238 3633794 3638472 
2252.605 3640510 3643283 3649699 3661126 3677166 3694876 3712087 3727459 
2256.462 3740727 3754229 3770005 3788856 3810248 3831775 3850361 3863398 
2260.320 3870018 3870151 3864903 3855375 3842037 3825156 3806036 3786182 
2264.177 3768568 3756970 3753828 3760412 3775954 3797813 3822883 3849391 
2268.034 3875500 3900875 3925616 3948954 3969385 3985569 3996337 4001721 
2271.892 4003293 4003627 4005165 4010014 4018676 4030648 4045430 4062052 
2275.749 4079946 4098910 4117709 4134936 4148918 4158118 4162400 4163537 
2279.607 4164507 4168823 4179261 4197661 4223624 4255610 4291916 4331304 
2283.464 4372737 4416417 4461541 4507606 4553108 4596437 4636958 4675071 
2287.322 4712316 4750938 4792981 4839651 4890616 4945206 5002183 5060474 
2291.179 5119846 5180702 5243444 5308141 5375095 5443905 5514470 5586860 
2295.036 5661074 5737483 5815854 5895481 5975559 6055384 6134383 6212724 
2298.894 6290911 6369482 6448875 6529560 6611371 6694812 6780927 6870628 
2302.751 6965466 7066655 7174807 7290399 7413672 7544871 7684573 7834172 
2306.609 7993710 8163605 8342719 8529072 8720203 8913888 9107962 9300873 
2310.466 9491327 9677496 9857710 10030473 10194958 10351939 10503817 
2313.841 10654187 10807122 10966805 11135828 11316172 11508568 11712589 
2317.217 11927160 12150425 12379055 12608691 12834900 13053033 13259625 
2320.592 13452816 13631151 13793005 13935655 14054636 14145168 14204390 
2323.967 14232910 14236403 14225515 14213806 14214491 14238080 14289817 
2327.342 14368582 14468702 14580118 14692318 14795049 14880146 14942145 
2330.718 14978395 14989542 14979253 14954697 14925341 14900720 14890468 
2334.093 14900275 14932474 14985152 15054404 15135091 15222725 15314393 
2337.468 15408346 15503246 15597618 15689056 15774466 15851645 15919281 
2340.843 15976960 16025536 16064249 16089590 16094094 16064420 15982701 
2344.219 15830923 15593153 15263151 14848945 14376665 13886389 13428277 
2347.594 13056617 12815892 12738363 12839439 13115249 13544589 14090914 
2350.969 14712231 15363101 16003912 16607592 17158580 17652324 18090666 
2354.344 18478416 18820974 19122250 19386940 19620070 19826134 20008702 
2357.719 20169410 20307470 20422062 20513690 20584834 20640634 20686120 
2361.095 20723652 20751526 20764420 20754794 20716876 20649494 20557112 
2364.470 20448006 20331636 20214674 20099374 19984034 19863384 19731810 
2367.845 19586064 19423874 19244600 19047742 18832358 18596122 18338238 
2371.220 18058264 17757518 17439046 17105604 16759401 16401295 16031276 
2374.596 15649689 15258279 14860979 14462296 14068051 13682952 13309742 
2377.971 12950234 12605962 12277950 11969120 11682737 11421748 11188454 
2381.346 10983626 10806102 10653779 10524966 10417707 10331240 10264332 
2384.721 10215108 10180542 10156697 10139535 10125595 10113453 10102398 
2388.097 10092970 10085576 10080117 10075166 10069503 10061703 10051055 
2391.472 10037526 10021758 10003855 9984055 9962458 9939336 9916319 9895708 
2395.329 9880217 9872354 9873336 9882759 9899064 9920455 9945371 9973917 
2399.187 10007178 10046579 10093139 10147369 10208052 10273968 10343829 
2402.562 10416859 10493023 10572902 10656632 10744352 10836166 10932043 
2405.937 11032224 11137901 11249724 11368277 11493633 11624809 11760758 
2409.313 11901041 12045796 12195780 12352123 12514387 12680943 12848893 
2412.688 13014347 13173274 13323545 13463820 13593542 13712634 13819992 
2416.063 13913690 13991531 14051897 14094782 14122061 14137192 14143969 
2419.438 14146263 14146400 14145783 14145133 14145064 14146022 14149344 
2422.813 14155710 14165467 14178680 14195216 14215346 14240648 14273313 
2426.189 14315808 14370637 14438557 14519405 14611815 14714802 14827790 
2429.564 14951267 15086683 15235148 15397257 15572409 15758866 15953997 
2432.939 16156439 16364409 16577506 16796046 17020380 17251140 17489094 
2436.314 17735324 17990950 18256540 18532700 18818136 19111552 19410880 
2439.690 19714716 20022824 20336638 20658008 20988834 21329724 21679486 
2443.065 22035384 22394194 22753194 23111234 23468588 23826518 24186390 
2446.440 24549364 24915238 25283494 25653818 26025868 26399434 26774096 
2449.815 27148376 27519694 27884902 28240480 28584174 28915288 29234388 
2453.191 29543476 29844016 30136490 30419708 30691444 30947946 31185696 
2456.566 31401988 31594444 31761598 31902932 32017912 32105810 32166500 
2459.941 32198474 32199972 32169320 32104634 32004860 31871230 31706386 
2463.316 31515304 31304582 31081576 30853026 30624952 30402328 30189340 
2466.692 29989804 29808668 29649710 29518188 29418084 29351964 29321442 
2470.067 29326512 29366286 29439358 29544008 29677914 29838018 30020620 
2473.442 30221022 30434314 30656278 30883408 31113466 31344860 31575878 
2476.817 31804596 32028866 32245576 32452010 32646146 32825462 32987554 
2480.193 33130002 33248850 33340216 33401296 33429888 33426736 33394102 
2483.568 33336352 33258256 33164584 33059842 32946802 32828466 32707158 
2486.943 32584350 32461256 32337770 32212782 32084334 31950076 31808372 
2490.318 31658802 31501838 31338238 31168002 30990112 30801910 30599104 
2493.694 30378236 30136276 29872304 29587670 29284896 28967598 28638888 
2497.069 28300668 27954084 27599094 27235292 26862948 26482750 26096376 
2500.444 25706372 25316228 24929134 24548278 24176228 23813880 23461138 
2503.819 23116998 22779906 22448726 22124178 21807366 21500774 21207064 
2507.195 20927982 20663568 20412930 20173748 19944068 19723350 19511998 
2510.570 19311590 19124778 18953032 18797064 18656302 18529242 18413800 
2513.945 18308516 18212310 18124036 18043136 17969262 17901720 17841438 
2517.320 17789172 17746682 17715858 17698084 17693254 17700086 17716134 
2520.696 17738740 17765666 17795766 17828732 17865294 17906312 17952376 
2524.071 18003832 18060786 18122756 18188470 18256540 18323862 18386250 
2527.446 18439902 18481114 18507494 18518730 18516518 18503242 18481458 
2530.821 18452728 18416982 18373738 18322132 18262104 18195034 18123310 
2534.197 18049388 17975582 17903516 17833462 17765630 17700776 17638866 
2537.572 17581450 17529180 17482196 17439976 17401140 17364272 17328512 
2540.947 17293824 17260586 17229834 17202358 17177572 17154376 17131798 
2544.322 17108568 17084304 17059596 17034990 17011214 16989126 16968386 
2547.698 16948644 16929384 16910024 16889560 16867514 16842990 16815332 
2551.073 16784646 16751859 16718768 16687950 16661851 16641986 16628902 
2554.448 16621638 16617887 16616199 16614271 16611585 16607627 16602153 
2557.823 16594615 16584184 16569726 16550174 16525289 16495621 16461447 
2561.198 16423523 16382301 16337195 16288068 16234716 16177863 16118988 
2564.574 16060397 16004117 15951592 15904089 15861508 15824050 15791783 
2567.949 15764810 15743542 15727945 15717776 15712244 15710767 15712794 
2571.324 15718155 15727464 15741242 15759211 15781064 15805632 15831679 
2574.699 15858620 15886836 15917219 15951386 15990058 16033649 16080925 
2578.075 16130440 16180649 16230796 16280809 16331278 16382851 16436050 
2581.450 16490526 16545769 16601466 16657822 16715806 16777310 16843748 
2584.825 16916192 16994744 17078344 17165370 17253934 17342168 17428766 
2588.200 17513346 17595872 17676550 17756794 17837122 17918812 18002624 
2591.576 18088316 18175202 18262104 18347848 18431570 18513614 18594290 
2594.951 18674566 18754786 18834504 18912366 18987336 19057990 19124500 
2598.326 19188182 19251180 19315954 19384306 19457034 19533936 19614282 
2601.701 19697656 19783790 19873582 19967868 20067690 20173576 20285564 
2605.077 20403100 20526088 20654152 20786838 20924088 21065170 21209152 
2608.452 21355304 21502864 21651866 21802698 21956090 22112080 22270256 
2611.827 22429292 22587198 22742056 22892252 23036666 23174662 23305746 
2615.202 23428894 23543298 23648462 23744060 23831592 23913262 23991446 
2618.578 24068452 24145334 24221808 24296754 24368520 24436202 24499650 
2621.953 24559742 24617526 24674164 24730034 24785036 24839098 24892500 
2625.328 24946120 25001358 25059238 25120602 25184922 25251148 25317738 
2628.703 25383492 25448170 25512468 25577444 25644224 25712912 25783016 
2632.079 25852814 25920762 25985448 26046414 26103870 26158624 26211624 
2635.454 26263682 26315392 26367250 26419432 26472572 26526844 26582884 
2638.829 26640974 26701258 26764016 26829286 26896928 26967470 27040458 
2642.204 27115750 27193066 27272194 27352786 27435084 27519448 27606122 
2645.580 27695850 27788636 27884336 27983098 28084640 28188786 28295964 
2648.955 28405962 28518712 28634040 28751240 28870064 28990694 29113268 
2652.330 29238962 29367916 29500742 29636834 29775702 29916140 30057654 
2655.705 30200458 30345154 30492424 30643300 30797784 30955704 31115924 
2659.081 31277626 31439782 31602032 31764240 31926252 32088046 32249112 
2662.456 32409094 32567744 32725022 32881108 33036712 33192158 33347766 
2665.831 33503286 33658256 33812456 33965992 34118976 34272228 34426180 
2669.206 34581264 34737728 34895436 35054532 35214724 35376416 35539820 
2672.582 35705192 35872068 36040308 36209400 36378952 36548864 36719780 
2675.957 36891664 37065060 37240112 37416460 37593644 37771804 37950648 
2679.332 38130904 38313624 38499644 38690128 38885804 39087368 39295556 
2682.707 39511208 39734992 39967504 40209444 40460972 40721744 40992000 
2686.083 41271092 41559040 41855828 42161180 42474712 42796040 43124376 
2689.458 43458892 43799124 44144948 44495996 44852620 45214652 45581732 
2692.833 45953872 46331016 46713464 47102016 47497380 47900096 48310224 
2696.208 48727636 49151644 49581784 50017520 50458792 50905880 51358536 
2699.583 51816144 52278272 52743620 53211080 53679872 54149356 54618668 
2702.959 55087064 55552912 56014588 56470336 56918064 57356844 57785920 
2706.334 58204664 58612396 59007832 59389608 59755336 60103448 60432380 
2709.709 60741748 61031616 61303096 61556952 61794536 62016272 62222860 
2713.084 62414132 62590136 62750064 62892856 63017024 63120588 63201636 
2716.460 63258588 63290484 63297032 63279056 63238048 63176536 63097752 
2719.835 63005416 62903808 62797040 62689348 62584280 62485176 62395004 
2723.210 62316632 62252840 62206916 62181296 62178772 62200988 62248444 
2726.585 62320988 62417996 62538252 62680736 62844680 63028984 63232332 
2729.961 63453080 63688704 63936516 64194144 64459808 64731708 65009556 
2733.336 65291776 65577260 65864168 66150188 66432924 66710428 66981384 
2736.711 67245312 67502168 67751816 67994048 68228904 68456112 68675608 
2740.086 68888224 69094960 69296904 69495592 69692712 69889864 70089368 
2743.462 70294112 70507056 70731176 70969112 71221888 71490096 71772408 
2746.837 72066768 72370520 72679784 72990664 73298208 73596824 73880944 
2750.212 74145008 74385024 74598448 74785088 74946184 75083904 75201336 
2753.587 75300664 75383312 75449688 75500032 75532840 75546208 75537968 
2756.963 75505200 75444720 75353752 75230568 75073896 74884248 74662112 
2760.338 74408896 74125560 73813120 73472368 73104312 72710456 72293384 
2763.713 71856184 71403576 70940160 70471432 70003016 69540000 69087816 
2767.088 68651512 68234984 67841864 67474840 67135968 66827120 66549464 
2770.464 66304096 66091740 65912724 65766432 65651180 65564504 65502860 
2773.839 65462252 65438172 65426736 65423580 65424808 65426544 65424540 
2777.214 65414904 65393724 65357016 65301708 65224700 65123520 64996668 
2780.589 64843760 64665296 64463540 64241932 64005428 63759424 63509604 
2783.965 63261120 63018216 62783644 62558680 62343368 62135764 61932880 
2787.340 61731396 61527100 61316264 61095764 60863328 60617800 60359236 
2790.715 60088608 59807504 59518184 59223780 58927184 58632608 58344292 
2794.090 58066668 57804204 57560740 57339148 57141520 56968876 56821148 
2797.466 56697864 56598428 56521924 56467996 56436868 56428376 56443092 
2800.841 56481052 56541060 56621192 56718704 56829836 56950704 57077992 
2804.216 57209552 57344140 57481792 57622520 57766352 57912092 58057652 
2807.591 58199584 58334708 58459408 58571100 58667460 58746660 58807200 
2810.967 58847228 58864644 58857740 58825224 58766572 58681872 58572312 
2814.342 58439392 58285140 58112800 57926136 57729872 57530664 57335900 
2817.717 57153464 56991580 56858124 56758804 56699072 56682272 56709868 
2821.092 56782404 56898612 57056116 57251512 57480432 57737628 58017584 
2824.468 58314284 58621608 58932800 59241628 59541484 59826104 60090664 
2827.843 60330944 60544240 60729172 60885436 61013464 61115024 61192188 
2831.218 61248308 61287260 61314052 61333512 61350264 61368428 61391024 
2834.593 61420864 61460336 61512136 61579176 61665284 61774632 61911712 
2837.969 62081552 62289056 62540240 62842032 63202476 63631044 64138608 
2841.344 64736516 65437556 66256084 67206712 68307224 69577296 71036424 
2844.719 72704104 74594904 76712904 79046384 81561584 84200952 86874424 
2848.094 89470272 91860864 93905728 95479904 96481760 96845160 96552024 
2851.469 95629696 94148312 92203280 89910904 87394800 84766536 82131304 
2854.845 79576480 77165352 74944016 72937208 71151432 69578896 68201056 
2858.220 66994996 65933892 64993084 64150900 63387392 62686668 62034728 
2861.595 61419188 60829668 60258348 59699792 59151900 58615392 58093824 
2864.970 57592404 57118124 56679020 56282760 55937052 55649132 55423732 
2868.346 55264000 55170460 55140292 55167752 55244472 55359708 55500384 
2871.721 55652744 55803128 55938448 56049080 56128744 56175876 56193412 
2875.096 56187492 56166748 56139752 56114228 56095864 56088360 56093604 
2878.471 56112564 56145372 56192320 56253112 56327608 56415548 56516264 
2881.847 56629684 56755292 56892760 57041796 57201464 57370040 57545908 
2885.222 57726692 57910388 58095792 58282376 58470476 58661280 58856716 
2888.597 59058772 59270072 59493904 59733552 59993456 60278676 60594828 
2891.972 60949524 61351524 61810540 62338544 62948116 63650912 64457656 
2895.348 65374464 66401148 67527792 68735000 69990400 71248360 72456920 
2898.723 73557488 74492192 75215952 75698152 75931008 75929824 75731560 
2902.098 75389496 74960992 74506472 74079232 73720520 73463416 73330288 
2905.473 73335864 73490728 73802192 74276112 74917480 75731088 76722200 
2908.849 77896952 79261200 80820680 82577608 84529056 86663416 88957704 
2912.224 91378904 93879528 96400168 98876120 101233296 103397880 105304960 
2915.599 106898360 108141440 109019064 109537936 109723200 109611328 
2918.492 109246384 108668664 107910280 106993512 105928536 104716384 
2921.385 103353312 101835968 100166136 98354656 96422344 94400456 92328760 
2924.760 90247960 88200552 86224336 84348560 82595200 80976920 79497608 
2928.136 78153912 76936896 75834136 74830672 73911864 73064480 72276752 
2931.511 71539624 70846424 70191944 69572088 68984032 68425080 67893624 
2934.886 67388272 66908204 66452108 66018516 65604204 65204984 64815408 
2938.261 64430676 64046860 63662388 63278868 62899976 62532320 62183092 
2941.637 61859252 61567036 61310348 61090348 60904764 60747804 60609648 
2945.012 60476976 60335744 60171872 59974512 59738800 59466888 59168456 
2948.387 58858272 58555100 58277944 58042312 57859432 57734336 57666636 
2951.762 57650364 57676436 57733884 57809880 57892480 57970664 58034740 
2955.138 58077460 58093672 58080492 58037052 57964000 57864012 57740464 
2958.513 57598004 57442344 57278768 57113024 56949760 56792220 56642708 
2961.888 56502260 56371404 56250588 56140696 56042932 55958500 55888628 
2965.263 55833420 55792312 55764136 55746880 55739084 55739532 55747820 
2968.639 55764096 55789336 55824604 55871176 55930344 56003012 56089984 
2972.014 56191940 56309164 56440752 56585896 56741964 56904504 57067832 
2975.389 57223312 57360928 57469576 57537848 57555820 57516592 57417120 
2978.764 57258660 57047084 56792412 56506224 56202084 55893564 55592300 
2982.140 55307844 55046888 54811848 54601836 54412356 54236220 54064124 
2985.515 53886772 53696144 53486188 53253932 52999640 52725704 52435716 
2988.890 52132616 51817712 51489608 51144264 50775992 50379344 49950756 
2992.265 49490424 49002508 48495688 47980832 47469100 46970160 46490040 
2995.641 46030416 45589056 45160640 44739260 44318876 43895492 43467532 
2999.016 43035500 42601956 42170272 41744232 41326988 40920632 40526188 
3002.391 40143436 39771412 39408812 39054488 38707840 38368892 38038380 
3005.766 37717444 37407544 37109552 36824540 36552940 36294620 36049416 
3009.142 35816472 35594552 35381912 35176208 34975156 34776532 34578932 
3012.517 34381492 34184320 33988532 33794976 33604696 33418436 33236582 
3015.892 33059414 32887540 32721524 32562458 32411236 32268134 32133032 
3019.267 32005108 31883068 31765412 31651426 31540494 31432870 31329014 
3022.643 31229452 31134896 31046020 30963994 30890238 30827024 30776798 
3026.018 30742086 30724838 30725726 30743900 30776584 30818984 30864552 
3029.393 30905570 30933536 30940866 30920942 30869994 30787112 30674554 
3032.768 30536998 30380262 30210794 30033900 29853918 29673836 29496096 
3036.144 29322292 29154404 28993952 28842410 28700476 28568392 28445370 
3039.519 28330232 28221704 28118398 28019110 27923380 27830742 27740986 
3042.894 27654638 27572190 27494242 27421674 27354904 27293646 27237374 
3046.269 27185094 27135642 27088594 27043948 27001846 26962852 26926998 
3049.645 26893578 26861324 26828934 26795310 26760458 26725394 26691462 
3053.020 26660212 26632660 26608670 26587674 26568512 26550406 26533466 
3056.395 26518004 26505006 26495216 26488808 26485636 26485284 26487716 
3059.770 26493068 26502154 26516136 26535578 26560728 26591302 26626496 
3063.146 26665638 26708692 26755840 26807504 26863510 26923508 26985804 
3066.521 27049096 27111130 27170174 27225238 27275406 27319970 27358396 
3069.896 27389698 27413060 27428096 27434978 27434202 27427354 27416450 
3073.271 27403532 27391004 27381228 27376324 27378300 27388534 27407132 
3076.646 27433144 27463958 27496432 27526862 27552314 27570956 27582288 
3080.022 27587372 27587478 27584372 27579428 27573498 27567320 27561528 
3083.397 27556620 27553056 27551502 27552066 27555068 27560858 27570144 
3086.772 27583876 27603616 27629990 27663360 27703018 27747026 27793050 
3090.147 27839114 27884018 27927584 27971118 28016000 28063892 28115394 
3093.523 28170542 28228140 28287370 28347492 28408474 28471550 28538032 
3096.898 28609514 28686814 28770004 28857884 28948472 29039400 29128362 
3100.273 29213658 29294572 29371250 29444926 29517196 29589408 29662694 
3103.648 29737556 29813708 29890406 29967330 30043664 30119194 30194134 
3107.024 30268590 30342810 30416972 30491286 30566006 30641664 30718864 
3110.399 30798210 30880206 30965168 31053066 31144078 31237890 31334318 
3113.774 31433120 31533406 31634070 31733900 31831510 31926076 32017522 
3117.149 32106380 32193478 32279662 32365006 32448224 32527960 32602426 
3120.525 32671184 32734704 32795698 32857270 32922820 32994956 33074432 
3123.900 33159934 33249386 33340004 33429564 33516780 33601364 33684212 
3127.275 33766612 33849420 33933928 34020884 34110516 34202856 34297472 
3130.650 34393216 34488808 34582768 34674132 34762640 34849296 34935796 
3134.026 35024284 35116352 35212460 35312292 35414088 35515980 35616024 
3137.401 35713180 35807728 35900576 35993364 36087612 36184296 36283636 
3140.776 36385296 36488316 36591796 36695012 36797708 36900104 37002960 
3144.151 37106956 37213072 37321920 37433800 37548520 37665804 37784884 
3147.527 37905160 38026008 38146932 38267304 38386952 38505332 38622364 
3150.902 38738048 38852500 38965968 39079212 39192552 39306328 39420640 
3154.277 39535340 39649784 39763460 39875928 39986612 40095868 40204392 
3157.652 40312940 40423004 40535680 40651736 40771244 40893580 41017524 
3161.028 41141940 41265772 41388800 41511896 41636344 41763636 41894836 
3164.403 42029904 42167496 42305424 42440988 42571880 42696520 42814616 
3167.778 42926744 43034180 43138316 43240428 43341460 43442300 43542872 
3171.153 43644016 43745584 43847944 43950880 44054360 44157784 44260720 
3174.529 44362176 44461016 44556056 44646200 44730776 44810116 44885396 
3177.904 44958924 45033600 45111964 45195716 45284888 45378124 45473036 
3181.279 45566864 45657732 45744824 45828440 45910228 45991444 46073556 
3184.654 46157456 46243140 46330464 46419348 46509732 46601460 46694612 
3188.030 46788628 46882852 46976876 47070108 47162544 47254412 47346076 
3191.405 47437948 47530204 47622628 47715480 47808316 47901316 47993968 
3194.780 48085680 48175448 48261712 48343296 48420148 48492724 48563156 
3198.155 48634344 48708580 48787764 48871888 48959704 49048876 49137356 
3201.531 49223632 49307324 49389140 49470524 49552816 49637276 49724024 
3204.906 49812792 49902656 49992056 50078980 50161648 50238308 50307868 
3208.281 50370748 50428504 50483804 50539636 50598864 50662344 50730000 
3211.656 50799904 50869968 50938628 51005772 51071996 51139456 51210136 
3215.031 51284588 51362524 51442120 51521316 51598176 51671544 51741560 
3218.407 51808940 51875060 51940780 52006956 52073744 52141360 52209884 
3221.782 52279580 52350368 52422220 52495200 52568640 52642584 52717208 
3225.157 52792748 52869536 52947792 53027152 53107012 53186740 53265992 
3228.532 53344736 53423792 53503948 53586000 53669976 53755016 53839772 
3231.908 53922932 54002960 54079436 54152620 54223192 54292420 54361284 
3235.283 54431064 54502204 54575384 54650532 54727424 54805268 54883124 
3238.658 54959868 55034780 55108128 55179944 55251732 55324704 55399344 
3242.033 55475796 55553436 55630864 55706836 55781464 55854824 55928500 
3245.409 56004484 56084440 56169580 56260052 56354960 56452712 56551512 
3248.784 56649200 56744040 56835312 56922636 57006504 57088160 57169148 
3252.159 57250568 57333552 57418216 57504036 57590396 57676660 57762152 
3255.534 57847204 57932156 58017360 58102840 58188296 58272788 58355324 
3258.910 58435260 58511912 58585584 58656804 58726172 58794456 58862104 
3262.285 58929156 58995724 59061544 59126348 59189720 59251428 59311172 
3265.660 59369400 59426764 59484328 59543340 59605024 59669876 59737808 
3269.035 59807696 59878396 59948036 60016012 60081492 60145196 60208140 
3272.411 60271788 60337684 60407100 60480900 60558488 60638940 60720368 
3275.786 60800552 60877736 60950820 61020328 61088288 61157668 61231672 
3279.161 61312944 61402548 61499652 61602544 61708632 61815544 61922336 
3282.536 62028960 62136296 62245996 62359428 62477600 62601312 62730996 
3285.912 62866808 63008720 63156724 63310036 63467800 63629204 63793504 
3289.287 63960664 64131232 64306244 64486636 64673336 64866184 65065324 
3292.662 65270676 65482324 65700940 65926992 66160724 66401608 66648572 
3296.037 66900088 67155000 67413080 67675184 67942712 68217304 68499760 
3299.413 68789960 69087120 69390312 69699088 70014152 70336696 70668240 
3302.788 71009648 71360856 71720984 72088600 72462992 72844448 73233640 
3306.163 73631952 74039936 74457144 74882168 75312728 75747424 76185664 
3309.538 76627880 77075360 77529488 77990792 78459096 78933832 79414768 
3312.914 79901824 80396112 80898432 81409376 81928472 82454480 82985504 
3316.289 83520344 84058624 84600872 85148192 85701048 86259256 86821368 
3319.664 87385680 87950192 88513976 89076912 89639512 90202200 90764672 
3323.039 91326032 91885264 92441600 92994824 93545976 94095632 94644392 
3326.415 95191688 95735760 96274304 96805152 97326048 97835480 98331720 
3329.790 98812584 99275464 99717688 100136928 100532128 100903448 101252288 
3333.165 101579256 101884056 102164712 102418248 102641336 102832000 
3336.058 102990096 103117760 103217472 103291816 103341376 103365296 
3338.951 103361760 103328176 103263408 103166840 103038872 102879952 
3341.844 102689768 102467168 102211040 101919584 101592320 101229152 
3344.737 100830432 100396160 99926512 99420448 98877864 98299016 97685840 
3348.113 97041080 96368904 95672976 94956728 94222680 93473280 92710224 
3351.488 91935128 91149800 90355288 89552488 88741744 87923496 87099064 
3354.863 86270528 85441632 84616248 83798944 82992848 82200648 81423592 
3358.238 80662896 79919664 79195112 78490816 77807800 77146040 76504448 
3361.614 75880968 75273280 74679192 74097656 73528720 72973024 72431784 
3364.989 71906160 71396976 70905016 70430904 69975496 69538648 69120176 
3368.364 68718072 68329872 67952512 67582800 67218624 66859080 66504204 
3371.739 66154668 65810576 65471768 65136724 64803712 64470612 64135456 
3375.115 63797036 63453772 63104340 62747308 62381308 62005112 61618240 
3378.490 61221140 60814500 60399064 59975728 59543836 59102696 58650924 
3381.865 58187464 57711668 57223768 56724932 56217056 55702540 55183856 
3385.240 54663764 54144440 53627872 53115140 52607088 52103552 51604448 
3388.615 51109824 50619896 50135540 49657636 49186856 48723188 48266232 
3391.991 47815272 47369508 46928700 46493468 46064460 45642052 45225540 
3395.366 44813020 44401740 43989012 43572580 43152476 42730372 42309188 
3398.741 41892720 41484048 41084460 40694088 40311556 39934736 39561656 
3402.116 39191028 38821884 38454064 38087500 37722432 37359332 36998736 
3405.492 36640856 36286800 35937176 35592288 35252096 34916620 34584780 
3408.867 34256024 33929844 33605984 33284516 32966248 32652002 32342836 
3412.242 32039958 31744062 31455812 31175868 30903828 30639494 30382572 
3415.617 30132582 29889342 29652832 29422766 29198702 28979572 28764056 
3418.993 28550594 28337484 28122994 27906524 27687620 27466746 27244394 
3422.368 27021628 26799786 26579608 26362286 26148840 25939756 25735552 
3425.743 25536574 25342536 25153322 24968544 24787494 24609146 24432522 
3429.118 24255722 24077770 23897578 23715400 23532736 23351930 23175850 
3432.494 23006934 22847058 22696144 22552786 22414778 22279604 22144856 
3435.869 22009138 21871720 21732292 21591270 21449042 21306860 21165698 
3439.244 21026844 20891126 20759138 20630142 20502260 20374312 20244978 
3442.619 20114470 19984764 19858736 19738814 19625892 19517784 19410050 
3445.995 19296522 19170832 19029430 18871910 18702410 18526580 18351928 
3449.370 18184392 18027802 17883488 17750822 17627686 17511622 17399898 
3452.745 17290238 17180056 17067798 16952088 16832898 16711019 16588453 
3456.120 16467400 16350096 16237434 16129375 16025055 15922615 15819961 
3459.496 15715681 15607716 15494765 15375802 15251002 15121059 14988719 
3462.871 14857516 14731564 14614145 14506728 14408655 14316972 14227569 
3466.246 14136130 14039885 13937503 13829569 13717867 13604620 13491744 
3469.621 13380982 13273597 13170678 13072768 12980412 12892614 12807735 
3472.997 12723316 12636390 12545183 12448915 12348885 12247718 12148653 
3476.372 12054687 11968167 11890279 11821087 11759805 11705407 11655577 
3479.747 11607453 11557668 11502172 11438043 11364025 11280669 11191072 
3483.122 11100271 11012240 10930276 10855462 10786401 10720680 10655410 
3486.498 10589029 10520824 10451850 10383702 10317566 10254188 10193636 
3489.873 10135397 10078930 10024538 9972561 9924319 9881302 9844865 9816056 
3493.730 9795247 9781793 9773829 9768882 9763731 9755767 9743772 9728489 
3497.588 9713716 9704839 9707549 9726659 9764476 9819005 9885302 9956016 
3501.445 10022742 10078489 10118711 10142248 10151100 10150592 10147301 
3504.820 10149133 10163616 10196417 10251000 10327508 10422492 10528903 
3508.196 10639076 10744352 10838612 10920015 10990321 11054927 11120462 
3511.571 11192942 11276213 11371031 11475804 11587375 11702479 11818330 
3514.946 11933530 12048113 12162488 12277438 12393272 12510193 12627861 
3518.321 12745324 12862477 12978910 13094692 13209308 13321256 13426877 
3521.697 13520524 13595013 13642332 13655939 13633134 13574637 13485660 
3525.072 13372713 13242373 13098550 12941972 12770813 12582529 12375236 
3528.447 12150187 11911597 11665140 11416680 11170945 10930582 10697518 
3531.822 10472793 10258090 10055158 9864862 9686136 9514729 9343933 9166199 
3535.680 8974669 8766756 8544616 8314584 8085957 7868045 7667474 7488132 
3539.537 7330464 7193234 7074839 6974085 6890692 6824614 6775105 6739600 
3543.395 6712982 6687443 6653022 6598654 6513886 6391103 6227648 6027161 
3547.252 5799500 5560279 5327193 5115521 4936626 4794421 4685554 4600221 
3551.109 4526121 4450326 4363065 4259927 4141660 4013091 3880649 3750753 
3554.967 3629116 3519405 3423915 3343904 3279399 3228824 3189469 3157661 
3558.824 3129092 3099424 3066688 3030417 2992782 2958653 2935134 2930498 
3562.682 2953549 3012233 3110637 3247484 3412627 3587387 3743334 3845748 
3566.539 3864234 3777859 3584748 3302169 2963390 2606409 2264008 1960286 
3570.396 1707202 1506098 1352049 1235933 1148053 1078924 1020600 967032 
3574.254 913504 858223 800460 742173 685918 635511 593438 560525 535610 
3578.594 515175 495570 473047 445715 413908 381142 352954 336606 340685 
3582.933 373846 442962 552198 700853 881597 1077794 1265508 1415703 1497919 
3587.273 1491369 1389808 1205962 967098 709116 466910 265319 119265 32605 
3591.612 -662 7355 40789 82843 117310 131429 117442 72834 994 -90810 -191770 
3596.916 -290653 -378093 -447277 -496196 -527240 -547128 -563740 -585448 
3600.774 -617775 -661646 -713187 -764623 -805999 -827859 -821510 -782980 
3604.631 -711434 -611091 -490007 -360448 -237771 -137418 -73451 -55230 
3608.489 -83191 -148779 -237241 -331280 -414739 -480078 -525883 -558314 
3612.346 -586738 -620422 -664226 -716396 -768327 -807983 -824321 -810397 
3616.203 -765351 -696614 -618437 -549511 -509236 -514267 -572311 -681396 
3620.061 -829050 -997182 -1166506 -1319974 -1446011 -1537742 -1591853 
3623.436 -1606709 -1581091 -1512879 -1399973 -1240223 -1034933 -789694 
3626.811 -520720 -257077 -37340 91592 95105 -33596 -266647 -553979 -844626 
3631.151 -1100245 -1304778 -1457866 -1571385 -1661505 -1743421 -1827468 
3634.526 -1916611 -2006989 -2092039 -2166226 -2227215 -2276428 -2317693 
3637.901 -2354340 -2387426 -2414644 -2432305 -2436687 -2427165 -2406736 
3641.277 -2380506 -2353286 -2326592 -2295908 -2251674 -2180535 -2069814 
3644.652 -1912058 -1707944 -1465561 -1202854 -943394 -711235 -528365 -411396 
3648.509 -368559 -402226 -509335 -682290 -907586 -1165779 -1432702 -1682233 
3652.367 -1892232 -2047290 -2140312 -2174699 -2162699 -2125705 -2089401 
3655.742 -2078223 -2108427 -2182018 -2286448 -2400936 -2505610 -2586413 
3659.117 -2638286 -2664698 -2673293 -2674347 -2674709 -2678265 -2684028 
3662.492 -2688770 -2688045 -2677870 -2655279 -2616978 -2558382 -2473786 
3665.868 -2356417 -2200744 -2005043 -1773287 -1514002 -1239827 -962106 
3669.243 -686160 -406331 -104194 244830 668363 1189648 1824209 2581142 
3673.100 3457245 4432853 5448904 6398870 7139405 7516855 7439592 6914021 
3676.958 6032100 4920239 3698352 2467030 1298873 251361 -632664 -1332856 
3680.815 -1850267 -2207996 -2440344 -2585853 -2676586 -2733157 -2765884 
3684.190 -2777210 -2765983 -2731313 -2673787 -2595932 -2502415 -2399190 
3687.566 -2294358 -2198205 -2122078 -2076508 -2068264 -2098634 -2163391 
3690.941 -2254080 -2360009 -2470458 -2575412 -2667991 -2744351 -2803810 
3694.316 -2847889 -2879884 -2903384 -2921026 -2934486 -2943241 -2944557 
3697.691 -2934651 -2909803 -2868034 -2810757 -2743759 -2676619 -2621885 
3701.067 -2590794 -2590168 -2619975 -2672766 -2736581 -2797885 -2846342 
3704.442 -2875144 -2881661 -2866652 -2831595 -2779021 -2710635 -2628406 
3707.817 -2534797 -2433392 -2330217 -2232654 -2149379 -2089797 -2061668 
3711.192 -2070011 -2115978 -2195271 -2299961 -2418565 -2539079 -2651163 
3714.568 -2746129 -2819118 -2866849 -2888771 -2885677 -2860134 -2815629 
3717.943 -2755875 -2684753 -2606175 -2523070 -2438697 -2356054 -2277351 
3721.318 -2204271 -2136652 -2072814 -2009891 -1945738 -1880586 -1818823 
3724.693 -1769426 -1744114 -1754741 -1808264 -1902623 -2025260 -2156105 
3728.069 -2272209 -2353385 -2387887 -2371806 -2308432 -2204963 -2069187 
3731.444 -1906450 -1718571 -1506374 -1273526 -1031727 -804610 -625583 
3734.819 -531310 -552820 -700517 -957709 -1282611 -1623742 -1935941 -2188579 
3738.677 -2370785 -2483900 -2535785 -2534731 -2487590 -2399058 -2273396 
3742.052 -2119078 -1952170 -1796121 -1683355 -1644043 -1690484 -1808264 
3745.427 -1961340 -2111659 -2231171 -2309355 -2347420 -2352923 -2335556 
3748.802 -2304774 -2270297 -2241225 -2227446 -2238489 -2281372 -2357801 
3752.177 -2461793 -2580253 -2695982 -2791959 -2858159 -2890680 -2892622 
3755.553 -2871589 -2837388 -2799531 -2765884 -2742738 -2734408 -2744812 
3758.928 -2776782 -2831233 -2906051 -2993985 -3083383 -3160756 -3213843 
3762.303 -3234958 -3223250 -3183978 -3126677 -3063610 -3006490 -2962888 
3765.678 -2935112 -2919775 -2911382 -2904405 -2896835 -2890515 -2891338 
3769.054 -2906610 -2941859 -2999119 -3074993 -3162335 -3251961 -3335978 
3772.429 -3408671 -3466922 -3510210 -3538607 -3552114 -3550504 -3532987 
3775.804 -3498378 -3447856 -3384047 -3313619 -3245219 -3189109 -3154868 
3779.179 -3146973 -3164703 -3200457 -3243936 -3283005 -3309936 -3321379 
3782.555 -3319571 -3309936 -3299808 -3295632 -3301486 -3317565 -3341305 
3785.930 -3368595 -3396113 -3421755 -3445325 -3468204 -3491870 -3516685 
3789.305 -3541466 -3564076 -3581066 -3589183 -3585996 -3570583 -3543011 
3792.680 -3504557 -3456699 -3401011 -3339628 -3274520 -3209206 -3147532 
3796.056 -3092957 -3047850 -3011656 -2980757 -2949922 -2913917 -2869845 
3799.431 -2818460 -2765950 -2722982 -2702238 -2713005 -2756632 -2824320 
3802.806 -2902035 -2974406 -3030214 -3066044 -3083942 -3090851 -3096082 
3806.181 -3109965 -3139013 -3184603 -3241700 -3302110 -3357350 -3401636 
3809.557 -3432341 -3449073 -3451965 -3440263 -3412978 -3368233 -3304642 
3812.932 -3223085 -3127433 -3024587 -2926193 -2845091 -2791037 -2767399 
3816.307 -2766707 -2773819 -2769374 -2739972 -2679352 -2591683 -2489599 
3819.682 -2393555 -2327778 -2313046 -2358592 -2456291 -2584140 -2714290 
3823.058 -2823925 -2901838 -2947486 -2967956 -2974340 -2978651 -2989444 
3826.433 -3010372 -3038571 -3066176 -3084140 -3084765 -3064399 -3024719 
3829.808 -2971312 -2911810 -2853584 -2801736 -2755809 -2712577 -2665653 
3833.183 -2609930 -2543395 -2468745 -2391578 -2320264 -2262024 -2220292 
3836.559 -2194447 -2179183 -2168237 -2155973 -2141499 -2128871 -2125870 
3839.934 -2140543 -2178062 -2239774 -2322571 -2420871 -2527286 -2635981 
3843.309 -2742903 -2846243 -2944886 -3037387 -3120492 -3189537 -3238510 
3846.684 -3261366 -3253967 -3213514 -3138552 -3029194 -2886039 -2710701 
3850.060 -2506170 -2279955 -2045180 -1822881 -1643911 -1542562 -1545270 
3853.435 -1656091 -1848617 -2076310 -2293370 -2473292 -2609468 -2709449 
3856.810 -2784354 -2843808 -2891174 -2924547 -2937975 -2925864 -2885907 
3860.185 -2820995 -2739413 -2651064 -2566452 -2492960 -2434414 -2392962 
3863.561 -2370225 -2367951 -2387096 -2424694 -2471545 -2512396 -2531239 
3866.936 -2514604 -2457082 -2364227 -2252861 -2149313 -2079311 -2060910 
3870.311 -2094083 -2162138 -2239939 -2306718 -2354802 -2388711 -2422585 
3873.686 -2471941 -2547809 -2649253 -2764403 -2872116 -2951106 -2985759 
3877.062 -2967561 -2897361 -2783992 -2643588 -2496287 -2365842 -2273297 
3880.437 -2230808 -2237961 -2280779 -2337039 -2382055 -2397509 -2376387 
3883.812 -2325471 -2264496 -2220095 -2219567 -2276593 -2385812 -2522708 
3887.187 -2654950 -2754361 -2803481 -2799432 -2751398 -2678595 -2602881 
3890.563 -2546853 -2526759 -2549258 -2610852 -2699933 -2801638 -2900817 
3893.938 -2982830 -3036597 -3052686 -3024423 -2949757 -2830443 -2673293 
3897.313 -2488875 -2291326 -2095568 -1915060 -1761176 -1639257 -1550486 
3900.688 -1491615 -1457668 -1443897 -1448917 -1474279 -1525426 -1608359 
3904.063 -1727085 -1880487 -2061405 -2258365 -2457477 -2646124 -2815234 
3907.439 -2959268 -3076540 -3167565 -3234530 -3279979 -3306517 -3317335 
3910.814 -3314902 -3301486 -3278368 -3244758 -3197793 -3133486 -3048837 
3914.189 -2942912 -2820073 -2689066 -2563455 -2458004 -2383966 -2347651 
3917.564 -2347288 -2376189 -2423870 -2479914 -2537202 -2589509 -2632161 
3920.940 -2661503 -2673589 -2666641 -2642271 -2606801 -2570504 -2546326 
3924.315 -2545964 -2575148 -2632161 -2707078 -2785342 -2851543 -2892951 
3927.690 -2902496 -2878139 -2823102 -2743298 -2648067 -2548336 -2456258 
3931.065 -2385350 -2348013 -2352759 -2402650 -2492630 -2611445 -2742080 
3934.441 -2868396 -2977005 -3060254 -3116018 -3147796 -3161249 -3162499 
3937.816 -3154999 -3139671 -3114933 -3077527 -3024883 -2957951 -2880838 
3941.191 -2802889 -2735231 -2690021 -2675598 -2693874 -2738622 -2796897 
3944.566 -2852761 -2890943 -2900817 -2880180 -2834656 -2776024 -2718932 
3947.942 -2678068 -2663051 -2677969 -2720447 -2784156 -2860595 -2940805 
3951.317 -3017052 -3083284 -3134835 -3168913 -3185327 -3186018 -3174670 
3954.692 -3157039 -3138651 -3123683 -3113880 -3108879 -3105688 -3100918 
3958.067 -3091805 -3076638 -3055516 -3030115 -3003067 -2977992 -2958149 
3961.443 -2947091 -2947387 -2960716 -2986154 -3020573 -3059333 -3096279 
3964.818 -3125789 -3144210 -3149999 -3143881 -3128519 -3106873 -3081277 
3968.193 -3053312 -3024258 -2994973 -2967199 -2942977 -2923988 -2911744 
3971.568 -2905425 -2903154 -2902035 -2899994 -2895913 -2890614 -2887224 
3974.944 -2888409 -2896736 -2912798 -2934914 -2959827 -2983291 -3001685 
3978.319 -3012445 -3014815 -3009451 -2998592 -2985133 -2971872 -2961538 
3981.694 -2955516 -2954397 -2957063 -2962460 -2968054 -2972431 -2974504 
3985.069 -2974142 -2971510 -2967758 -2963085 -2957885 -2951929 -2945380 
3988.445 -2938502 -2932380 -2928201 -2927279 -2930011 -2936231 -2944656 
3991.820 -2953936 -2962559 -2969930 -2976051 -2981547 -2987207 -2993887 
3995.195 -3002146 -3012281 -3024587 -3039493 -3056602 -3076079 -3096970 
3998.570 -3117400 -3135986 -3150559 -3159934 -3163716 
##END=
