
##TITLE=Z351_3_d
##JCAMP-DX=5.01  $$ Nicolet v. 1
##DATATYPE=INFRARED SPECTRUM
##ORIGIN=UniL
##OWNER=Nicolet
##LONGDATE=2011/09/13
##TIME=14:57:21
##SPECTROMETER/DATA SYSTEM=Nicolet iS5
##DATA PROCESSING=
Ratio against background
%Transmittance->Absorbance
Truncated
ElementMultiply or ElementDivide
##COMMENTS=
Number of sample scans: 32
Collection length: 51.20 sec
Sample gain: 2.0
Background collected on: Mar Sep 13 14:49:03 2011 (GMT+02:00);
Number of background scans: 32
Background gain: 2.0
Sample spacing:  1.000
Number of scan points: 12415
Resolution points: 8192
Number of FFT points: 65536
Apodization: N-B fort;
Phase correction: Mertz;
Laser frequency: 15798.0 cm-1
Number of rejected sample scans: 0
Number of rejected background scans: 0
Bench serial number: ASB1000141;
##RESOLUTION=4.000
##XUNITS=1/CM
##YUNITS=ABSORBANCE
##FIRSTX=649.893372
##LASTX=4000.122314
##FIRSTY=0.118423
##MAXX=4000.122314
##MINX=649.893372
##MAXY=0.336054
##MINY=0.003371
##XFACTOR=1.000000
##YFACTOR=1.000000E-009
##NPOINTS=6950
##DELTAX=0.482117
##ZPD=6100
##XYDATA=(X++(Y..Y))
649.893 118422944 118028520 117706576 117490424 117388208 117382480 
652.786 117443656 117549056 117696448 117904792 118201744 118608600 
655.679 119129688 119751104 120455808 121238712 122114632 123114944 
658.571 124271624 125595688 127070992 128661152 130334080 132081256 
661.464 133933024 135940880 138157488 140599312 143234416 145984240 
664.357 148757840 151479072 154087248 156539408 158776608 160688192 
667.250 162119168 162913328 162999696 162437408 161371968 159943424 
670.142 158228544 156241872 153972592 151422672 148640112 145721584 
673.035 142782704 139937536 137256416 134758160 132425768 130229608 
675.928 128151432 126191688 124365280 122686960 121158688 119764936 
678.820 118479096 117270136 116116520 115006064 113934288 112898272 
681.713 111892464 110906776 109932320 108966264 108015480 107093864 
684.606 106218200 105400608 104643312 103940792 103282360 102658792 
687.498 102064664 101499008 100961352 100447904 99949032 99450480 98936696 
690.873 98396544 97825520 97225104 96600280 95955560 95294504 94621272 
694.248 93944312 93280400 92653336 92091856 91621592 91256816 90998400 
697.623 90833976 90744376 90710160 90719352 90770312 90870048 91028224 
700.998 91251584 91538992 91881816 92264952 92672000 93090312 93512192 
704.373 93934192 94354304 94770320 95178280 95574784 95958656 96333536 
707.747 96707160 97089840 97492240 97923816 98396088 98927416 99545520 
711.122 100292640 101216648 102359616 103742832 105348744 107112264 
714.015 108917456 110624984 112087960 113181584 113836736 114042800 
716.908 113854096 113370520 112733344 112103312 111634968 111479424 
719.800 111758384 112544720 113850864 115605256 117653664 119749304 
722.693 121601824 122925504 123476768 123131136 121903952 119957632 
725.586 117550840 114991176 112571560 110492696 108862152 107689016 
728.478 106915688 106451120 106204448 106109008 106119072 106207120 
731.371 106353000 106535344 106731832 106924504 107104040 107272152 
734.264 107437864 107611032 107794712 107983440 108165320 108330360 
737.156 108476104 108610832 108749904 108909752 109100888 109324192 
740.049 109571920 109833360 110100200 110369864 110643912 110924784 
742.942 111210704 111496040 111772608 112034384 112282040 112522576 
745.835 112765904 113018264 113276752 113528344 113755056 113941048 
748.727 114079032 114174272 114241160 114296816 114352472 114410464 
751.620 114465192 114509352 114538984 114558744 114579144 114613136 
754.513 114669136 114747712 114841672 114941176 115038456 115131656 
757.405 115225344 115327440 115445736 115585024 115746800 115931272 
760.298 116139160 116372392 116632672 116919552 117228896 117553792 
763.191 117888664 118234624 118604424 119024208 119535768 120192184 
766.083 121049176 122160360 123560560 125249160 127171784 129210368 
768.976 131194176 132906064 134146360 134783104 134796976 134306192 
771.869 133545128 132813888 132363928 132337184 132703584 133273032 
774.762 133731784 133736952 133040088 131533232 129289568 126513512 
777.654 123486984 120474872 117656304 115119816 112857064 110802328 
780.547 108866200 106974096 105082816 103181424 101285168 99423904 97634512 
783.922 95950688 94402392 93014696 91804160 90781248 89949952 89309808 
787.297 88858696 88596496 88526288 88655208 88992432 89546256 90323832 
790.671 91331112 92575088 94067904 95827680 97876736 100238960 102929120 
794.046 105946208 109264528 112832960 116573376 120380872 124141072 
796.939 127731936 131037920 133977640 136514672 138680880 140572464 
799.832 142351088 144208112 146310096 148766480 151569008 154573344 
802.724 157476560 159866064 161300816 161364608 159805360 156592576 
805.617 151945648 146279232 140114496 133979040 128251624 123129288 
808.510 118604984 114517208 110620368 106675912 102540376 98181824 93683136 
811.885 89189192 84868888 80860832 77245424 74053056 71269832 68860040 
815.259 66779664 64988656 63454004 62144788 61033484 60094700 59305280 
818.634 58648232 58112384 57690436 57377984 57170280 57061860 57048296 
822.009 57127724 57303080 57580976 57970704 58480260 59113512 59869644 
825.384 60740948 61714780 62771240 63882508 65013596 66119784 67154960 
828.759 68080312 68873512 69541288 70124528 70701192 71370896 72249360 
832.133 73452584 75068464 77145760 79666384 82535496 85559400 88452520 
835.508 90885976 92497472 92981032 92160096 90017288 86716696 82554288 
838.883 77922048 73203328 68714848 64692484 61255212 58431016 56181272 
842.258 54432488 53098288 52093580 51348468 50802436 50405428 50120816 
845.633 49921428 49791464 49724280 49717188 49767532 49869504 50013060 
849.008 50187460 50384892 50603108 50845572 51119140 51430108 51780832 
852.382 52170280 52595416 53054856 53551328 54092308 54686948 55344388 
855.757 56071020 56871116 57749208 58714224 59780584 60970188 62309976 
859.132 63828312 65557032 67530152 69783280 72354904 75275760 78555568 
862.507 82161768 86003992 89926112 93696168 97050192 99720568 101470832 
865.882 102158264 101747256 100325024 98076032 95265664 92199432 89156040 
869.256 86387064 84080984 82348936 81244944 80767448 80875520 81495544 
872.631 82531008 83871168 85380288 86911944 88318248 89449592 90188048 
876.006 90459120 90243112 89579400 88557008 87301696 85941304 84594912 
879.381 83352832 82260704 81324128 80511920 79773832 79051112 78296224 
882.756 77485808 76623376 75738504 74874488 74080912 73397888 72848680 
886.131 72441416 72171808 72030904 72012488 72117584 72353968 72732704 
889.505 73262392 73945520 74776944 75746824 76843512 78057616 79384536 
892.880 80823200 82373848 84035392 85802688 87664904 89604168 91589352 
896.255 93573224 95490552 97248944 98741752 99860328 100504232 100610024 
899.630 100160544 99191472 97781896 96045088 94114352 92115608 90166880 
903.005 88367512 86787584 85477296 84464776 83759408 83358736 83251880 
906.379 83425936 83867872 84568384 85522720 86729320 88187968 89899496 
909.754 91863928 94080528 96548672 99263928 102217208 105389120 108745480 
913.129 112241152 115821640 119432104 123033608 126609608 130173888 
916.022 133767352 137454352 141308320 145391264 149741808 154349968 
918.914 159144944 163969856 168587856 172705312 175978816 178102112 
921.807 178867632 178222256 176312064 173479008 170247408 167202624 
924.700 164950512 164034768 164817808 167465120 171886608 177757072 
927.593 184501632 191362800 197552576 202275760 204904800 205078768 
930.485 202699696 197930880 191107536 182683264 173134272 162914000 
933.378 152465648 142170000 132353232 123297560 115202320 108202344 
936.271 102372112 97725920 94241656 91873136 90563728 90245152 90828544 
939.646 92199104 94185928 96559184 99054680 101365256 103198936 104328688 
943.020 104603896 103989672 102558408 100478760 97970104 95264008 92583128 
946.395 90094424 87908608 86082760 84624792 83511392 82701128 82149920 
949.770 81813968 81652992 81633512 81722896 81890736 82112288 82367112 
953.145 82642936 82936416 83249752 83588424 83957224 84357968 84789456 
956.520 85248856 85733256 86241304 86773016 87328224 87905528 88501712 
959.894 89112584 89734840 90367936 91014248 91677744 92362160 93068720 
963.269 93795632 94539616 95297640 96069552 96858288 97668864 98505448 
966.644 99369464 100258824 101169168 102096144 103038536 103998760 104981624 
970.019 105992128 107032600 108102376 109198872 110319624 111465504 
972.912 112640096 113849264 115098136 116388984 117720656 119090592 
975.804 120497616 121944224 123436656 124983136 126590672 128262984 
978.697 130000784 131804376 133678184 135632816 137686528 139860480 
981.590 142173904 144639872 147261968 150033936 152940928 155960800 
984.482 159059520 162185584 165269680 168215568 170907696 173231664 
987.375 175079408 176375056 177087280 177232320 176871888 176100480 
990.268 175045200 173844208 172634800 171553248 170709920 170185776 
993.160 170030816 170259424 170860064 171803920 173058752 174594768 
996.053 176388480 178423840 180685808 183157344 185820176 188653648 
998.946 191638512 194759008 197996400 201324032 204702208 208069520 
1001.839 211350640 214468192 217349824 219948864 222248512 224263664 
1004.731 226034880 227622544 229104416 230563376 232088992 233771776 
1007.624 235686384 237889888 240411168 243249808 246380912 249764688 
1010.517 253360896 257130480 261038752 265052704 269129600 273218496 
1013.409 277265504 281218112 285037664 288701472 292192736 295487776 
1016.302 298539712 301266112 303562016 305312896 306419584 306830080 
1019.195 306550496 305654720 304268256 302569152 300770144 299084064 
1022.087 297731072 296903008 296736064 297313120 298646016 300686720 
1024.980 303336704 306473536 309971968 313702240 317543680 321373344 
1027.873 325048736 328421568 331337248 333648512 335245280 336054400 
1030.766 336041632 335202912 333551040 331110624 327917280 324025376 
1033.659 319510336 314459360 308967872 303120608 296981728 290601536 
1036.552 284021600 277287200 270461600 263622704 256858112 250261904 
1039.446 243917120 237894752 232254352 227034272 222251184 217887680 
1042.339 213885296 210134224 206475184 202731984 198721088 194295552 
1045.232 189382064 183986608 178200592 172172592 166096288 160168624 
1048.125 154559536 149413152 144823344 140836944 137462496 134675568 
1051.018 132430208 130666616 129324288 128345656 127678080 127278104 
1053.911 127103896 127109392 127243992 127444160 127635584 127744512 
1056.804 127696592 127429144 126900496 126088544 124996968 123653672 
1059.697 122113920 120455336 118769728 117165232 115746360 114606536 
1062.590 113826272 113459024 113534064 114055816 115005896 116343288 
1065.483 118003432 119905488 121945536 124002312 125956568 127689200 
1068.376 129100952 130126312 130729560 130907328 130679144 130081120 
1071.269 129156176 127946752 126496704 124845312 123028680 121083720 
1074.162 119047616 116962016 114879528 112858568 110965848 109273648 
1077.055 107845760 106737720 105988752 105615768 105614624 105957664 
1079.948 106599208 107471048 108486352 109549792 110551848 111387944 
1082.842 111974824 112258440 112232312 111939152 111472352 110956992 
1085.735 110533296 110348800 110527144 111164128 112320184 114010664 
1088.628 116206128 118828536 121765168 124864440 127951768 130862680 
1091.521 133443208 135575776 137191840 138264256 138804096 138847200 
1094.414 138446880 137662512 136553424 135183648 133617144 131919560 
1097.307 130164400 128422824 126761656 125235544 123870528 122656856 
1100.200 121540064 120429712 119203808 117729824 115901376 113649408 
1103.093 110966784 107908072 104586400 101152608 97762480 94573728 91716128 
1106.468 89280344 87326648 85878592 84932944 84466984 84445816 84826232 
1109.844 85557344 86584952 87849256 89280304 90805104 92340152 93794152 
1113.219 95080608 96116688 96835424 97197256 97188056 96822176 96134088 
1116.594 95175184 94003680 92676144 91248472 89768200 88272456 86789808 
1119.969 85338304 83927200 82561296 81243504 79978328 78773832 77640568 
1123.344 76589424 75628576 74759744 73978520 73275176 72640616 72069984 
1126.720 71567712 71147640 70832496 70648088 70616312 70751688 71055464 
1130.095 71515560 72104872 72785128 73509880 74223744 74873192 75410744 
1133.470 75800600 76028888 76105512 76065288 75958512 75846008 75787776 
1136.845 75828768 75996248 76293520 76701400 77178808 77668464 78107504 
1140.221 78426912 78563992 78469976 78109488 77466120 76540808 75348512 
1143.596 73914960 72272560 70461416 68523456 66503548 64449088 62402924 
1146.971 60404852 58488748 56678080 54988748 53428664 51999824 50701252 
1150.346 49530680 48485648 47563476 46760804 46072892 45494192 45018900 
1153.722 44642784 44363572 44180416 44093968 44104344 44210644 44411096 
1157.097 44704408 45090796 45572532 46153992 46839524 47631984 48531440 
1160.472 49534620 50635792 51826636 53097092 54432752 55813340 57213104 
1163.847 58597112 59925252 61157780 62253872 63179292 63907728 64419872 
1167.223 64705676 64764404 64604388 64242780 63704132 63019632 62221104 
1170.598 61341028 60410524 59455676 58501792 57572348 56688616 55872420 
1173.973 55143448 54517380 54006600 53618836 53358188 53227300 53229324 
1177.348 53368528 53651116 54083528 54671688 55420760 56335228 57420300 
1180.724 58683504 60134236 61783496 63642168 65718712 68018120 70541120 
1184.099 73283144 76230728 79356488 82617600 85943776 89239328 92392608 
1187.474 95271480 97746168 99704688 101054880 101742808 101755208 101120360 
1190.849 99902984 98196064 96115936 93779512 91300888 88785520 86315264 
1194.225 83955824 81754008 79736728 77917008 76295184 74862920 73604280 
1197.600 72498616 71522832 70649568 69849896 69094888 68353176 67594952 
1200.975 66794036 65928764 64986236 63964852 62875344 61739720 60587856 
1204.350 59455260 58374160 57371744 56467432 55670372 54982808 54401504 
1207.726 53920948 53534424 53234716 53014088 52863432 52773220 52735356 
1211.101 52744296 52799636 52905240 53069572 53302100 53611412 54004048 
1214.476 54482972 55048584 55698584 56428868 57232156 58097460 59011320 
1217.851 59957468 60919368 61883820 62840960 63785636 64716712 65635920 
1221.227 66547492 67457544 68376328 69318008 70299992 71342184 72463144 
1224.602 73675800 74986080 76390424 77876648 79423680 81004912 82588104 
1227.977 84134832 85606648 86964560 88174208 89212712 90069512 90750136 
1231.352 91273864 91675480 92002736 92311176 92670440 93157768 93851848 
1234.728 94836928 96190440 97977160 100251608 103049704 106391568 110282544 
1238.103 114714104 119662712 125083760 130914856 137068016 143429648 
1240.996 149878432 156280720 162500416 168414224 173899088 178838624 
1243.889 183131072 186683360 189422656 191300720 192290592 192386656 
1246.782 191599824 189958032 187506320 184306240 180439152 175991536 
1249.675 171046256 165673456 159919776 153814496 147380624 140648256 
1252.568 133669752 126528728 119330432 112204504 105289840 98709400 92575792 
1255.943 86971408 81940600 77495624 73614560 70250248 67335336 64793056 
1259.319 62546284 60516852 58637956 56856388 55131716 53441556 51777732 
1262.694 50142944 48546928 47002280 45521676 44115420 42792164 41559076 
1266.069 40420860 39380332 38437012 37586308 36819996 36128192 35502208 
1269.444 34936228 34428976 33982760 33601616 33289022 33046328 32873958 
1272.820 32772258 32742992 32790228 32918922 33132792 33430852 33806224 
1276.195 34243940 34720752 35208756 35673896 36078936 36389368 36573448 
1279.570 36609748 36491452 36227876 35842960 35368504 34841044 34290836 
1282.945 33738068 33194088 32662400 32144592 31645012 31172452 30740096 
1286.321 30363028 30053144 29818854 29664078 29590578 29600084 29695618 
1289.696 29880998 30158722 30528006 30983386 31514414 32106738 32743816 
1293.071 33404622 34064784 34696668 35268480 35751064 36122792 36374308 
1296.446 36512932 36561552 36556256 36536180 36540468 36603256 36749528 
1299.822 36996644 37353736 37819876 38381664 39009792 39662236 40281964 
1303.197 40807312 41183980 41367368 41333840 41081148 40626740 40002632 
1306.572 39249308 38414280 37543716 36680660 35864404 35123356 34475752 
1309.947 33928556 33479556 33120882 32843474 32641142 32510820 32451794 
1313.323 32463114 32541246 32680224 32873244 33114980 33403870 33741260 
1316.698 34129588 34569172 35056360 35582796 36138852 36716068 37309684 
1320.073 37918536 38542768 39179684 39821164 40452024 41050920 41595756 
1323.448 42065420 42444788 42727960 42919980 43038644 43112336 43181540 
1326.823 43292224 43487420 43803192 44256940 44844724 45540776 46304660 
1330.199 47092524 47864284 48594728 49274404 49907636 50507064 51088208 
1333.574 51666576 52253944 52860288 53493904 54160088 54860604 55592148 
1336.949 56346284 57110340 57870448 58614024 59330920 60013160 60654488 
1340.324 61248648 61790220 62276360 62707880 63090660 63433944 63748524 
1343.700 64042708 64320312 64580128 64818024 65029340 65211064 65362060 
1347.075 65479012 65551832 65561152 65474928 65253848 64861344 64270168 
1350.450 63472980 62486476 61352628 60132216 58895420 57720636 56679852 
1353.825 55833268 55228176 54888200 54812336 54971376 55314804 55775136 
1357.201 56277704 56758428 57165480 57465304 57644576 57706292 57669208 
1360.576 57564144 57438108 57351324 57368416 57554456 57955632 58585584 
1363.951 59421448 60407252 61466136 62505112 63433252 64164804 64620652 
1367.326 64744748 64507356 63913868 63003852 61846112 60527060 59128132 
1370.702 57723472 56370576 55107036 53962736 52964152 52138484 51517324 
1374.077 51127376 50981440 51070652 51365508 51826224 52412196 53096788 
1377.452 53871204 54743848 55736372 56879540 58212504 59778340 61625228 
1380.827 63798836 66322932 69177840 72272328 75445512 78456840 81019960 
1384.203 82861576 83728912 83448712 81961768 79356848 75883176 71905336 
1387.578 67857328 64109644 60901908 58335124 56385932 54962384 53943792 
1390.953 53218388 52690200 52281524 51935440 51607988 51268368 50901892 
1394.328 50508516 50101476 49699096 49317868 48965676 48641720 48341112 
1397.704 48060660 47803988 47584324 47421276 47334512 47339168 47440608 
1401.079 47635572 47915376 48270304 48692124 49174760 49716144 50315536 
1404.454 50973168 51686580 52450444 53256368 54094860 54958628 55844840 
1407.829 56755780 57697172 58675084 59693024 60750204 61842440 62964284 
1411.205 64109608 65271096 66436468 67581408 68670448 69659248 70502568 
1414.580 71172432 71666032 72012752 72265592 72496344 72783280 73195056 
1417.955 73787112 74587544 75588000 76743472 77982272 79227240 80408632 
1421.330 81478272 82414344 83219856 83927440 84594832 85299664 86113136 
1424.706 87080272 88206720 89460544 90788928 92136384 93464360 94751608 
1428.081 95993248 97195056 98369032 99532152 100706784 101927920 103239616 
1431.456 104684760 106298104 108094304 110068568 112202624 114482312 
1434.349 116912960 119521888 122355832 125458376 128843872 132469464 
1437.242 136246832 140077536 143879408 147594176 151165408 154524768 
1440.135 157560384 160118080 162035568 163145072 163313792 162467600 
1443.028 160590960 157734720 154006560 149577296 144655488 139456752 
1445.921 134208248 129109560 124330816 120018608 116272688 113135880 
1448.814 110582408 108532592 106876952 105512624 104379840 103471112 
1451.708 102826832 102502824 102542048 102941800 103652088 104575232 
1454.601 105587960 106569936 107408032 108036936 108463808 108787232 
1457.494 109156992 109710792 110546080 111702456 113186872 114992256 
1460.387 117100584 119478648 122066000 124781400 127504648 130074368 
1463.280 132317008 134055760 135167856 135632448 135547968 135098336 
1466.173 134475232 133843408 133303704 132899584 132639808 132506864 
1469.066 132461504 132430896 132303808 131929112 131123144 129729792 
1471.959 127684040 125070096 122105632 119066008 116184784 113590272 
1474.852 111328816 109406160 107824440 106603192 105768248 105326328 
1477.745 105250448 105475408 105917536 106489360 107125408 107795600 
1480.638 108503584 109281280 110173088 111227016 112485096 113987792 
1483.531 115784000 117931440 120493848 123523792 127038760 130990832 
1486.424 135238784 139560912 143637472 147079776 149493568 150495328 
1489.317 149804880 147328896 143201552 137776720 131517840 124899688 
1492.210 118280744 111864768 105748888 99944072 94438800 89256376 84465336 
1495.586 80185240 76559024 73697744 71642464 70353248 69741992 69700448 
1498.961 70130568 70959240 72127016 73581424 75272528 77142200 79126048 
1502.336 81159336 83157648 85018168 86610592 87742392 88167552 87607096 
1505.711 85824976 82774688 78702856 74099896 69465696 65121100 61165144 
1509.087 57557936 54221276 51101476 48181852 45485840 43051596 40905052 
1512.462 39053108 37478152 36148900 35031612 34096972 33321898 32683402 
1515.837 32158508 31726558 31372142 31092288 30894186 30786722 30771712 
1519.212 30838690 30963886 31120620 31290836 31478752 31709626 32019090 
1522.588 32428980 32936544 33519286 34148044 34802484 35477076 36185088 
1525.963 36951260 37802020 38751308 39795668 40918812 42101232 43328832 
1529.338 44596592 45910044 47281236 48723668 50251584 51875992 53601592 
1532.713 55423772 57323268 59266616 61211188 63118288 64958104 66712672 
1536.089 68363872 69891184 71273736 72483384 73494736 74288016 74853904 
1539.464 75188248 75288768 75161504 74823000 74307168 73656760 72907928 
1542.839 72076392 71152840 70114952 68945384 67655008 66288040 64912236 
1546.214 63588960 62345392 61169604 60018604 58843740 57615404 56346320 
1549.590 55088452 53917720 52894048 52038292 51329448 50723408 50177640 
1552.965 49670228 49208860 48821576 48536292 48358220 48260828 48187036 
1556.340 48066064 47816268 47355724 46621932 45600424 44364488 43067440 
1559.715 41875824 40886048 40106516 39490812 38976660 38506632 38032448 
1563.091 37520812 36957136 36350784 35732284 35143476 34622776 34185788 
1566.466 33822948 33503968 33192982 32860808 32497108 32114300 31743418 
1569.841 31419262 31163766 30980576 30857828 30779216 30729638 30697348 
1573.216 30672136 30640632 30586556 30494378 30358016 30190832 30026372 
1576.592 29907940 29864566 29900060 29994878 30120792 30251288 30370880 
1579.967 30477390 30578308 30685436 30808064 30948836 31103502 31264986 
1583.342 31426460 31584286 31736362 31878504 32001614 32092254 32135672 
1586.717 32122686 32055154 31948008 31826090 31718786 31654064 31651426 
1590.093 31722352 31871766 32100246 32402846 32766718 33168588 33570400 
1593.468 33923072 34178444 34294492 34249748 34047408 33715008 33295818 
1596.843 32836184 32380000 31960242 31599612 31315838 31122046 31028368 
1600.218 31040646 31157928 31373210 31675198 32053478 32499500 33006180 
1603.594 33564924 34159692 34763500 35341440 35850260 36246532 36495596 
1606.969 36572944 36469216 36188908 35747896 35167620 34471876 33688188 
1610.344 32847654 31984922 31139702 30345438 29625412 28987576 28424002 
1613.719 27916348 27442074 26981890 26524590 26070302 25632062 25231028 
1617.094 24890078 24625382 24443318 24339820 24304146 24319880 24368102 
1620.470 24429822 24488886 24537406 24579236 24630466 24713058 24845344 
1623.845 25034316 25272958 25546378 25840014 26145710 26462606 26793194 
1627.220 27138428 27493114 27846428 28186064 28503888 28799954 29081772 
1630.595 29358770 29636586 29913052 30176696 30410218 30595942 30718152 
1633.971 30769506 30751582 30677186 30565652 30437868 30310014 30189802 
1637.346 30076544 29963922 29842384 29700054 29524112 29305384 29040640 
1640.721 28736372 28407094 28070996 27743318 27429402 27123686 26810782 
1644.096 26471094 26086734 25649812 25167752 24665536 24179558 23746194 
1647.472 23391024 23122240 22932980 22807596 22727984 22673348 22618752 
1650.847 22534220 22382192 22126724 21755142 21305398 20866340 20527200 
1654.222 20327472 20245986 20235086 20246714 20248694 20226128 20175936 
1657.597 20103608 20017516 19924120 19824956 19717178 19595944 19457624 
1660.973 19302376 19134646 18961444 18791010 18629982 18482738 18351824 
1664.348 18238158 18141276 18058748 17984562 17909798 17822794 17711856 
1667.723 17569546 17395588 17199566 16997708 16808754 16645566 16512519 
1671.098 16405767 16316965 16236642 16155131 16063904 15954684 15821300 
1674.474 15662950 15487898 15313535 15159108 15038624 14954148 14896777 
1677.849 14851173 14801940 14739447 14662295 14577617 14496930 14429651 
1681.224 14376973 14329369 14268074 14172313 14028044 13840789 13639083 
1684.599 13463615 13344319 13285861 13271889 13279063 13288253 13287672 
1687.975 13273460 13246678 13210948 13169858 13126279 13083047 13043847 
1691.350 13012777 12993248 12985567 12984304 12978739 12955457 12902035 
1694.725 12814288 12702061 12589249 12502895 12457576 12449835 12460065 
1698.100 12464191 12438823 12369850 12259374 12129845 12015104 11941158 
1701.476 11914015 11920282 11940784 11957779 11960265 11943713 11908464 
1704.851 11859121 11802770 11747447 11699552 11662826 11637980 11623141 
1708.226 11614327 11606806 11596699 11581861 11562942 11543036 11525955 
1711.601 11514421 11508568 11505676 11501049 11490604 11472062 11446037 
1714.977 11414843 11381168 11345761 11307704 11266421 11224222 11188046 
1718.352 11167783 11170945 11199334 11248160 11308487 11370148 11425286 
1721.727 11470702 11507819 11541913 11579207 11624571 11678993 11740026 
1725.102 11803519 11865591 11924027 11977976 12026481 12067565 12097750 
1728.478 12113627 12113184 12098023 12072233 12040584 12005191 11962581 
1731.853 11902981 11812371 11679163 11501559 11296107 11093303 10926301 
1735.228 10812557 10749209 10719423 10703020 10684444 10653881 10609196 
1738.603 10554263 10497401 10447031 10409019 10385161 10374438 10374506 
1741.979 10383295 10399143 10420524 10445097 10470552 10495195 10518754 
1745.354 10541939 10566145 10591676 10616327 10636291 10646241 10642302 
1748.729 10623321 10590794 10548628 10501170 10452156 10403453 10356690 
1752.104 10313223 10275087 10244215 10221146 10203914 10188005 10167754 
1755.479 10137873 10096158 10045256 9992090 9944761 9908013 9881742 9860659 
1759.337 9837781 9805854 9761969 9707685 9649104 9593514 9546702 9510259 
1763.194 9482455 9459766 9439515 9420045 9400643 9381142 9360082 9335910 
1767.052 9307507 9275518 9243329 9215373 9194965 9182104 9172595 9160209 
1770.909 9138349 9104883 9063978 9026087 9002812 9001425 9021418 9056129 
1774.767 9096594 9134864 9167450 9195033 9220415 9246544 9273690 9299519 
1778.624 9320337 9332863 9336757 9334657 9331441 9331204 9335030 9340548 
1782.481 9343629 9340513 9329985 9314548 9298638 9287569 9284116 9288246 
1786.339 9297589 9309335 9322267 9336892 9354292 9374877 9396208 9413679 
1790.196 9421230 9413714 9389537 9352499 9310419 9271660 9242720 9224849 
1794.054 9215744 9211548 9208840 9206099 9203020 9198958 9193036 9183018 
1797.911 9167349 9145895 9121362 9098286 9082315 9077612 9084346 9099809 
1801.769 9118689 9136927 9152392 9165759 9179126 9194558 9212123 9230433 
1805.626 9246713 9259474 9268275 9275417 9282965 9292816 9304833 9316817 
1809.483 9326193 9330798 9331272 9329512 9328123 9328056 9328293 9325686 
1813.341 9318205 9305442 9291259 9282491 9287637 9313668 9363603 9435046 
1817.198 9521232 9614212 9706431 9792875 9871133 9940625 10001109 10052581 
1821.056 10095072 10129564 10157376 10180949 10201743 10220366 10236039 
1824.431 10247573 10254901 10259752 10266164 10277971 10297955 10325506 
1827.806 10356962 10386892 10410648 10426565 10437528 10449339 10468856 
1831.181 10499677 10541091 10588757 10637616 10683900 10726861 10768705 
1834.557 10813304 10864533 10924534 10993414 11070019 11153641 11244080 
1837.932 11342121 11448283 11561478 11678925 11797663 11915036 12030433 
1841.307 12146302 12267043 12396817 12539283 12694964 12860701 13032443 
1844.682 13205585 13376676 13543495 13703436 13852112 13983695 14091120 
1848.058 14168890 14214559 14229315 14217058 14183233 14131543 14063124 
1851.433 13977091 13872260 13748884 13610158 13461736 13309845 13159612 
1854.808 13013426 12871419 12732392 12595935 12463066 12335829 12216500 
1858.183 12105348 12001206 11901380 11803620 11707075 11612932 11523675 
1861.559 11441513 11366814 11298420 11234117 11172917 11115635 11065226 
1864.934 11025256 10998035 10983014 10976626 10973738 10969830 10963610 
1868.309 10956577 10952567 10954708 10963849 10978019 10993278 11006803 
1871.684 11017440 11026107 11034739 11043678 11051257 11054078 11048198 
1875.060 11031341 11004492 10971223 10936495 10903944 10874250 10844761 
1878.435 10811673 10772271 10726487 10678025 10632047 10593102 10563328 
1881.810 10540989 10522692 10504836 10485623 10465190 10445436 10427312 
1885.185 10410173 10391745 10369449 10342200 10312240 10284248 10263653 
1888.561 10254324 10256326 10265384 10276411 10284655 10289099 10292254 
1891.936 10298498 10311119 10331342 10356724 10383974 10409834 10433218 
1895.311 10454872 10476595 10498794 10519602 10535659 10543909 10544384 
1898.686 10540752 10539631 10547236 10567538 10599418 10637413 10674493 
1902.062 10705567 10729748 10750296 10772407 10799784 10832667 10867251 
1905.437 10897828 10919506 10930922 10934830 10936155 10939451 10946552 
1908.812 10956577 10966771 10975131 10982029 10989267 10999803 11014348 
1912.187 11030117 11042114 11044833 11036167 11017746 10996132 10978189 
1915.563 10970067 10972922 10983592 10995758 11003677 11004050 10997933 
1918.938 10987976 10976694 10964494 10949883 10930039 10904895 10876594 
1922.313 10850638 10832871 10826655 10830833 10841228 10852677 10862324 
1925.688 10871566 10885156 10908633 10944820 10991850 11043304 11091161 
1929.063 11129946 11157891 11178833 11198314 11221740 11250949 11284341 
1932.439 11318043 11349298 11378107 11406236 11437226 11472165 11509011 
1935.814 11542593 11567400 11580501 11582849 11580229 11579207 11585537 
1939.189 11601599 11626034 11655882 11688693 11723754 11762835 11807161 
1942.564 11856635 11908055 11957370 12001342 12040447 12078671 12120816 
1945.940 12170870 12227848 12286641 12339578 12380998 12410352 12433299 
1949.315 12458599 12494608 12545013 12606883 12672244 12731846 12779822 
1952.690 12815380 12841931 12863535 12882443 12896745 12903366 12900090 
1956.065 12890225 12882511 12889850 12923983 12989528 13082603 13190215 
1959.441 13298160 13393489 13470792 13530539 13576620 13613133 13641305 
1962.816 13661274 13674540 13685756 13704598 13740369 13799606 13880403 
1966.191 13972814 14060590 14129044 14170499 14187102 14189841 14191347 
1969.566 14202337 14227192 14264033 14307726 14354472 14402661 14453184 
1972.942 14507448 14565899 14628503 14697938 14783702 14901200 15068537 
1976.317 15297781 15584841 15906049 16219238 16474903 16634859 16679067 
1979.692 16611861 16456800 16248234 16019072 15792608 15581888 15390014 
1983.067 15215622 15057113 14914094 14787782 14677683 14580359 14491552 
1986.443 14408346 14330054 14261979 14210827 14182343 14176968 14188300 
1989.818 14205589 14217434 14215860 14200591 14177791 14155881 14142942 
1993.193 14142189 14152219 14168513 14187239 14205281 14221748 14235547 
1996.568 14244379 14244106 14229761 14198981 14153109 14097828 14040159 
1999.944 13986638 13939111 13895798 13851530 13803402 13753091 13708770 
2003.319 13684765 13694818 13749397 13851359 13995090 14168513 14356663 
2006.694 14544415 14718195 14866945 14983437 15064386 15112516 15134954 
2010.069 15144355 15152211 15167548 15192940 15224647 15254709 15276399 
2013.445 15288034 15295893 15310857 15344633 15403059 15483949 15576599 
2016.820 15665937 15739730 15792299 15825767 15847795 15866730 15888831 
2020.195 15916051 15947226 15980398 16015429 16052730 16091757 16129408 
2023.570 16159877 16174838 16170572 16149079 16119333 16095882 16093200 
2026.946 16118955 16172189 16242834 16317034 16384056 16439250 16485674 
2030.321 16531382 16585216 16650902 16728202 16812920 16899862 16986440 
2033.696 17071140 17152790 17228938 17293686 17339030 17358962 17350962 
2037.071 17318616 17270068 17214044 17157270 17102054 17047190 16989300 
2040.447 16927146 16863554 16803760 16754305 16720006 16700070 16689431 
2043.822 16681202 16669013 16651144 16630417 16614961 16614823 16638784 
2047.197 16691497 16770905 16867964 16965180 17039126 17066626 17026996 
2050.572 16911298 16725240 16490115 16239498 16008656 15830785 15723925 
2053.948 15688060 15705889 15750209 15793879 15817899 15816318 15795117 
2057.323 15765980 15739111 15719254 15705546 15692422 15675316 15653262 
2060.698 15629493 15608574 15594321 15586318 15580720 15572513 15558157 
2064.073 15537242 15513102 15489443 15468875 15450781 15431417 15406183 
2067.448 15373158 15332962 15289612 15247983 15211367 15180073 15152109 
2070.824 15124661 15096118 15067919 15042878 15023635 15010945 15002232 
2074.199 14993212 14980488 14962859 14942557 14924210 14911762 14906275 
2077.574 14905280 14903429 14895714 14880284 14858751 14835367 14814899 
2080.949 14799369 14786959 14773486 14754359 14727930 14696773 14666475 
2084.325 14642452 14627750 14620040 14613288 14599581 14572375 14529238 
2087.700 14472471 14406805 14337348 14267217 14197201 14126478 14054704 
2091.075 13984209 13919747 13868258 13836376 13828919 13847802 13892137 
2094.450 13958717 14042589 14137670 14236094 14328512 14406942 14464557 
2097.826 14499568 14514780 14517555 14516904 14520056 14530711 14547876 
2101.201 14567783 14586732 14603386 14619662 14640396 14669766 14710004 
2104.576 14759432 14814145 14869414 14922666 14974520 15027168 15083390 
2107.951 15143737 15205842 15265382 15318478 15362655 15399111 15431108 
2111.327 15462146 15493460 15523713 15548403 15562862 15563927 15551151 
2114.702 15527422 15497272 15465304 15434782 15407934 15385894 15370309 
2118.077 15363101 15366327 15380368 15404055 15433168 15463450 15490714 
2121.452 15513445 15532779 15551907 15573543 15598957 15627157 15655048 
2124.828 15680330 15701905 15720421 15738355 15757767 15778143 15797796 
2128.203 15812710 15819617 15817864 15809583 15799480 15794361 15801542 
2131.578 15826970 15877213 15958156 16074220 16227940 16416401 16630728 
2134.953 16854702 17069350 17257382 17407520 17518590 17597528 17656602 
2138.329 17707680 17757588 17807674 17854832 17894572 17925406 17948750 
2141.704 17968950 17990364 18014952 18041582 18067834 18092116 18115848 
2145.079 18143140 18178346 18223160 18273990 18322168 18356696 18368414 
2148.454 18353794 18315014 18259028 18192858 18121446 18045106 17962044 
2151.830 17869540 17767460 17657536 17543876 17430456 17321098 17222526 
2155.205 17147482 17119736 17174574 17350996 17682140 18177274 18813326 
2158.580 19527246 20235814 20855074 21319214 21599072 21700244 21654480 
2161.955 21506032 21300526 21076230 20859456 20665272 20499758 20361846 
2165.331 20244494 20136820 20026954 19903690 19759410 19593344 19410084 
2168.706 19216408 19020048 18825886 18634096 18443566 18252324 18061720 
2172.081 17877930 17711786 17574100 17474882 17418556 17402864 17419798 
2175.456 17455498 17494510 17520350 17518796 17479884 17401346 17288894 
2178.832 17156202 17023240 16911610 16836548 16805894 16816744 16856872 
2182.207 16910024 16961494 17002600 17029616 17044192 17047602 17039850 
2185.582 17018762 16981168 16926180 16856526 16778342 16699795 16627973 
2188.957 16567178 16518680 16481131 16453324 16434707 16425829 16426517 
2192.333 16434535 16444894 16451087 16447473 16431576 16405562 16374938 
2195.708 16345417 16320921 16300831 16282117 16259655 16231999 16199600 
2199.083 16167684 16141754 16125936 16120262 16120641 16120365 16113522 
2202.458 16096501 16069029 16033065 15991466 15946470 15899656 15852951 
2205.833 15808826 15771510 15745502 15732102 15730076 15733579 15734714 
2209.209 15727635 15710596 15687030 15664322 15651064 15651956 15666589 
2212.584 15688403 15708432 15719563 15718224 15706405 15689399 15674043 
2215.959 15664598 15662434 15665112 15669510 15672602 15672121 15666693 
2219.334 15655255 15636086 15607716 15570417 15526013 15479176 15436018 
2222.710 15401858 15378548 15364474 15354725 15343535 15327196 15305332 
2226.085 15280449 15257043 15238442 15225814 15217818 15211538 15205396 
2229.460 15199426 15195994 15197470 15205362 15218813 15234256 15247708 
2232.835 15255876 15257969 15255739 15252547 15251140 15253267 15258244 
2236.211 15265039 15272452 15280243 15289132 15300218 15312986 15326063 
2239.586 15336463 15341544 15339519 15330971 15317414 15301728 15285700 
2242.961 15270907 15257866 15248051 15242801 15245032 15256666 15278184 
2246.336 15306876 15337802 15364370 15380677 15383629 15373639 15353592 
2249.712 15327470 15298742 15269947 15242217 15216857 15196680 15185700 
2253.087 15187930 15205808 15238442 15280551 15324690 15362140 15385792 
2256.462 15391833 15379784 15351155 15308421 15254023 15189715 15117937 
2259.837 15042158 14967043 14897771 14839482 14795152 14765944 14750622 
2263.213 14747434 14754667 14771395 14796250 14827756 14862488 14895611 
2266.588 14922529 14939470 14945574 14943003 14936144 14928805 14923832 
2269.963 14921329 14919375 14915191 14907133 14894650 14879324 14863482 
2273.338 14848670 14836121 14825630 14817230 14811506 14810099 14814899 
2276.714 14827585 14847779 14872946 14899417 14922907 14940602 14951610 
2280.089 14957372 14960527 14963922 14969238 14977298 14987038 14997328 
2283.464 15006348 15012213 15013277 15007549 14993863 14971056 14939778 
2286.839 14901509 14858476 14813494 14768070 14723199 14678471 14633575 
2290.215 14587828 14542566 14499295 14460377 14427596 14402181 14383343 
2293.590 14370157 14361150 14355362 14351835 14350156 14349437 14348204 
2296.965 14344677 14336972 14324643 14307829 14287968 14266841 14245544 
2300.340 14224282 14202782 14180324 14156805 14133016 14110801 14091770 
2303.716 14076848 14065656 14056278 14046662 14035299 14022056 14008162 
2307.091 13996185 13987835 13984311 13984859 13987870 13991771 13995261 
2310.466 13998375 14002071 14007478 14015588 14026470 14039235 14052651 
2313.841 14065587 14076984 14086328 14093344 14097965 14099916 14099950 
2317.217 14099197 14099334 14103237 14113744 14133905 14165843 14210724 
2320.592 14267937 14333478 14400125 14456850 14488640 14480452 14419615 
2323.967 14299542 14122609 13900142 13651837 13399708 13165076 12964469 
2327.342 12805210 12686810 12602381 12542966 12499553 12466646 12442198 
2330.718 12426275 12419320 12420513 12427707 12438447 12450517 12463407 
2334.093 12477626 12494404 12514455 12537476 12562065 12586350 12609306 
2337.468 12630352 12650035 12669105 12687902 12706940 12726421 12747200 
2340.843 12770915 12799682 12834900 12876094 12921321 12966312 13007144 
2344.219 13041662 13070651 13097730 13128500 13168116 13219419 13282171 
2347.594 13352724 13426295 13497487 13561305 13614739 13655632 13683328 
2350.969 13698408 13702376 13697999 13688561 13677823 13668796 13663598 
2354.344 13662368 13664180 13667907 13672489 13678131 13686372 13699058 
2357.719 13717832 13742592 13771867 13802923 13832682 13858714 13879342 
2361.095 13894839 13906163 13914853 13923167 13933842 13949478 13972986 
2364.470 14006485 14050802 14105427 14167794 14235375 14305055 14375363 
2367.845 14445271 14515019 14584230 14652082 14716961 14777189 14831562 
2371.220 14880626 14926336 14971536 15019348 15071693 15129327 15192426 
2374.596 15260509 15333958 15413702 15500568 15595455 15697645 15805081 
2377.971 15915398 16026190 16136045 16245276 16355051 16467296 16583255 
2381.346 16703375 16826560 16951262 17075448 17197188 17314512 17425592 
2384.721 17528042 17619646 17698360 17763558 17816168 17858734 17894814 
2388.097 17927996 17960802 17993748 18026176 18056262 18082064 18102170 
2391.472 18116470 18125210 18129458 18130290 18128630 18125832 18122998 
2394.847 18121410 18122516 18126592 18133468 18142518 18153124 18165494 
2398.222 18180868 18201494 18229862 18267840 18315740 18372424 18436064 
2401.598 18504900 18578242 18657062 18743370 18839554 18947116 19066126 
2404.973 19195386 19332478 19475158 19621388 19769850 19919508 20069980 
2408.348 20220750 20372056 20524526 20679274 20837798 21001248 21169212 
2411.723 21339990 21510594 21677048 21836528 21986586 22126410 22256130 
2415.099 22375146 22483200 22578648 22660152 22727146 22780464 22822158 
2418.474 22855544 22883066 22906678 22926588 22942096 22952438 22957990 
2421.849 22960016 22961554 22965850 22975666 22993170 23019406 23054312 
2425.224 23097884 23149814 23209858 23277954 23354412 23439596 23534938 
2428.600 23642476 23765198 23906014 24066808 24247068 24444438 24654594 
2431.975 24872886 25095290 25320478 25548732 25782242 26023300 26273150 
2435.350 26532020 26799046 27072688 27352222 27637546 27929316 28228600 
2438.725 28535872 28851226 29174286 29504996 29843592 30190724 30546988 
2442.101 30911974 31284962 31663898 32046772 32431908 32818708 33207178 
2445.476 33597676 33990216 34383968 34777964 35170096 35559096 35944448 
2448.851 36325888 36703304 37076392 37443692 37803648 38154928 38496280 
2452.226 38827608 39149328 39461600 39763932 40055100 40332824 40594904 
2455.602 40839376 41064688 41270032 41453972 41614320 41748716 41854076 
2458.977 41927820 41968840 41977272 41954536 41902460 41823064 41717132 
2462.352 41585584 41428784 41248028 41045892 40826600 40595304 40358168 
2465.727 40121704 39892600 39676900 39481272 39310644 39170144 39062896 
2469.103 38990396 38953136 38950420 38981372 39045460 39142404 39271652 
2472.478 39431632 39619112 39829116 40055172 40290688 40529896 40768400 
2475.853 41003796 41233928 41457396 41672448 41876336 42065968 42238592 
2479.228 42391668 42523272 42632072 42716628 42775748 42808840 42815528 
2482.604 42796624 42753992 42690488 42609560 42514836 42409828 42297608 
2485.979 42180712 42061440 41941252 41820584 41699036 41574644 41445512 
2489.354 41308844 41162664 41005796 40837704 40658576 40467848 40264876 
2492.729 40048084 39815748 39566300 39299216 39014900 38714652 38399908 
2496.104 38072052 37732044 37380748 37018980 36648032 36269912 35886896 
2499.480 35501060 35113836 34726136 34338168 33950156 33563024 33178352 
2502.855 32798376 32425802 32063000 31712088 31374204 31050006 30740096 
2506.230 30444300 30162522 29893990 29637438 29391102 29153626 28923894 
2509.605 28701998 28489274 28286946 28096306 27917974 27751582 27596094 
2512.981 27450826 27315524 27190844 27077802 26977202 26888996 26812086 
2516.356 26745092 26686530 26636324 26595742 26566574 26550970 26549422 
2519.731 26561080 26583236 26612826 26646964 26684168 26724336 26768316 
2523.106 26817126 26871618 26931122 26995042 27061722 27129434 27196628 
2526.482 27261152 27320216 27371170 27411084 27437520 27449838 27448108 
2529.857 27433566 27407554 27370888 27323710 27265490 27196382 27117620 
2533.232 27031570 26942156 26853290 26768244 26688714 26614870 26546006 
2536.607 26481024 26419678 26361796 26308178 26259386 26215602 26175726 
2539.983 26139304 26105348 26073856 26045534 26021048 26000680 25983724 
2543.358 25968528 25953016 25935218 25913658 25888090 25859426 25829078 
2546.733 25798416 25768566 25740192 25713754 25688970 25665454 25642818 
2550.108 25620394 25597758 25575160 25553056 25533060 25516158 25503474 
2553.484 25494758 25488962 25483726 25477086 25467810 25456250 25443882 
2556.859 25432816 25424526 25418728 25413108 25403972 25387252 25359852 
2560.234 25320828 25270956 25212872 25149812 25084302 25018136 24951980 
2563.609 24886080 24820470 24756060 24693382 24633764 24578114 24527416 
2566.985 24482122 24443036 24410894 24386362 24369502 24360322 24357762 
2570.360 24360708 24367892 24378404 24391968 24408512 24428140 24451100 
2573.735 24477110 24505750 24536636 24570014 24605956 24644950 24687140 
2577.110 24731542 24777530 24823030 24866780 24908150 24947102 24984758 
2580.486 25022418 25061626 25104030 25150442 25201952 25259298 25322902 
2583.861 25392768 25468476 25548628 25631466 25715336 25798698 25881230 
2587.236 25963428 26046168 26130506 26216868 26305748 26396546 26488914 
2590.611 26582426 26676382 26770252 26863158 26953580 27040670 27123438 
2593.987 27202026 27277346 27350950 27424108 27497772 27571696 27644998 
2597.362 27716794 27786516 27854552 27922638 27992852 28067072 28146078 
2600.737 28230154 28318066 28408722 28501198 28595216 28691450 28790892 
2604.112 28894676 29003976 29119364 29241016 29369050 29502868 29641764 
2607.488 29784538 29929914 30076686 30224186 30372444 30522318 30674804 
2610.863 30830472 30988902 31148636 31307288 31461940 31610298 31751156 
2614.238 31884138 32009672 32128930 32242116 32349658 32451190 32546672 
2617.613 32635856 32719166 32797020 32870206 32938938 33003644 33064458 
2620.989 33121738 33176028 33228066 33278718 33328372 33377282 33425414 
2624.364 33472438 33518392 33563456 33608524 33654356 33701828 33751568 
2627.739 33804180 33859484 33917484 33977672 34039488 34102456 34165716 
2631.114 34228700 34291160 34353160 34414916 34477224 34539860 34602720 
2634.490 34664976 34725128 34782168 34835548 34885524 34933208 34980288 
2637.865 35028344 35078348 35130864 35185760 35242824 35302084 35363728 
2641.240 35428108 35495448 35565532 35637568 35710912 35784664 35858612 
2644.615 35933396 36009776 36088840 36171192 36257228 36346528 36439056 
2647.990 36534844 36634080 36737268 36844664 36956420 37071628 37189176 
2651.366 37307624 37425924 37543212 37659692 37775708 37892036 38009484 
2654.741 38128588 38249972 38374248 38501780 38632904 38767576 38905480 
2658.116 39045568 39187076 39329324 39471688 39614244 39757108 39900556 
2661.491 40044340 40188324 40331988 40475232 40618188 40761632 40906364 
2664.867 41053176 41202556 41354320 41507776 41662164 41816936 41971944 
2668.242 42127296 42283584 42441392 42601260 42763316 42927624 43093968 
2671.617 43262208 43432156 43603788 43776768 43951068 44126608 44303540 
2674.992 44482156 44662576 44844836 45028380 45212556 45396588 45580112 
2678.368 45763344 45946836 46132656 46322612 46518472 46721732 46933128 
2681.743 47153388 47382364 47620336 47867208 48123064 48387596 48660324 
2685.118 48940680 49228012 49522400 49824052 50133796 50452020 50779460 
2688.493 51115488 51459616 51810580 52167476 52529564 52896592 53268576 
2691.869 53645716 54027800 54414500 54805564 55200976 55600964 56006404 
2695.244 56418040 56836784 57263080 57696984 58138104 58586040 59040096 
2698.619 59500100 59965684 60436116 60910524 61387624 61866168 62344436 
2701.994 62821580 63296384 63768560 64237400 64702600 65163484 65619000 
2705.370 66067972 66508292 66937624 67353368 67752824 68133336 68493504 
2708.745 68832704 69151456 69450888 69732536 69998224 70248888 70484880 
2712.120 70706104 70912344 71103000 71277760 71435912 71576816 71699400 
2715.495 71802552 71884608 71944632 71981352 71993984 71982760 71947992 
2718.871 71891416 71815336 71723400 71620344 71510840 71400296 71293184 
2722.246 71193312 71103856 71026896 70964784 70919568 70893736 70889800 
2725.621 70910008 70955808 71027792 71125600 71247928 71393072 71559472 
2728.996 71745400 71949288 72169808 72405208 72653648 72913688 73183288 
2732.372 73460824 73744792 74033688 74325648 74619184 74912288 75203024 
2735.747 75489552 75770344 76043816 76308848 76564680 76810848 77047392 
2739.122 77275232 77495864 77710904 77922480 78132416 78342416 78553944 
2742.497 78768592 78988120 79214360 79448864 79693336 79948384 80214016 
2745.873 80489464 80773344 81064688 81361816 81662984 81965768 82266592 
2749.248 82560456 82842376 83106296 83347456 83562512 83750248 83910960 
2752.623 84046360 84159120 84251600 84325904 84383240 84424000 84447592 
2755.998 84452056 84434960 84393184 84323488 84223880 84092480 83928848 
2759.374 83733528 83506968 83249512 82961192 82641656 82290904 81909824 
2762.749 81500664 81066888 80613032 80144712 79667416 79186488 78707344 
2766.124 78235320 77775144 77331800 76909920 76512904 76143976 75804976 
2769.499 75496760 75219888 74974536 74760136 74576344 74422224 74296512 
2772.875 74197408 74123048 74070544 74036744 74018320 74010936 74009920 
2776.250 74010304 74006416 73993608 73966976 73922776 73857768 73769608 
2779.625 73656168 73516712 73351000 73160472 72947976 72717696 72475600 
2783.000 72227128 71977760 71732152 71492792 71261288 71037080 70819240 
2786.375 70605320 70392448 70177304 69956384 69726584 69485520 69231928 
2789.751 68966048 68688688 68402312 68109192 67811808 67512896 67214600 
2793.126 66919880 66631616 66353156 66087880 65839224 65609904 65402316 
2796.501 65218232 65058784 64925052 64817868 64737900 64685136 64659640 
2799.876 64660296 64685636 64734056 64803408 64891464 64996048 65114668 
2803.252 65244756 65383552 65528288 65676732 65826848 65977356 66127384 
2806.627 66276000 66422612 66565604 66703432 66833264 66951968 67055924 
2810.002 67141384 67204504 67242144 67251856 67232472 67184200 67108124 
2813.377 67006356 66881152 66735156 66570936 66391528 66200704 66003360 
2816.753 65805368 65614068 65436712 65280684 65153048 65059164 65003516 
2820.128 64989812 65020024 65095388 65215608 65378888 65581812 65819404 
2823.503 66085792 66374080 66677704 66990160 67305392 67617488 67921088 
2826.878 68210136 68479656 68724904 68942240 69129776 69286992 69415080 
2830.254 69516432 69594568 69653848 69698264 69732624 69761176 69787640 
2833.629 69815960 69849432 69891032 69944192 70012088 70098448 70207168 
2837.004 70342336 70508576 70710432 70953384 71243720 71589248 71998560 
2840.379 72482288 73052408 73721184 74502264 75410712 76461496 77672312 
2843.755 79062280 80650496 82455520 84490816 86759544 89247832 91919000 
2847.130 94711304 97528488 100251768 102745680 104861688 106468736 107461208 
2850.505 107772280 107386520 106336488 104700488 102581744 100105008 
2853.398 97401256 94587536 91773056 89047704 86476208 84105632 81961680 
2856.773 80051560 78368368 76894456 75606376 74476576 73478216 72587072 
2860.149 71780544 71040552 70351968 69701848 69080824 68481600 67898808 
2863.524 67330112 66774800 66234508 65713392 65217308 64754672 64334184 
2866.899 63965656 63657552 63416032 63244788 63143580 63108748 63133076 
2870.274 63206852 63318544 63454384 63600352 63742848 63869260 63970224 
2873.650 64040372 64078504 64087988 64075120 64048476 64015640 63984080 
2877.025 63958936 63943348 63939744 63949488 63973716 64013340 64069212 
2880.400 64141488 64230488 64335792 64457080 64594084 64746060 64912052 
2883.775 65090224 65278260 65473044 65671876 65872424 66073680 66276000 
2887.151 66480800 66690184 66906816 67132912 67370352 67621168 67887184 
2890.526 68171088 68476824 68809416 69176088 69586248 70050168 70580680 
2893.901 71190784 71892000 72694232 73602584 74615840 75723392 76905568 
2897.276 78131024 79355776 80530624 81600608 82512056 83223384 83707976 
2900.652 83960648 83998112 83857304 83589632 83249472 82893544 82571000 
2904.027 82320056 82171416 82146840 82261432 82526960 82951936 83542760 
2907.402 84305016 85243416 86363000 87670136 89171456 90873392 92778608 
2910.777 94884128 97176248 99627960 102201488 104843376 107488240 110066688 
2914.153 112500984 114715744 116646024 118237024 119453912 120284096 
2917.046 120736528 120838928 120630264 120157272 119462776 118581696 
2919.939 117539024 116346712 115007320 113517536 111873816 110077104 
2922.832 108137736 106075800 103923328 101721080 99512320 97342336 95252296 
2926.207 93273168 91428720 89731536 88184240 86781752 85512512 84362320 
2929.582 83314336 82353184 81465128 80638448 79864424 79136784 78450640 
2932.958 77802928 77191280 76614280 76070656 75559648 75079928 74629448 
2936.333 74204568 73800152 73409976 73026848 72644368 72258432 71867216 
2939.708 71473064 71080480 70697016 70331008 69990520 69682664 69412200 
2943.083 69180672 68985928 68821992 68678792 68542864 68399672 68235096 
2946.458 68038104 67803952 67534296 67238936 66932328 66633700 66363000 
2949.834 66136496 65967096 65861316 65819056 65834172 65896296 65992324 
2953.209 66107012 66226484 66338024 66431032 66498100 66534288 66536836 
2956.584 66504860 66439100 66341728 66216060 66066928 65900148 65721676 
2959.959 65537340 65352320 65170416 64994700 64827560 64670756 64526232 
2963.335 64395436 64279772 64179740 64095132 64025356 63969380 63926152 
2966.710 63894676 63874640 63865192 63865728 63874908 63891872 63916096 
2970.085 63948036 63989380 64042672 64110568 64195224 64297176 64415804 
2973.460 64548336 64690792 64837604 64982468 65117016 65232164 65317652 
2976.836 65362716 65357744 65296284 65175264 64996512 64766096 64494400 
2980.211 64192912 63874676 63552484 63237084 62937432 62660372 62408928 
2983.586 62182976 61978700 61789112 61604796 61415560 61212520 60988984 
2986.961 60741940 60471720 60181884 59876796 59560408 59234488 58897352 
2990.337 58544404 58168748 57763512 57323912 56849212 56343828 55817068 
2993.712 55282216 54752304 54238956 53749204 53284384 52840796 52411304 
2997.087 51987612 51562620 51132112 50695180 50253632 49810824 49370280 
3000.462 48935044 48506876 48086644 47674840 47271664 46877540 46492992 
3003.838 46118544 45754952 45402588 45062196 44734340 44419980 44119856 
3007.213 43833832 43561808 43302400 43053536 42813408 42580140 42352436 
3010.588 42129380 41911000 41697248 41488344 41284208 41084644 40889284 
3013.963 40697948 40510220 40326024 40145584 39969100 39797340 39631124 
3017.339 39471436 39318988 39173840 39035636 38903268 38775292 38650284 
3020.714 38527416 38406500 38288220 38173664 38064204 37960772 37864304 
3024.089 37775488 37695180 37624608 37565716 37520308 37490216 37476452 
3027.464 37478440 37493540 37517236 37543644 37565536 37575396 37566620 
3030.840 37533924 37474068 37386524 37272964 37137164 36983692 36818048 
3034.215 36645112 36469108 36293140 36119696 35950024 35785028 35625268 
3037.590 35470928 35322176 35179296 35042748 34912920 34790568 34675600 
3040.965 34567664 34465528 34367756 34272300 34177868 34083924 33990892 
3044.341 33899892 33812528 33730120 33653316 33582216 33516492 33455688 
3047.716 33399828 33349234 33304334 33265126 33230964 33200454 33171664 
3051.091 33142698 33112016 33079010 33043504 33006110 32967176 32927464 
3054.466 32887756 32848694 32811954 32778758 32750570 32728274 32711662 
3057.842 32699834 32691334 32685082 32680654 32678832 32681010 32688834 
3061.217 32703374 32724808 32752604 32785908 32823890 32866706 32914776 
3064.592 32968428 33027522 33090704 33155176 33218014 33275966 33327088 
3067.967 33370234 33405912 33434644 33457228 33474154 33485390 33490580 
3071.343 33490152 33484928 33476050 33465278 33454434 33444594 33436936 
3074.718 33431746 33429492 33430386 33434286 33440764 33448994 33457656 
3078.093 33464812 33469074 33469324 33465098 33457048 33446062 33433392 
3081.468 33420582 33408734 33398968 33391990 33388306 33387982 33390596 
3084.844 33395570 33402082 33409882 33418826 33429850 33444128 33462808 
3088.219 33486896 33516352 33550606 33588336 33628108 33668712 33709420 
3091.594 33750248 33791468 33833692 33877612 33923824 33973088 34025940 
3094.969 34083064 34144712 34210920 34280980 34353732 34427720 34501152 
3098.344 34572832 34641692 34707688 34771148 34832960 34894360 34956552 
3101.720 35020516 35086496 35154432 35223636 35293352 35362936 35432456 
3105.095 35502352 35573980 35648036 35725232 35805032 35886176 35966976 
3108.470 36045780 36121780 36195320 36267640 36340696 36416140 36495308 
3111.845 36578388 36665192 36755080 36847444 36941588 37036768 37131716 
3115.221 37225056 37314956 37400104 37479848 37554948 37626956 37698180 
3118.596 37770284 37844060 37919188 37994512 38068508 38140276 38209880 
3121.971 38278088 38346160 38415256 38485704 38557396 38629532 38701536 
3125.346 38773412 38845400 38918240 38992464 39068440 39145996 39225012 
3128.722 39304988 39385772 39467336 39549788 39633160 39717164 39801372 
3132.097 39885556 39969936 40054880 40141220 40230088 40321516 40415660 
3135.472 40512220 40610296 40709516 40809492 40910328 41011736 41113708 
3138.847 41215452 41316020 41414496 41510076 41602580 41692216 41779652 
3142.223 41865460 41950520 42035600 42121568 42209452 42300276 42394992 
3145.598 42494372 42598048 42705368 42815528 42927292 43040184 43154380 
3148.973 43270260 43388512 43508884 43630680 43752292 43872028 43987876 
3152.348 44098768 44204996 44307244 44407320 44506756 44607276 44709804 
3155.724 44814564 44921256 45029008 45137148 45244732 45351568 45457732 
3159.099 45564324 45672160 45782600 45896600 46014320 46135124 46258216 
3162.474 46382000 46505344 46627396 46747780 46866872 46985036 47102716 
3165.849 47220428 47337876 47454984 47571388 47686340 47799440 47910568 
3169.225 48019800 48127728 48234980 48342556 48450788 48559524 48667848 
3172.600 48774156 48876712 48974432 49067092 49155468 49241072 49325696 
3175.975 49410488 49495700 49580744 49664952 49747468 49828696 49909680 
3179.350 49991980 50077048 50165520 50256680 50349168 50441116 50531260 
3182.726 50619076 50705236 50790964 50877492 50965788 51056080 51147728 
3186.101 51240332 51333028 51425596 51517584 51608888 51699236 51788260 
3189.476 51875284 51960164 52043040 52124364 52204952 52285856 52367936 
3192.851 52452388 52539736 52630392 52724280 52820740 52918376 53015512 
3196.227 53110272 53201456 53288428 53371972 53453548 53534644 53616660 
3199.602 53700044 53784488 53869104 53953132 54036352 54118992 54201644 
3202.977 54284720 54367972 54451080 54532972 54613184 54691532 54768620 
3206.352 54845228 54921888 54998412 55074012 55147624 55219184 55289100 
3209.728 55359368 55432432 55510360 55593956 55682052 55772160 55861080 
3213.103 55945720 56024728 56098164 56167808 56235684 56303652 56372648 
3216.478 56442904 56513508 56583860 56653732 56723160 56792524 56862656 
3219.853 56934120 57007072 57081732 57157732 57235408 57314344 57394584 
3223.229 57475552 57556652 57637464 57717380 57796064 57873588 57949952 
3226.604 58025424 58100376 58174960 58249484 58324548 58400540 58477680 
3229.979 58556236 58635944 58715896 58795556 58874244 58951472 59027112 
3233.354 59101592 59174756 59246948 59318044 59388204 59457804 59527268 
3236.729 59597156 59668160 59740320 59813288 59886800 59960588 60034772 
3240.105 60110148 60187516 60268020 60351884 60438284 60525536 60612008 
3243.480 60695788 60775932 60852844 60927448 61001452 61076196 61153012 
3246.855 61232552 61315116 61400984 61489880 61581620 61675404 61769900 
3250.230 61863916 61956000 62045316 62131748 62216092 62299420 62383144 
3253.606 62468188 62554740 62643036 62732680 62823156 62914260 63005076 
3256.981 63094684 63181788 63265072 63343384 63416384 63484676 63549912 
3260.356 63614012 63678652 63744956 63813224 63882924 63953520 64024748 
3263.731 64096556 64169408 64243428 64318852 64394900 64470804 64545648 
3267.107 64619152 64691640 64763552 64835600 64908468 64981544 65054356 
3270.482 65126256 65196516 65265128 65332988 65400772 65469840 65540812 
3273.857 65614028 65689528 65766856 65845588 65925292 66005632 66086836 
3277.232 66169404 66254036 66342080 66434384 66532156 66635252 66743232 
3280.608 66854520 66967732 67081444 67194920 67308640 67423912 67542152 
3283.983 67664840 67793064 67927480 68067872 68214512 68367248 68525792 
3287.358 68689656 68857984 69029000 69201304 69373328 69544592 69715776 
3290.733 69889008 70066472 70250792 70443728 70646448 70858832 71080592 
3294.109 71311024 71549584 71795864 72049136 72309112 72575096 72846640 
3297.484 73123376 73405072 73691704 73983392 74279920 74581448 74888232 
3300.859 75200936 75520656 75848928 76187128 76535832 76894848 77263240 
3304.234 77639264 78021528 78409048 78801840 79199960 79603776 80013112 
3307.610 80427576 80846464 81269320 81696976 82130944 82573528 83026696 
3310.985 83491672 83968688 84456928 84954664 85460392 85973008 86491976 
3314.360 87016544 87546208 88079760 88616160 89154568 89694624 90236992 
3317.735 90782928 91333968 91891352 92455456 93026112 93602488 94183784 
3321.111 94768712 95356080 95944688 96532496 97118104 97700272 98278656 
3324.486 98853696 99426824 99999168 100570936 101140984 101706760 102264712 
3327.861 102811464 103344528 103862464 104365096 104852272 105324168 
3330.754 105780216 106219352 106640544 107042728 107424576 107784816 
3333.647 108121624 108432464 108715048 108967408 109188944 109380456 
3336.540 109544160 109682288 109796496 109886904 109952416 109990664 
3339.433 109999288 109976064 109920072 109830032 109705456 109545144 
3342.326 109348104 109112944 108839128 108526848 108176888 107790120 
3345.219 107367472 106908952 106414720 105884896 105320616 104723936 
3348.113 104097536 103444456 102767256 102067760 101346840 100605648 
3351.006 99845520 99068376 98277200 97474736 96663608 95846104 95023904 
3354.381 94198480 93372368 92548144 91728968 90917792 90116848 89326984 
3357.756 88548760 87781528 87025528 86281960 85552416 84839240 84144848 
3361.131 83470112 82815352 82179392 81560664 80957640 80368720 79793064 
3364.507 79230504 78680936 78145024 77623616 77117904 76629304 76159136 
3367.882 75708248 75276312 74862048 74463408 74077936 73703048 73337040 
3371.257 72978632 72626552 72279840 71936768 71595616 71254144 70910200 
3374.632 70562448 70209744 69851448 69487512 69117224 68740112 68355696 
3378.008 67963632 67564184 67157712 66744656 66325320 65899296 65465912 
3381.383 65023684 64571708 64108952 63635648 63152664 62661672 62164704 
3384.758 61664676 61163464 60663292 60165896 59672156 59182428 58696892 
3388.133 58215044 57736268 57260284 56786560 56314860 55845216 55378300 
3391.509 54914556 54455516 54002396 53556836 53119784 52691884 52272068 
3394.884 51858932 51450552 51044864 50640820 50238048 49837280 49439780 
3398.259 49046876 48659252 48276636 47898432 47523476 47151316 46781876 
3401.634 46415260 46051748 45691708 45334536 44979244 44625048 44271400 
3405.010 43918876 43568548 43222272 42881756 42548308 42222088 41902168 
3408.385 41587152 41275648 40966032 40657920 40351880 40048484 39748900 
3411.760 39454452 39165828 38883156 38606176 38333820 38064852 37798296 
3415.135 37533672 37271196 37011800 36756920 36507020 36262668 36022700 
3418.510 35785600 35549568 35313660 35078164 34845348 34617936 34399028 
3421.886 34190664 33992652 33802928 33618084 33434038 33247776 33057842 
3425.261 32864526 32669616 32475788 32285228 32099638 31919800 31745524 
3428.636 31575770 31409648 31245650 31082892 30919944 30756206 30591498 
3432.011 30426460 30262408 30100834 29943510 29791564 29644816 29502728 
3435.387 29363308 29224892 29085738 28945144 28802718 28658708 28513760 
3438.762 28368220 28222200 28075556 27928078 27779556 27630308 27480830 
3442.137 27332426 27186294 27043314 26903872 26767858 26633894 26500254 
3445.512 26365422 26228026 26088248 25947424 25807488 25671042 25540614 
3448.888 25416690 25299052 25185906 25074718 24962894 24848816 24730876 
3452.263 24609462 24484610 24357202 24228430 24099064 23970858 23845174 
3455.638 23723098 23605812 23493070 23383506 23275226 23165646 23052704 
3459.013 22935914 22815838 22694364 22574006 22456750 22343784 22234822 
3462.389 22128642 22023184 21916952 21808830 21699026 21588206 21477936 
3465.764 21369748 21264928 21164098 21067082 20973080 20880384 20787014 
3469.139 20691474 20592512 20490346 20385840 20281014 20177220 20075844 
3472.514 19977026 19879722 19782854 19685314 19586584 19487494 19389780 
3475.890 19294720 19203558 19116122 19030918 18946388 18860940 18773088 
3479.265 18683006 18591488 18499886 18409584 18321856 18237466 18157098 
3482.640 18081304 18010222 17943778 17881106 17820550 17760176 17697636 
3486.015 17631516 17561644 17488992 17415522 17344030 17276756 17215148 
3489.391 17159752 17110326 17065868 17025514 16988438 16953640 16920636 
3492.766 16888770 16857078 16825182 16793186 16761262 16730612 16701894 
3496.141 16676106 16654208 16636409 16622843 16613513 16608248 16606767 
3499.516 16608110 16611381 16615236 16618505 16620640 16622292 16624875 
3502.892 16630968 16643638 16664984 16696386 16737947 16788504 16846298 
3506.267 16908922 16974450 17041468 17109084 17177090 17245934 17316858 
3509.642 17391620 17471570 17558300 17652222 17752652 17858424 17967328 
3513.017 18077228 18186570 18294276 18400008 18504036 18606464 18707116 
3516.393 18805334 18900496 18991316 19077066 19156876 19229880 19295378 
3519.768 19352364 19399274 19435204 19458940 19469926 19468296 19454818 
3523.143 19430250 19395774 19351498 19297006 19230850 19150714 19053698 
3526.518 18937804 18801978 18647274 18477136 18296766 18111842 17927996 
3529.894 17749166 17576516 17409694 17246280 17082856 16916432 16743733 
3533.269 16563082 16373457 16175043 15969088 15758729 15547683 15340514 
3536.644 15141439 14953668 14777875 14613529 14458493 14309713 14164748 
3540.019 14022124 13881086 13742181 13605303 13470246 13336460 13202648 
3543.395 13067168 12929343 12788830 12646419 12502895 12360100 12219908 
3546.770 12084088 11954101 11831200 11715312 11606024 11501933 11400727 
3550.145 11300699 11200320 11099556 10999292 10901531 10808345 10721189 
3553.520 10640604 10565738 10494924 10426667 10359303 10292051 10224640 
3556.896 10156799 10088425 10019351 9949338 9878285 9807244 9736961 9669093 
3560.753 9604320 9543146 9484317 9426377 9366650 9302294 9231212 9151681 
3564.610 9062726 8964521 8858695 8748094 8637353 8531505 8435582 8352920 
3568.468 8284695 8229346 8183964 8144327 8106685 8067999 8026144 7980177 
3572.325 7930097 7876615 7820710 7763970 7708013 7653884 7603066 7555693 
3576.183 7511561 7469963 7429447 7388833 7347583 7305495 7263444 7222711 
3580.040 7184172 7148533 7116399 7087636 7062007 7039242 7018802 6999271 
3583.897 6978967 6954759 6922774 6879347 6821921 6749931 6666615 6578234 
3587.755 6493100 6419416 6362254 6323320 6300089 6287819 6280355 6272321 
3591.612 6260220 6241866 6216959 6186609 6152765 6116875 6080853 6045371 
3595.470 6010699 5977205 5945562 5916036 5889469 5866362 5846816 5830293 
3599.327 5816156 5803630 5791810 5780696 5770522 5761859 5755245 5750980 
3603.185 5748731 5748227 5747891 5745944 5740639 5729560 5710893 5683331 
3607.042 5646908 5603239 5555714 5508464 5465445 5429377 5400121 5375128 
3610.899 5351244 5324711 5293383 5257295 5219165 5182781 5151899 5128697 
3614.757 5112672 5101541 5091182 5077034 5056049 5026350 4987904 4943731 
3618.614 4897921 4855566 4821927 4800887 4793383 4798710 4813551 4834290 
3622.472 4856706 4878251 4897050 4913403 4928081 4941587 4953450 4959985 
3626.329 4956165 4935085 4890616 4821223 4732179 4637728 4555184 4500274 
3630.187 4479317 4488456 4516612 4552237 4583947 4604440 4611037 4604943 
3634.044 4590711 4573968 4559369 4549458 4544067 4540752 4537103 4531478 
3637.901 4523309 4514035 4505932 4501245 4501714 4507874 4519324 4534960 
3641.759 4553978 4575374 4598547 4622490 4645364 4664588 4676812 4678219 
3645.616 4665324 4636422 4591582 4533085 4465022 4392987 4322168 4257652 
3649.474 4203951 4164976 4144034 4143399 4162768 4198765 4245840 4296601 
3653.331 4343084 4378059 4396401 4395530 4377590 4348774 4318754 4297538 
3657.188 4292284 4305469 4334885 4374611 4417053 4455682 4485410 4504292 
3661.046 4513700 4517583 4520831 4527761 4540886 4559905 4582741 4607186 
3664.903 4631432 4656114 4683243 4714962 4753417 4799447 4854293 4922451 
3668.761 5014986 5150290 5352854 5647378 6047623 6554922 7160086 7850467 
3672.618 8615181 9443917 10321842 11210146 12035679 12693463 13063584 
3675.993 13063652 12682819 11979135 11048062 9989445 8897113 7846115 6899040 
3679.851 6103803 5482323 5031914 4726719 4529737 4402492 4315241 4251729 
3683.708 4205055 4173841 4157014 4149253 4142195 4126506 4094161 4042086 
3687.566 3972929 3895459 3820242 3756636 3710081 3681409 3668578 3668879 
3691.423 3679405 3697149 3719138 3741830 3761883 3776756 3785614 3789056 
3695.281 3789524 3789123 3790159 3794137 3800955 3809746 3818939 3826660 
3699.138 3830237 3827229 3815763 3795340 3768300 3738689 3713423 3698686 
3702.995 3698385 3712889 3739190 3772144 3805802 3835786 3859755 3877306 
3706.853 3889675 3897900 3902614 3903215 3898501 3886767 3867477 3841335 
3710.710 3809646 3775486 3741930 3712922 3691835 3681744 3684217 3699087 
3714.568 3724017 3754831 3786583 3813423 3831708 3839697 3838828 3831574 
3718.425 3822047 3813122 3805635 3798983 3792031 3783842 3775553 3769136 
3722.282 3766863 3769436 3775954 3782939 3785848 3781135 3767732 3748280 
3726.140 3727426 3711719 3706907 3715763 3737519 3767966 3802092 3833346 
3729.997 3855877 3866039 3861794 3844110 3816298 3783040 3748147 3714058 
3733.855 3680474 3645856 3609537 3573188 3541586 3520975 3517000 3531130 
3737.712 3560427 3598880 3639775 3677767 3710416 3737385 3759677 3777257 
3741.570 3787585 3784310 3759644 3706974 3627947 3535673 3453672 3407350 
3745.427 3409788 3456744 3530295 3609604 3675695 3714493 3720441 3695077 
3749.284 3647293 3589893 3535473 3492750 3465328 3453972 3458214 3478421 
3753.142 3513626 3561128 3615952 3671184 3719505 3756001 3777926 3785848 
3756.999 3782906 3773681 3761749 3749584 3738287 3728763 3723248 3724585 
3760.857 3735179 3755800 3783374 3812320 3835552 3846717 3842572 3825156 
3764.714 3800755 3777859 3764858 3765994 3779597 3800019 3819273 3830103 
3768.572 3828198 3813156 3788388 3760513 3736316 3721010 3717467 3725521 
3772.429 3742565 3764690 3787652 3807574 3821747 3829769 3832510 3832376 
3776.286 3831708 3831775 3831942 3830504 3824755 3813657 3797914 3781201 
3780.144 3768534 3763654 3768267 3780466 3796009 3809613 3816733 3815061 
3784.001 3804766 3788521 3769871 3752558 3738421 3728562 3722848 3720742 
3787.859 3721745 3725822 3732573 3741329 3751622 3762585 3774216 3786850 
3791.716 3800889 3816365 3832610 3846784 3855576 3855576 3844444 3822415 
3795.573 3792499 3760513 3733241 3715696 3709580 3712387 3718436 3719806 
3799.431 3708812 3680474 3634429 3576896 3519973 3478454 3463792 3479957 
3803.288 3522412 3580505 3642348 3695378 3730200 3742532 3734778 3714693 
3807.146 3695177 3688160 3700290 3731436 3775820 3825691 3873728 3914817 
3811.003 3946948 3970388 3986873 3996838 4000149 3994063 3975303 3941197 
3814.861 3892851 3835385 3780032 3738822 3720341 3726791 3752725 3787585 
3818.718 3818069 3832176 3820710 3781669 3721310 3654878 3601653 3576262 
3822.575 3584547 3621699 3677066 3736951 3789758 3827897 3848689 3854473 
3826.433 3851063 3845848 3844243 3848455 3857214 3866942 3873762 3874665 
3830.290 3868948 3857949 3844845 3833245 3826560 3826627 3833747 3846383 
3834.148 3861861 3876202 3885296 3885262 3873795 3850461 3818337 3782171 
3838.005 3748748 3724285 3711853 3711017 3719305 3732539 3746308 3757438 
3841.863 3763888 3764991 3761348 3754163 3745506 3738354 3734912 3736951 
3845.720 3745406 3759510 3777491 3797513 3817501 3836722 3855041 3872726 
3849.577 3889241 3902045 3905656 3892417 3854272 3785580 3688126 3575193 
3853.435 3470104 3397132 3371118 3391956 3447693 3522612 3602087 3676431 
3857.292 3740226 3791463 3829802 3856311 3871890 3877673 3874698 3864970 
3861.150 3850662 3834215 3817601 3801022 3784343 3767364 3750720 3737552 
3865.007 3732205 3738789 3758808 3789658 3824688 3853904 3868112 3859888 
3868.865 3827931 3778494 3725187 3683481 3664067 3669313 3692771 3723716 
3872.722 3750519 3764991 3764991 3754096 3740460 3732807 3737853 3757037 
3876.579 3786917 3820777 3851063 3870853 3876102 3865638 3842773 3814092 
3880.437 3787184 3769503 3765392 3775286 3795674 3819975 3840767 3850896 
3884.294 3845647 3824721 3793635 3762685 3743167 3743936 3767231 3808309 
3888.152 3857314 3903215 3935045 3945243 3931768 3898200 3853737 3809980 
3892.009 3777257 3761549 3763788 3780566 3806905 3838260 3870619 3901444 
3895.866 3929094 3952064 3968950 3978714 3980754 3975571 3964536 3950392 
3899.724 3934945 3919331 3903583 3885597 3864267 3838627 3809412 3779597 
3903.581 3753628 3735012 3727225 3730668 3744337 3765058 3789992 3816666 
3907.439 3843675 3870385 3896663 3922574 3947985 3972026 3994197 4013392 
3911.296 4029411 4042554 4053423 4062621 4070313 4075765 4077872 4074661 
3915.154 4065330 4049410 4028441 4005232 3983429 3966509 3956411 3953469 
3919.011 3956812 3964937 3975939 3988846 4002825 4016970 4030080 4040146 
3922.868 4045029 4043256 4034828 4021986 4008744 3999514 3998243 4006068 
3926.726 4021752 4041751 4061684 4078039 4088508 4093057 4092923 4090114 
3930.583 4086134 4081551 4076568 4071149 4065564 4061149 4059310 4061116 
3934.441 4066366 4073892 4081150 4086200 4087304 4084628 4079545 4074293 
3938.298 4070948 4070681 4073423 4077270 4080581 4080849 4076568 4067771 
3942.156 4055028 4040447 4026267 4015131 4008810 4008442 4013626 4022956 
3946.013 4033859 4043490 4049042 4049410 4044460 4036032 4026936 4020013 
3949.870 4017338 4020013 4027638 4038942 4052219 4066467 4079912 4091619 
3953.728 4100616 4105934 4106904 4103627 4096903 4088742 4081885 4078675 
3957.585 4080849 4089144 4102690 4119281 4136943 4152899 4165377 4173707 
3961.443 4177454 4177889 4176016 4173640 4172269 4173105 4176484 4182004 
3965.300 4188762 4195219 4200170 4202813 4203616 4203148 4202679 4202780 
3969.157 4204118 4206360 4209438 4213318 4218505 4226133 4237007 4251428 
3973.015 4268493 4286562 4303160 4316278 4324310 4327255 4326251 4322770 
3976.872 4318319 4314170 4310455 4307376 4304967 4303060 4302156 4302190 
3980.730 4303428 4305201 4307243 4308715 4309150 4308581 4307443 4305770 
3984.587 4304131 4302558 4300918 4299680 4299212 4300014 4303060 4308380 
3988.445 4315810 4324377 4332944 4340273 4346197 4350514 4353995 4357074 
3992.302 4359718 4361324 4361157 4358279 4352455 4343955 4334182 4323942 
3996.159 4314873 4307343 4301320 4296166 4291649 4286797 4281944 4277026 
4000.017 4272341 4268292 
##END=
