
##TITLE=Z357a_2_d
##JCAMP-DX=5.01  $$ Nicolet v. 1
##DATATYPE=INFRARED SPECTRUM
##ORIGIN=UniL
##OWNER=Nicolet
##LONGDATE=2011/09/22
##TIME=09:18:19
##SPECTROMETER/DATA SYSTEM=Nicolet iS5
##DATA PROCESSING=
Ratio against background
%Transmittance->Absorbance
Truncated
ElementMultiply or ElementDivide
##COMMENTS=
Number of sample scans: 32
Collection length: 51.21 sec
Sample gain: 2.0
Background collected on: Jeu Sep 22 09:10:47 2011 (GMT+02:00);
Number of background scans: 32
Background gain: 2.0
Sample spacing:  1.000
Number of scan points: 12415
Resolution points: 8192
Number of FFT points: 65536
Apodization: N-B fort;
Phase correction: Mertz;
Laser frequency: 15798.0 cm-1
Number of rejected sample scans: 0
Number of rejected background scans: 0
Bench serial number: ASB1000141;
##RESOLUTION=4.000
##XUNITS=1/CM
##YUNITS=ABSORBANCE
##FIRSTX=649.893372
##LASTX=4000.122314
##FIRSTY=0.103280
##MAXX=4000.122314
##MINX=649.893372
##MAXY=0.298260
##MINY=-0.003495
##XFACTOR=1.000000
##YFACTOR=1.000000E-009
##NPOINTS=6950
##DELTAX=0.482117
##ZPD=6100
##XYDATA=(X++(Y..Y))
649.893 103280136 102780480 102328784 101950880 101651232 101416512 
652.786 101228232 101079464 100982840 100971040 101079720 101333120 
655.679 101733224 102259008 102878984 103567544 104317992 105142840 
658.571 106064336 107098952 108249448 109506464 110857456 112303152 
661.464 113862360 115566560 117449864 119529128 121799808 124239680 
664.357 126825720 129545304 132383016 135304192 138205728 140861232 
667.250 142947168 144124848 144212448 143293264 141650416 139602768 
670.142 137363376 135029424 132611304 130088088 127455816 124750352 
673.035 122036944 119398168 116898480 114569352 112414184 110420320 
675.928 108575136 106874240 105319184 103908592 102627736 101448280 
678.820 100332832 99244936 98162208 97079320 96004864 94952232 93930984 
682.195 92941680 91977672 91031488 90102296 89197376 88332184 87522088 
685.570 86776328 86094680 85467968 84884032 84330816 83801240 83292784 
688.945 82803000 82326744 81853496 81368448 80858160 80313784 79734576 
692.320 79127440 78503568 77874232 77248472 76633136 76036120 75467632 
695.694 74943240 74480944 74096560 73800432 73593280 73467776 73410328 
699.069 73407968 73452424 73542336 73681416 73874816 74124184 74424032 
702.444 74762224 75121800 75487376 75848104 76199248 76540960 76875744 
705.819 77205128 77528344 77844544 78153520 78458864 78769112 79096472 
709.194 79455072 79862752 80340568 80914200 81616600 82481440 83534888 
712.569 84783968 86204168 87731000 89258704 90665128 91825896 92642304 
715.943 93068672 93114656 92846920 92366296 91802160 91291816 90958480 
719.318 90918768 91263888 92047784 93277392 94892824 96763752 98678824 
722.693 100384312 101625312 102180816 101932488 100886432 99179984 97039960 
726.068 94740936 92549384 90652512 89155840 88076024 87366920 86948616 
729.443 86737696 86670544 86701080 86800128 86947728 87123680 87307968 
732.817 87484680 87644512 87788584 87925568 88067784 88223776 88396384 
736.192 88582232 88776336 88974624 89177232 89386904 89606568 89836048 
739.567 90071672 90307192 90537400 90761896 90984624 91212872 91452528 
742.942 91705768 91969896 92239824 92511040 92782584 93057344 93339048 
746.317 93627848 93917160 94193872 94442384 94650160 94812856 94935784 
749.692 95031576 95115040 95196560 95279528 95362272 95440440 95512520 
753.066 95581264 95652080 95731424 95821512 95920016 96021232 96119408 
756.441 96213184 96306360 96406880 96523184 96661496 96824080 97010048 
759.816 97218312 97449560 97706168 97991360 98305536 98645272 99003160 
763.191 99372960 99752800 100151992 100591688 101107904 101748048 102561856 
766.566 103599048 104891928 106440880 108196608 110051792 111848608 
769.458 113385704 114476744 114996088 114922048 114361008 113530016 
772.351 112713072 112155304 112005704 112256808 112749704 113204680 
775.244 113303848 112805336 111587240 109692576 107289880 104627128 
778.136 101946360 99417704 97130784 95085352 93225240 91468760 89745272 
781.511 88012720 86258520 84496088 82753528 81066408 79468088 77988808 
784.886 76654872 75484896 74491520 73680824 73053272 72605872 72335848 
788.261 72242552 72328880 72601016 73066480 73733552 74610608 75707304 
791.636 77037344 78619496 80477024 82636000 85116352 87925936 91050288 
795.010 94449296 98053520 101762208 105459992 109019488 112317224 115263320 
798.385 117813904 119994760 121900352 123695424 125581400 127739448 
801.278 130298616 133270008 136522752 139756384 142544416 144416816 
804.171 144914128 143738320 140819840 136353232 130748096 124539192 
807.063 118282568 112390352 107092760 102410864 98199888 94222312 90239800 
810.438 86103640 81775488 77332792 72916904 68694664 64803288 61320192 
813.813 58271232 55636552 53373920 51433092 49769720 48347816 47135952 
817.188 46108300 45242232 44519088 43926208 43455780 43103152 42863580 
820.563 42729824 42691840 42739844 42865776 43067584 43348052 43714804 
823.938 44176380 44739812 45409024 46183912 47059992 48025760 49061488 
827.312 50137960 51214008 52244412 53188012 54017296 54732084 55365088 
830.687 55986052 56688500 57584344 58789828 60397504 62464744 64985848 
834.062 67878512 70960800 73953816 76528352 78313280 78985568 78347888 
837.437 76360400 73170856 69068904 64450584 59711500 55184720 51122232 
840.812 47654504 44815408 42567128 40832756 39520936 38541428 37820924 
844.186 37297512 36920736 36654700 36472748 36358852 36305860 36310252 
847.561 36368580 36474584 36618072 36788544 36978856 37187264 37418628 
850.936 37680764 37981636 38324988 38709616 39131600 39587316 40076648 
854.311 40604112 41176944 41803508 42491152 43245292 44072256 44982040 
857.686 45988940 47114276 48383888 49824568 51466624 53342112 55484044 
861.060 57928828 60705888 63826084 67261528 70930720 74688864 78316624 
864.435 81560064 84156184 85867288 86543904 86140488 84733472 82499272 
867.810 79697680 76631192 73578208 70789632 68452312 66674576 65506676 
871.185 64943448 64943292 65434864 66328184 67522136 68893432 70309344 
874.560 71633832 72727024 73475744 73804792 73688128 73154936 72282344 
877.935 71184024 69978688 68779280 67673088 66705712 65883488 65176264 
881.309 64533264 63893980 63207576 62447528 61615488 60741100 59870748 
884.684 59059416 58353392 57782172 57358052 57078220 56932648 56911684 
888.059 57011944 57236848 57594292 58090148 58726440 59497440 60392512 
891.434 61399532 62507712 63711264 65008672 66400336 67887496 69468224 
894.809 71136096 72878688 74672464 76479000 78243376 79885608 81310872 
898.183 82420144 83118048 83339992 83061240 82304192 81132976 79644656 
901.558 77957928 76187688 74443112 72817792 71378704 70174576 69234144 
904.933 68568856 68179432 68059192 68198504 68587360 69217632 70083920 
908.308 71182664 72512600 74072784 75863808 77887320 80144712 82635120 
911.683 85351888 88277976 91381808 94621152 97945856 101306136 104668528 
915.058 108021128 111381648 114792808 118318856 122031672 125990928 
917.950 130232472 134744336 139455520 144211568 148780112 152872896 
920.843 156150736 158307296 159128880 158548768 156695520 153892304 
923.736 150645744 147529888 145144144 144032784 144563920 146915472 
926.628 151014608 156556928 162994128 169597712 175607264 180252832 
929.521 182922096 183258640 181157120 176763696 170391552 162467696 
932.414 153440736 143737216 133774432 123912176 114462128 105698296 97818208 
935.789 90960080 85203864 80569992 77042960 74582632 73137840 72647384 
939.163 73031312 74186088 75955320 78125632 80448592 82630944 84389920 
942.538 85500816 85809272 85271480 83947656 81992096 79611624 77027088 
945.913 74453968 72054800 69939064 68164032 66738592 65641000 64831452 
949.288 64267480 63906804 63711808 63651108 63695496 63818328 63997672 
952.663 64215428 64460540 64728828 65021292 65340912 65689912 66068008 
956.037 66472576 66899972 67347680 67814872 68302912 68812712 69343936 
959.412 69893912 70458144 71033296 71617960 72214264 72826376 73458712 
962.787 74113456 74789312 75482728 76189544 76907624 77637360 78382096 
966.162 79145048 79928192 80730608 81549632 82382576 83229128 84092080 
969.537 84976416 85887192 86826992 87795280 88789464 89806584 90845744 
972.912 91909368 93002176 94128848 95291864 96490856 97723968 98989920 
976.286 100290424 101630752 103018368 104460456 105961728 107523840 
979.179 109147360 110834920 112594104 114438792 116385688 118452192 
982.072 120651352 122989232 125464336 128067312 130781624 133579656 
984.964 136417136 139233600 141943904 144443488 146627680 148394432 
987.857 149668288 150413056 150635056 150383536 149740000 148818480 
990.750 147745408 146647968 145653968 144867888 144367008 144200688 
993.643 144384928 144910944 145753328 146882336 148269360 149891664 
996.535 151733664 153780880 156018016 158428880 160995152 163699856 
999.428 166528736 169466128 172489952 175567680 178647552 181664784 
1002.321 184550784 187238528 189681744 191859104 193778000 195469760 
1005.213 196986032 198396144 199775824 201207776 202776208 204551552 
1008.106 206588048 208914880 211533792 214423248 217546848 220866608 
1010.999 224344432 227946944 231643200 235394992 239158288 242886432 
1013.891 246533392 250065648 253463024 256712080 259794864 262673440 
1016.784 265278720 267518672 269288384 270491040 271068576 271012960 
1019.677 270377600 269266336 267834608 266272992 264775280 263543584 
1022.570 262755968 262541504 262982912 264099392 265856720 268174416 
1025.462 270948672 274069920 277422368 280896352 284379968 287743808 
1028.355 290853664 293569536 295756096 297309472 298156864 298259680 
1031.249 297607872 296208448 294081632 291259392 287791904 283749728 
1034.142 279214368 274276768 269019168 263505248 257785760 251900816 
1037.035 245890432 239807824 233717680 227692592 221812736 216150304 
1039.928 210769440 205727376 201064320 196801296 192928560 189395376 
1042.821 186099312 182885712 179579344 175993376 171973792 167438912 
1045.714 162386544 156903456 151136784 145282592 139541664 134087664 
1048.607 129067808 124577856 120665528 117340976 114581472 112343920 
1051.500 110571936 109208880 108201024 107499320 107064400 106859112 
1054.393 106844032 106975584 107198224 107444952 107646344 107728848 
1057.286 107626568 107290304 106687640 105810520 104675648 103327424 
1060.179 101834584 100282872 98776024 97416720 96297968 95501248 95081968 
1063.554 95072112 95479944 96292296 97474984 98972272 100713384 102605664 
1066.930 104539104 106403544 108086824 109492776 110556208 111238960 
1069.823 111533992 111456856 111039344 110319368 109333952 108119120 
1072.716 106705480 105119368 103387152 101536976 99603032 97632272 95680616 
1076.091 93815128 92110536 90635568 89451504 88604864 88119656 87999576 
1079.466 88225808 88760432 89544024 90497488 91530976 92537824 93412056 
1082.842 94064360 94429616 94487560 94266112 93844528 93337528 92878848 
1086.217 92613600 92666704 93138016 94094192 95558472 97511312 99887560 
1089.592 102588336 105477024 108394272 111186560 113706528 115837168 
1092.485 117505280 118674352 119344608 119540736 119305800 118690592 
1095.378 117748288 116537800 115120072 113558544 111925352 110291520 
1098.271 108723904 107278512 105983976 104834648 103781336 102740136 
1101.164 101595544 100220512 98510976 96397072 93867064 90968408 87805376 
1104.540 84519472 81259008 78175416 75394704 73006112 71069472 69609848 
1107.915 68625856 68097528 67992728 68272592 68890440 69798688 70944416 
1111.290 72266688 73701600 75174744 76602576 77903888 78997384 79813176 
1114.665 80305016 80449272 80249248 79729480 78932880 77912056 76720936 
1118.041 75415392 74044448 72647696 71257528 69894032 68568896 67287016 
1121.416 66050684 64862036 63726344 62651604 61646996 60720408 59874664 
1124.791 59107060 58410584 57777596 57204108 56694160 56260468 55924316 
1128.166 55711208 55643560 55737800 55998304 56416492 56969292 57622028 
1131.542 58331296 59044500 59709448 60278448 60713320 60996040 61130624 
1134.917 61145232 61085044 61007520 60972400 61027308 61204856 61515304 
1138.292 61945800 62461076 63007868 63524520 63941656 64193688 64227992 
1141.667 64003928 63500016 62712356 61651956 60341608 58812360 57103844 
1145.042 55258280 53321508 51342016 49363932 47428336 45570100 43813640 
1148.418 42175528 40664176 39281808 38027024 36897076 35889200 35000512 
1151.793 34227660 33566536 33011828 32557852 32199792 31934206 31759068 
1155.168 31673666 31677336 31768874 31947222 32211140 32560852 32998386 
1158.543 33527054 34150844 34872884 35694008 36613172 37626848 38729212 
1161.919 39912396 41164016 42465908 43794252 45116636 46395940 47594492 
1165.294 48673408 49598760 50343512 50885876 51213040 51320688 51214008 
1168.669 50907256 50423364 49792652 49047132 48219948 47343156 46443168 
1172.044 45544820 44670324 43838784 43069452 42380048 41785012 41296852 
1175.420 40923908 40671672 40543720 40543356 40674112 40940984 41349696 
1178.795 41906072 42616212 43486248 44523016 45734960 47131152 48721148 
1182.170 50514512 52518196 54737048 57172664 59821880 62673040 65700092 
1185.545 68860968 72086288 75280848 78334160 81115960 83498464 85371896 
1188.921 86646464 87270464 87231816 86559792 85318904 83601080 81521008 
1192.296 79192888 76728408 74229992 71777576 69435288 67249376 65247224 
1195.671 63443108 61838852 60427316 59193552 58117456 57175912 56341640 
1199.046 55585256 54878048 54188392 53486900 52747552 51948400 51076652 
1202.422 50129780 49117840 48061104 46988324 45933432 44927468 43996896 
1205.797 43160564 42427544 41799788 41273712 40843164 40500508 40237760 
1209.172 40047212 39920496 39849200 39826792 39849056 39915704 40030208 
1212.547 40199264 40430932 40732408 41109628 41566040 42102692 42718200 
1215.923 43408684 44167100 44982148 45840552 46726748 47625700 48525920 
1219.298 49419844 50303632 51176992 52041320 52899624 53756176 54619568 
1222.673 55502152 56420152 57393672 58441664 59578876 60813508 62144940 
1226.048 63563644 65051308 66583916 68131048 69656056 71122160 72490904 
1229.424 73727704 74807928 75717992 76458416 77042720 77499072 77868368 
1232.799 78200920 78561568 79024608 79666824 80571864 81817208 83468144 
1236.174 85579856 88189232 91317736 94972440 99147344 103822320 108957920 
1239.549 114497448 120360288 126440496 132624120 138783760 144788928 
1242.442 150520480 155859216 160692512 164921504 168455088 171220752 
1245.335 173168576 174268496 174510480 173901216 172463824 170237504 
1248.229 167278256 163659568 159460816 154757760 149615216 144076512 
1251.122 138170096 131919328 125355944 118533720 111538280 104476128 
1254.015 97477928 90682640 84213384 78181920 72669944 67721216 63348480 
1257.390 59530804 56223804 53363320 50876152 48688936 46726416 44923792 
1260.765 43228128 41598056 40008956 38449940 36921060 35430084 33988172 
1264.140 32607246 31297032 30065822 28919678 27862714 26897138 26022034 
1267.516 25233872 24525452 23888302 23314520 22798378 22337470 21932146 
1270.891 21584446 21296524 21069136 20903262 20800326 20763620 20798796 
1274.266 20912092 21108440 21388682 21747166 22170378 22636380 23117732 
1277.641 23580274 23986334 24300362 24490254 24534076 24425442 24173498 
1281.017 23802612 23345112 22837106 22309286 21782420 21268130 20770260 
1284.392 20290076 19830642 19399274 19006650 18665158 18385040 18173128 
1287.767 18032360 17964150 17969988 18052944 18216526 18463826 18794780 
1291.142 19205464 19687222 20228108 20813638 21425058 22039988 22633030 
1294.518 23174278 23636004 23997854 24250080 24398838 24464594 24480124 
1297.893 24481454 24504592 24581796 24736524 24985706 25338742 25795604 
1301.268 26344684 26958938 27598708 28209648 28731698 29111106 29303186 
1304.643 29282592 29045600 28607886 28000698 27264646 26447816 25597266 
1308.019 24756658 23965360 23251630 22632890 22114836 21693730 21359690 
1311.394 21101482 20910700 20782772 20716458 20711594 20766610 20878124 
1314.769 21041764 21253516 21511672 21816668 22169262 22568350 23009274 
1318.144 23484188 23984198 24502418 25035616 25584332 26150036 26731492 
1321.520 27322050 27907760 28468188 28981556 29426736 29787980 30058328 
1324.895 30242302 30355850 30425892 30490114 30591816 30771036 31061502 
1328.270 31479820 32022550 32665614 33371452 34098764 34809448 35479700 
1331.645 36100788 36677956 37224804 37758140 38294048 38844568 39419076 
1335.021 40023960 40662612 41335372 42037604 42760756 43492072 44217100 
1338.396 44922836 45598328 46235548 46829152 47375748 47873460 48322668 
1341.771 48726820 49092280 49427452 49740892 50038976 50324020 50594616 
1345.146 50847396 51078852 51287124 51471588 51629112 51749476 51813084 
1348.521 51788260 51634856 51315724 50800944 50079688 49164256 48092192 
1351.897 46920836 45718064 44561308 43521924 42660148 42023552 41637148 
1355.272 41502456 41595284 41871192 42269816 42723028 43170888 43563420 
1358.647 43866424 44064296 44156500 44157384 44093084 44004780 43945164 
1362.022 43971084 44141352 44499044 45060248 45809920 46701952 47669516 
1365.398 48627636 49490168 50173888 50600872 50715552 50488496 49924548 
1368.773 49061600 47965960 46720364 45403064 44085200 42821528 41647216 
1372.148 40588428 39666228 38901240 38316952 37934156 37763632 37800284 
1375.523 38022720 38400888 38903268 39508704 40210276 41015376 41942964 
1378.899 43020868 44285232 45776228 47539112 49615808 52027236 54752456 
1382.274 57703608 60728104 63598088 66042200 67801896 68637656 68386720 
1385.649 66994952 64547412 61277684 57525444 53694156 50130708 47063388 
1389.024 44594276 42709352 41328336 40341912 39646808 39152884 38785364 
1392.400 38488024 38214656 37930072 37614276 37262168 36884016 36499236 
1395.775 36127868 35783120 35468016 35178468 34908360 34655936 34427828 
1399.150 34239532 34110444 34059840 34099872 34234296 34459500 34767380 
1402.525 35147788 35589916 36085128 36626364 37208020 37825372 38473504 
1405.901 39147412 39842732 40557104 41291712 42050600 42839924 43664680 
1409.276 44527424 45426720 46358444 47317700 48299892 49299532 50307056 
1412.651 51303496 52260448 53142288 53913216 54551828 55058024 55458368 
1416.026 55798156 56137112 56536944 57048632 57707276 58523512 59479732 
1419.402 60532396 61623280 62693900 63693308 64586708 65358208 66010648 
1422.777 66571280 67089260 67632816 68268208 69042096 69969424 71031696 
1426.152 72189880 73398832 74624616 75844824 77048768 78233928 79401880 
1429.527 80559816 81722168 82917480 84186272 85570736 87108776 88820880 
1432.903 90709792 92764168 94972768 97336328 99869288 102598280 105544784 
1436.278 108707856 112047472 115496864 118987648 122464456 125886216 
1439.171 129205376 132357088 135233264 137685088 139555376 140681072 
1442.064 140929520 140222384 138534464 135903808 132425320 128256960 
1444.957 123597208 118655632 113654704 108790088 104226112 100100792 
1447.850 96504520 93473560 90981568 88953880 87289296 85892248 84707096 
1451.225 83727344 82992848 82560424 82477960 82752528 83345408 84170864 
1454.601 85114376 86058920 86887824 87522536 87949144 88238880 88521824 
1457.976 88931352 89574808 90507320 91750584 93308160 95168592 97303984 
1461.351 99658792 102155704 104679360 107074736 109174888 110809168 
1464.244 111856280 112288648 112189576 111725512 111076576 110403992 
1467.137 109813128 109355176 109047688 108880680 108822392 108810432 
1470.030 108749264 108509200 107932248 106883008 105298152 103234616 
1472.923 100861192 98401744 96056656 93945544 92121064 90598096 89382424 
1476.299 88490136 87940864 87739144 87862248 88255360 88846744 89557416 
1479.674 90324568 91113800 91919328 92763592 93684824 94731208 95950232 
1483.049 97390600 99110000 101172600 103647336 106592048 110031000 113926448 
1486.424 118151160 122498808 126664520 130271600 132933024 134264160 
1489.317 133971808 131934600 128244456 123209488 117260368 110861776 
1492.210 104385232 98061328 92017192 86288144 80877472 75811096 71149248 
1495.586 66994876 63470260 60671140 58633780 57323948 56664640 56558568 
1498.961 56915536 57666332 58754092 60129400 61746256 63552252 65488756 
1502.336 67496320 69494824 71384952 73038960 74267224 74827208 74443776 
1505.711 72879400 70070336 66223584 61780364 57211744 52847044 48819540 
1509.087 45122996 41702940 38515612 35544496 32807526 30337444 28157568 
1512.462 26275650 24678090 23337702 22223244 21304876 20555200 19944414 
1515.837 19441302 19018178 18656060 18352550 18119442 17972958 17921332 
1519.212 17957452 18055984 18183426 18309242 18424034 18544906 18708706 
1522.588 18949088 19278024 19686250 20151120 20651580 21175682 21726648 
1525.963 22319368 22972104 23696292 24490814 25345626 26248828 27194478 
1529.338 28185214 29232050 30349204 31548512 32836970 34213752 35669364 
1532.713 37187948 38747072 40322936 41892828 43441752 44960320 46442800 
1536.089 47879340 49255328 50554264 51750036 52813924 53714816 54420020 
1539.464 54898804 55129080 55110348 54866804 54444244 53896036 53261796 
1542.839 52557196 51771348 50879764 49863256 48728896 47515824 46287888 
1546.214 45106600 44003680 42976308 41990520 41003468 39984216 38934908 
1549.590 37891060 36910676 36043980 35312508 34705892 34192528 33739468 
1552.965 33327516 32960244 32657932 32444190 32328024 32295506 32309466 
1556.340 32318994 32259174 32054548 31631396 30936988 29982738 28863656 
1559.715 27726046 26694986 25829150 25127762 24555638 24065932 23612740 
1563.091 23158656 22681830 22180840 21674540 21194470 20772622 20424910 
1566.466 20147092 19916558 19703344 19478900 19226346 18945732 18652808 
1569.841 18371664 18123864 17922574 17771946 17670510 17614780 17599702 
1573.216 17617092 17652290 17684004 17688386 17645180 17550362 17421904 
1576.592 17294722 17202428 17163336 17175988 17226732 17298478 17378792 
1579.967 17463362 17554986 17659122 17779920 17917050 18065658 18219566 
1583.342 18373288 18523918 18669654 18806614 18926626 19017796 19067060 
1586.717 19065676 19014370 18924964 18818794 18721922 18661594 18658654 
1590.093 18728322 18879282 19114494 19429662 19810700 20232900 20657174 
1593.468 21035120 21320224 21472192 21469162 21312462 21025314 20646784 
1596.843 20220228 19788854 19387182 19040610 18769178 18587442 18505280 
1600.218 18527444 18652808 18874194 19181774 19566100 20019494 20535120 
1603.594 21104232 21710974 22329656 22927322 23463202 23895442 24189156 
1606.969 24316902 24265322 24034658 23637754 23095508 22433304 21681714 
1610.344 20873812 20045830 19237464 18482600 17805534 17217112 16713465 
1613.719 16279159 15892336 15530477 15172798 14805129 14425062 14042554 
1617.094 13679157 13360378 13107907 12934189 12839781 12816097 12847153 
1620.470 12914733 12999701 13088783 13177099 13269224 13376574 13510782 
1623.845 13678712 13879855 14108850 14359677 14629326 14917249 15222245 
1627.220 15540265 15861541 16172396 16461447 16723657 16963630 17192914 
1630.595 17425488 17671234 17932036 18201114 18464896 18707150 18909528 
1633.971 19055706 19131946 19130076 19050234 18905098 18716870 18509844 
1637.346 18303850 18108456 17922644 17737360 17538702 17314720 17058528 
1640.721 16773729 16472150 16171673 15887970 15628839 15392108 15165833 
1644.096 14932577 14672919 14371836 14023698 13634467 13222288 12813946 
1647.472 12438891 12121293 11876726 11711704 11623516 11601055 11623822 
1650.847 11661328 11667591 11586149 11370181 11011764 10566180 10124713 
1654.222 9762680 9504231 9332423 9215170 9123121 9037623 8949942 8859912 
1658.080 8770848 8686365 8606866 8529308 8448420 8359169 8257239 8140275 
1661.937 8007379 7859610 7700593 7536981 7378285 7235379 7116433 7025974 
1665.794 6962604 6918735 6882074 6838044 6773422 6679367 6554048 6403444 
1669.652 6239076 6073965 5919529 5784423 5673394 5586927 5520981 5466519 
1673.509 5408643 5329306 5214034 5058061 4872923 4682171 4512193 4380168 
1677.367 4289005 4230549 4190936 4158686 4128346 4103593 4093726 4108611 
1681.224 4151294 4214155 4276189 4308146 4279033 4169124 3985870 3763922 
1685.082 3549169 3373623 3248252 3166739 3115976 3082839 3057611 3033687 
1688.939 3006395 2972498 2931031 2884165 2839072 2805355 2793850 2811124 
1692.796 2856615 2921191 2988478 3037625 3050504 3021142 2961756 2899375 
1696.654 2860751 2860384 2894972 2947044 2988912 2989412 2925794 2793583 
1700.511 2615675 2431443 2277465 2170858 2109490 2081224 2070237 2061614 
1704.369 2042006 2003158 1942480 1863873 1775733 1687843 1608551 1542009 
1708.226 1488842 1446753 1412844 1385254 1363948 1351118 1349689 1361987 
1712.083 1388047 1425842 1471687 1522025 1574098 1626942 1679427 1727993 
1715.941 1765552 1781522 1765552 1712758 1629570 1532599 1441400 1372923 
1719.798 1335597 1329049 1347396 1382529 1427105 1475643 1524984 1573932 
1723.656 1622053 1669216 1715918 1763357 1813995 1870262 1933693 2003258 
1727.513 2074099 2138558 2188874 2220645 2234466 2236931 2236864 2241560 
1731.371 2251785 2258679 2243825 2185377 2064777 1880645 1654215 1423881 
1735.228 1226131 1080120 987289 936283 911578 897865 883522 861245 829307 
1739.568 790667 750902 717115 694580 685786 691062 708220 733411 762685 
1743.907 792858 823033 854538 889797 931069 978256 1028537 1076366 1114799 
1748.247 1138153 1142571 1126891 1091646 1038402 969722 889266 803381 720268 
1752.586 648320 594732 562051 548316 546458 546757 538729 515540 476629 
1756.926 427871 379550 340618 315849 303978 298772 291511 273607 240089 
1761.266 189103 123939 50565 -23027 -89452 -142651 -178423 -195148 -194320 
1765.605 -180741 -161763 -145765 -139240 -143811 -155039 -164346 -163717 
1769.463 -149607 -125129 -99920 -87233 -98827 -138975 -201971 -274296 
1773.320 -341245 -392163 -424305 -440856 -446880 -446086 -439698 -426225 
1777.177 -404576 -375378 -342603 -311911 -289925 -280422 -283203 -294528 
1781.035 -308235 -319625 -325850 -327803 -327803 -328631 -331876 -337438 
1784.892 -344291 -350979 -356508 -359885 -359355 -352436 -335518 -305818 
1788.750 -262772 -209224 -151661 -100053 -64871 -53938 -70105 -109858 
1792.607 -165340 -226147 -284296 -335253 -377365 -411296 -437546 -456843 
1796.465 -469255 -476107 -478787 -479449 -480376 -483090 -487790 -494707 
1800.322 -503411 -513803 -526048 -540311 -555368 -569134 -579095 -582966 
1804.179 -580087 -571186 -558777 -545375 -532568 -519793 -505761 -488386 
1808.037 -466640 -441750 -417023 -396764 -384714 -382364 -389051 -402094 
1811.894 -418115 -434137 -448469 -459756 -467236 -469321 -464290 -450587 
1815.752 -427980 -397592 -361838 -324062 -286779 -250851 -216212 -181635 
1819.609 -145964 -108599 -69310 -28063 14976 59711 105080 148731 186949 
1823.949 215656 232464 238531 239393 242907 256931 285842 328515 378622 
1828.288 426279 462366 480643 481439 470194 456528 448800 451785 466479 
1832.628 491224 523601 562549 608137 661262 721994 789306 860780 933859 
1836.968 1007182 1081315 1159116 1243842 1339253 1447384 1568910 1703543 
1840.825 1850330 2007619 2172656 2341255 2507353 2663913 2805955 2931632 
1844.682 3044398 3150418 3255162 3361067 3465295 3560961 3639274 3693139 
1848.540 3718837 3716932 3691267 3646825 3586986 3512658 3422412 3314689 
1852.397 3190036 3051238 2903712 2752834 2602775 2455167 2309609 2164931 
1856.255 2021666 1881943 1748985 1625679 1512815 1408656 1309640 1212508 
1860.112 1115862 1020367 929044 844844 769556 702910 643807 591447 546757 
1864.452 511791 489367 480477 482666 490594 496465 493148 477093 448899 
1868.791 413510 377162 345725 321452 304277 292804 285808 282426 282393 
1873.131 284648 286505 284151 274071 254079 224905 189435 151979 115454 
1877.470 80258 44666 5434 -39460 -89452 -141624 -191472 -235651 -273567 
1881.810 -307639 -342040 -380477 -424372 -471241 -517311 -557552 -588922 
1885.667 -611290 -626444 -637362 -646030 -654103 -661977 -670347 -680735 
1889.525 -694331 -711335 -729230 -743322 -748250 -739749 -717223 -685234 
1893.382 -651688 -624591 -609900 -608246 -614929 -622771 -624491 -616683 
1897.240 -600205 -578929 -556758 -536241 -516649 -495468 -470314 -440558 
1901.097 -407986 -376636 -349622 -328830 -313533 -301779 -291382 -282077 
1904.955 -274627 -270355 -270256 -273799 -278534 -282375 -284230 -285157 
1908.812 -288336 -296150 -309759 -327505 -346013 -361110 -370744 -375080 
1912.669 -375908 -375246 -372995 -367334 -354853 -333962 -306282 -278038 
1916.527 -257905 -254428 -271249 -305719 -348860 -390044 -420664 -437877 
1920.384 -444332 -445887 -448469 -455354 -466012 -477629 -487194 -493714 
1924.242 -498480 -504073 -512182 -523268 -535513 -546996 -557288 -567811 
1928.099 -581312 -600139 -623367 -646890 -664756 -671008 -663466 -644971 
1931.957 -622076 -602455 -591106 -589021 -592430 -596731 -598319 -596169 
1935.814 -593058 -591966 -594084 -597393 -597095 -588194 -568704 -541006 
1939.671 -510130 -482494 -461907 -448171 -437778 -425961 -410767 -393354 
1943.529 -378027 -368724 -366142 -366374 -362269 -346576 -316050 -272375 
1947.386 -222835 -175475 -135993 -105485 -80640 -56788 -30482 -1822 26408 
1951.726 49869 66637 78236 87946 99148 112073 123143 127584 120425 101832 
1956.548 77142 54774 42513 43474 53382 64218 65875 53415 28429 -2385 -29985 
1961.852 -49068 -59570 -65799 -73451 -84682 -97933 -106380 -103531 -86305 
1966.191 -56224 -20078 15440 45694 70581 93315 114824 133815 143759 137594 
1971.013 111908 69587 21703 -17196 -34955 -26870 3247 45661 92254 140544 
1975.835 195700 267739 362339 476098 594101 694315 757806 774768 750205 
1980.174 697567 635611 578474 530999 489101 445118 391588 327156 256002 
1984.514 185888 124303 74922 37443 8979 -12126 -25114 -26241 -12491 16567 
1989.336 56828 101368 141836 173590 196197 213037 228486 245095 261373 
1993.675 273508 278116 273806 263628 252952 247747 250432 260345 272778 
1998.015 283686 291478 297579 306200 320623 340851 362273 377229 378555 
2002.354 362836 333091 296120 262136 239426 233127 243669 269231 306531 
2006.694 351827 401040 448070 485320 505090 502304 478122 440375 401040 
2011.034 374178 368805 387443 425052 471753 519023 561686 599244 635379 
2015.373 671582 706926 736630 755350 759499 751898 739817 732614 736763 
2019.713 754421 781008 809755 834420 853077 869611 889299 916227 950163 
2024.052 985894 1016382 1035711 1043018 1041590 1038435 1040062 1048997 
2027.910 1064475 1083906 1106029 1132240 1167123 1215266 1278169 1353146 
2031.767 1432823 1509290 1577523 1636787 1690604 1742730 1794564 1843409 
2035.625 1883840 1911528 1926371 1934891 1946906 1972402 2016040 2074332 
2039.482 2136161 2188974 2220611 2226406 2208656 2174721 2134063 2094108 
2043.340 2058452 2028124 2003491 1985383 1976862 1980290 1997965 2028823 
2047.197 2069771 2116183 2163899 2210354 2252851 2289656 2317803 2334359 
2051.054 2338157 2331361 2320568 2314072 2320834 2345186 2384531 2430576 
2054.912 2471062 2495855 2500154 2487024 2465564 2446904 2439706 2447370 
2058.769 2467563 2494389 2522083 2546779 2567243 2584276 2597675 2606409 
2062.627 2607809 2599775 2583176 2561944 2541880 2528248 2523783 2526216 
2066.484 2530548 2530348 2521650 2504587 2482459 2459333 2439040 2421813 
2070.342 2404921 2384997 2359910 2330295 2299815 2273401 2254516 2244058 
2074.199 2240095 2239029 2238163 2236797 2236331 2239029 2246922 2259745 
2078.056 2275466 2291588 2306311 2319402 2332094 2345685 2360877 2376668 
2081.914 2390661 2400490 2405721 2407220 2406920 2407153 2408586 2410452 
2085.771 2411451 2410252 2406920 2402855 2399590 2397524 2395226 2388462 
2089.629 2373303 2347951 2314172 2277432 2245757 2226639 2223842 2237164 
2093.486 2261777 2292021 2322666 2350749 2376468 2400990 2424779 2447004 
2097.344 2465664 2479226 2487358 2492723 2498855 2509252 2525649 2547079 
2101.201 2571276 2595542 2619009 2643177 2670813 2704653 2745165 2790382 
2105.058 2837071 2881764 2923359 2963023 3004326 3050471 3102694 3159930 
2108.916 3218776 3275927 3329347 3379066 3427054 3475615 3524783 3573389 
2112.773 3617823 3654711 3682512 3701827 3715094 3725722 3736449 3748080 
2116.631 3760112 3771809 3783374 3796209 3813457 3836889 3867410 3903984 
2120.488 3943772 3983362 4020716 4054995 4086903 4118077 4149019 4180666 
2124.345 4213051 4246911 4284254 4326786 4376419 4432651 4493344 4553677 
2128.203 4609162 4656985 4697411 4732950 4768190 4805879 4847324 4891219 
2132.060 4935386 4978453 5021154 5066341 5116862 5174331 5235865 5295932 
2135.918 5348728 5390124 5420620 5444576 5468432 5496987 5530444 5564407 
2139.775 5592465 5608475 5610556 5601225 5586927 5574005 5565111 5559272 
2143.633 5551653 5537323 5513631 5481585 5445113 5409515 5377276 5347856 
2147.490 5317432 5282046 5239655 5190896 5139460 5088332 5038987 4989010 
2151.347 4934381 4871315 4797872 4715934 4628853 4539279 4448652 4355166 
2155.205 4257718 4158686 4066233 3994330 3960457 3977276 4047838 4161597 
2159.062 4297036 4431179 4543498 4624299 4674099 4698751 4704679 4696540 
2162.920 4675539 4640675 4592151 4532516 4465457 4395330 4326050 4256715 
2166.777 4186219 4111888 4032320 3947951 3861460 3774283 3688393 3603858 
2170.635 3520775 3440246 3365275 3299932 3248853 3213602 3191505 3175918 
2174.492 3159296 3133798 3095453 3044732 2984542 2919423 2853613 2789181 
2178.349 2728793 2674948 2631643 2602908 2592142 2597342 2612609 2628543 
2182.207 2634676 2624342 2596242 2554511 2506986 2460666 2420247 2385697 
2186.064 2356013 2328996 2305545 2288224 2281529 2287691 2306377 2333426 
2189.922 2363175 2390594 2413917 2433709 2453801 2476127 2500954 2525116 
2193.779 2544246 2555178 2557278 2554245 2551878 2556145 2570576 2594675 
2197.636 2625209 2658079 2689017 2715723 2737562 2754835 2766806 2772941 
2201.494 2771907 2762837 2746665 2725659 2702353 2679248 2657545 2636776 
2205.351 2616875 2597909 2580976 2568310 2561544 2560544 2563744 2567977 
2209.209 2570110 2569243 2567010 2565910 2568910 2577409 2589509 2601575 
2213.066 2609242 2610342 2604409 2594842 2584909 2577676 2574009 2571843 
2216.924 2568777 2562577 2553512 2543546 2535781 2532114 2532848 2536547 
2220.781 2540913 2544013 2546679 2550412 2557944 2571276 2589642 2610142 
2224.638 2628442 2640110 2642077 2634243 2617542 2594342 2567343 2539213 
2228.496 2512185 2488324 2470129 2458933 2455634 2459033 2466597 2475761 
2232.353 2483792 2489890 2494422 2498688 2503187 2508352 2513018 2516584 
2236.211 2519617 2524749 2535681 2556811 2589975 2634143 2684116 2733461 
2240.068 2775942 2807823 2829067 2842774 2853113 2863753 2876360 2890903 
2243.926 2906780 2923893 2943307 2967026 2996852 3032219 3071426 3110136 
2247.783 3144110 3170177 3187667 3197447 3202053 3203288 3202053 3198481 
2251.640 3192607 3184863 3177486 3173882 3176619 3187467 3205658 3228590 
2255.498 3252358 3273591 3289782 3299965 3304039 3301735 3292654 3276261 
2259.355 3252525 3222214 3187967 3152621 3119681 3091548 3069591 3054341 
2263.213 3046133 3045065 3052506 3069157 3094585 3126556 3161532 3194576 
2267.070 3221180 3239206 3248319 3250422 3248653 3245615 3242944 3240774 
2270.927 3238638 3236134 3233397 3231060 3230026 3230994 3234065 3238738 
2274.785 3244580 3251357 3259402 3268950 3279767 3291085 3301367 3308880 
2278.642 3313120 3314121 3313454 3313253 3315390 3320799 3329280 3339864 
2282.500 3351518 3363438 3376127 3390052 3405247 3421243 3436472 3449397 
2286.357 3458548 3464092 3467332 3471039 3477987 3490412 3509584 3534972 
2290.215 3565438 3599214 3634162 3669012 3702596 3734344 3764022 3792365 
2294.072 3820142 3848790 3879545 3913312 3949657 3987475 4025163 4061383 
2297.929 4095398 4127510 4158854 4190970 4224426 4259391 4294694 4328928 
2301.787 4361090 4390644 4418158 4445071 4472822 4503086 4537404 4576881 
2305.644 4622926 4676913 4739649 4811474 4891353 4977313 5066709 5156861 
2309.502 5246161 5333700 5419916 5505276 5589914 5673293 5754204 5831200 
2313.359 5903642 5971797 6037207 6102627 6170846 6244589 6325538 6414742 
2317.217 6511700 6615845 6725130 6837337 6949843 7059987 7165274 7264522 
2321.074 7356210 7439491 7512741 7573562 7619049 7646836 7656042 7648185 
2324.931 7628322 7603741 7582295 7571472 7576294 7598278 7635471 7683561 
2328.789 7736986 7790315 7839367 7881845 7916329 7943156 7963100 7978321 
2332.646 7991787 8006772 8026887 8054869 8092203 8138486 8191899 8249911 
2336.504 8309519 8368897 8427034 8483422 8538229 8590813 8640293 8685215 
2340.361 8724192 8756445 8781430 8798911 8807770 8805403 8786231 8742684 
2344.219 8666623 8550732 8392881 8198281 7981223 7762992 7568910 7425503 
2348.076 7352908 7364298 7463727 7645757 7896860 8196525 8523226 8855313 
2351.933 9175302 9473176 9744517 9990158 10212292 10413567 10595140 10757904 
2355.791 10903196 11033618 11151635 11260062 11359638 11449439 11527282 
2359.166 11591254 11640873 11677666 11704488 11723720 11736485 11741898 
2362.541 11737984 11722563 11695672 11658809 11615518 11569203 11522144 
2365.917 11474342 11423891 11367801 11303726 11230479 11147828 11056015 
2369.292 10955829 10846969 10729476 10603356 10469704 10330155 10186851 
2372.667 10041866 9896182 9749633 9602220 9453704 9305578 9160243 9020606 
2376.524 8889706 8769562 8660877 8563135 8475922 8398826 8332012 8276387 
2380.382 8232723 8201116 8180858 8171100 8170560 8178326 8194363 8218371 
2384.239 8249978 8287836 8329378 8371566 8411494 8446697 8476597 8501229 
2388.097 8521198 8537453 8550361 8559688 8565770 8568744 8569657 8569555 
2391.954 8569454 8569690 8569860 8569150 8566818 8562966 8558640 8555565 
2395.812 8555092 8558843 8567021 8579424 8595882 8616397 8641847 8673283 
2399.669 8711684 8757189 8809089 8866372 8927856 8992968 9062422 9137198 
2403.526 9218689 9307541 9403827 9506703 9615363 9728896 9847237 9970255 
2407.384 10098090 10230034 10365241 10502324 10641079 10781374 10923991 
2410.759 11070053 11219768 11372427 11526057 11677734 11825037 11966158 
2414.134 12100101 12226554 12344964 12453928 12551118 12634309 12701515 
2417.510 12752524 12789103 12814492 12832204 12845480 12856026 12864115 
2420.885 12869405 12871317 12869985 12866470 12862886 12861179 12863399 
2424.260 12871350 12886505 12910568 12945250 12991815 13051734 13125221 
2427.635 13212143 13311485 13422536 13544965 13678712 13824302 13982327 
2431.010 14152629 14334232 14526188 14726901 14935766 15152280 15375939 
2434.386 15606823 15844291 16087560 16336164 16589968 16849774 17117012 
2437.761 17393414 17679758 17976410 18282320 18595810 18915792 19241102 
2441.136 19571610 19907748 20249944 20598454 20952634 21312254 21676908 
2444.511 22046784 22422174 22803196 23189378 23579050 23969596 24358218 
2447.887 24742172 25119760 25490050 25853166 26209338 26558896 26901898 
2451.262 27238326 27568026 27891226 28207596 28516836 28817800 29108804 
2454.637 29387452 29652302 29901374 30133612 30348354 30544072 30718864 
2458.012 30869818 30993208 31085454 31143796 31166684 31153976 31106668 
2461.388 31026054 30914502 30773882 30606714 30416188 30206318 29982062 
2464.763 29748698 29512268 29278800 29053996 28843968 28654356 28490514 
2468.138 28357112 28257522 28194090 28167078 28175314 28216718 28288996 
2471.513 28389372 28515916 28666814 28839790 29032846 29243002 29466734 
2474.889 29700870 29941096 30183550 30424432 30660082 30886716 31101614 
2478.264 31302090 31485986 31651210 31795360 31916306 32011852 32079696 
2481.639 32119546 32131892 32118618 32082372 32026618 31954106 31866916 
2485.014 31767766 31658624 31541780 31420722 31297710 31174942 31052890 
2488.390 30930548 30805146 30673558 30532838 30381222 30218004 30043592 
2491.765 29858460 29662730 29456096 29237296 29004934 28757578 28494440 
2495.140 28215128 27919740 27608876 27283096 26943460 26590880 26227004 
2498.515 25853448 25472096 25084758 24693244 24299136 23904684 23511922 
2501.891 23123464 22741846 22368900 22005686 21652494 21308704 20973566 
2505.266 20647098 20329866 20023726 19730632 19452600 19190398 18943966 
2508.641 18711820 18492142 18282942 18083032 17891844 17709336 17535354 
2512.016 17370066 17213044 17064178 16923840 16792430 16671492 16562015 
2515.392 16465265 16381681 16311599 16254632 16210262 16177760 16157057 
2518.767 16147291 16147738 16157366 16174665 16198877 16229179 16265020 
2522.142 16306370 16353020 16404219 16459141 16516753 16575819 16635409 
2525.517 16694974 16753789 16810750 16864518 16913264 16954604 16986544 
2528.893 17007354 17015798 17011146 16993124 16961908 16918050 16862624 
2532.268 16797974 16726481 16650971 16574064 16497582 16422629 16349409 
2535.643 16278127 16209161 16143715 16082780 16027667 15978679 15935265 
2539.018 15895806 15858483 15822263 15787007 15753953 15724750 15700942 
2542.394 15682908 15669407 15657727 15644742 15627671 15605174 15577012 
2545.769 15544798 15510595 15476944 15445253 15416861 15391833 15369794 
2549.144 15349885 15331349 15312918 15293972 15274580 15254949 15236006 
2552.519 15219053 15204779 15193592 15184877 15177500 15169676 15160617 
2555.895 15149467 15136464 15122226 15107404 15092138 15076152 15058520 
2559.270 15038419 15015129 14987964 14956960 14921810 14882272 14838179 
2562.645 14789359 14735985 14679362 14621101 14563637 14508921 14458699 
2566.020 14413621 14373514 14337999 14306082 14277627 14252769 14232157 
2569.396 14216819 14207575 14205246 14209937 14221133 14237943 14258658 
2572.771 14281599 14305535 14329643 14354129 14379850 14408586 14441880 
2576.146 14480384 14524030 14571141 14619697 14667504 14712814 14755044 
2579.521 14794672 14833001 14871608 14912516 14957338 15007720 15065107 
2582.896 15130357 15203783 15284533 15371030 15460394 15549949 15637392 
2586.272 15721383 15802091 15880479 15958088 16036158 16115172 16194819 
2589.647 16275031 16355395 16436461 16518887 16603393 16690154 16779066 
2593.022 16868756 16957464 17043812 17126386 17204632 17278376 17347858 
2596.397 17413728 17476744 17537840 17598424 17660020 17724108 17791692 
2599.773 17863362 17938734 18017648 18099680 18184944 18274338 18368862 
2603.148 18469046 18574714 18685358 18799106 18915032 19032232 19151024 
2606.523 19272516 19398164 19529152 19665796 19807824 19954094 20103608 
2609.898 20255498 20409246 20564268 20720248 20875830 21029834 21180276 
2613.274 21325514 21464672 21597226 21723024 21842452 21955810 22063412 
2616.649 22165358 22262166 22354004 22441258 22523958 22601928 22674850 
2620.024 22742160 22803652 22859842 22911638 22960400 23007878 23055184 
2623.399 23103230 23152224 23201960 23252224 23302880 23353924 23405500 
2626.775 23457780 23510558 23563972 23618198 23673582 23730586 23789976 
2630.150 23851964 23916624 23983146 24050452 24116962 24181310 24242688 
2633.525 24300432 24354434 24404936 24452570 24498038 24542142 24586074 
2636.900 24630538 24676652 24724810 24775074 24827276 24881200 24936820 
2640.276 24994234 25054044 25116564 25182008 25250306 25321248 25394314 
2643.651 25469320 25546308 25625700 25707742 25792862 25880598 25970568 
2647.026 26062246 26155492 26250658 26348626 26450034 26555726 26665354 
2650.401 26777936 26892134 27006430 27120052 27232858 27345764 27460038 
2653.777 27577276 27698356 27823958 27954226 28089094 28228104 28370978 
2657.152 28517226 28666214 28817306 28969546 29122374 29275290 29428544 
2660.527 29582314 29737094 29893174 30050552 30209054 30367932 30526548 
2663.902 30684724 30842034 30998618 31154974 31311278 31467710 31624518 
2667.278 31781458 31938344 32094788 32250326 32404772 32558136 32710910 
2670.653 32864024 33018980 33177170 33339750 33507474 33680276 33857660 
2674.028 34038268 34221140 34404804 34588368 34771072 34952496 35132444 
2677.403 35310820 35488004 35664548 35841376 36019680 36200756 36385512 
2680.779 36574964 36770120 36971968 37181596 37400392 37629308 37869332 
2684.154 38120808 38383368 38656192 38938136 39228240 39525580 39829768 
2687.529 40140748 40458244 40782596 41113456 41450800 41794100 42143144 
2690.904 42497368 42856340 43219744 43587596 43960120 44338068 44722476 
2694.280 45114796 45515936 45926320 46345576 46772652 47206464 47645812 
2697.655 48089900 48538556 48991604 49449064 49910496 50375216 50842256 
2701.030 51310916 51780944 52252072 52724544 53198384 53672860 54146764 
2704.405 54618180 55084768 55544404 55994644 56432792 56857216 57265424 
2707.781 57655700 58026712 58377800 58709220 59021420 59315236 59590960 
2711.156 59848576 60087468 60306848 60506492 60686532 60847776 60991312 
2714.531 61117768 61227284 61319160 61391632 61442816 61470792 61473960 
2717.906 61451480 61403460 61331068 61236368 61123148 60995924 60860316 
2721.281 60722732 60588884 60464332 60353220 60258616 60182604 60126508 
2724.657 60091540 60078412 60088040 60120764 60176708 60255764 60357596 
2728.032 60481740 60627972 60795636 60983384 61189976 61412888 61649628 
2731.407 61897228 62153576 62416964 62685980 62959760 63237660 63517964 
2734.782 63799256 64079428 64356736 64629456 64896352 65156280 65408320 
2738.158 65651448 65885148 66108980 66323548 66530116 66730744 66927844 
2741.533 67123752 67320520 67520160 67724160 67934224 68152208 68380016 
2744.908 68619224 68870792 69134824 69410176 69694768 69986200 70281024 
2748.283 70576048 70867520 71151160 71422792 71678136 71913080 72124584 
2751.659 72310640 72470464 72604616 72714640 72802632 72870696 72921096 
2755.034 72955032 72973304 72974984 72958488 72920856 72858744 72769016 
2758.409 72649152 72497480 72313224 72096344 71847392 71566704 71255272 
2761.784 70914456 70546152 70153576 69740480 69311016 68869360 68419648 
2765.160 67965376 67510760 67059988 66618016 66190244 65781816 65396920 
2768.535 65039076 64709828 64409920 64139492 63898436 63686824 63504584 
2771.910 63351392 63225896 63125992 63048788 62990784 62948728 62919812 
2775.285 62901272 62890744 62885308 62880708 62872440 62855012 62822812 
2778.661 62770740 62694864 62592552 62462488 62304968 62121576 61915228 
2782.036 61689844 61450524 61202148 60949944 60698536 60451576 60211496 
2785.411 59979684 59756176 59539808 59327992 59117688 58904108 58683388 
2788.786 58451596 58206216 57946468 57673256 57388872 57096696 56799888 
2792.162 56501508 56204160 55910256 55622164 55342544 55074652 54821920 
2795.537 54587748 54375104 54186212 54022620 53884896 53773128 53687336 
2798.912 53626560 53590272 53577528 53587012 53617300 53667124 53734616 
2802.287 53817980 53915168 54023784 54141660 54266816 54397188 54531316 
2805.663 54668084 54806356 54944940 55082436 55216668 55345064 55464656 
2809.038 55572188 55664724 55738816 55791824 55821288 55825244 55802716 
2812.413 55753436 55678096 55577876 55454680 55310592 55147624 54968364 
2815.788 54776396 54575912 54372400 54172888 53984348 53814420 53670424 
2819.164 53558112 53482624 53447288 53454596 53505224 53599044 53734652 
2822.539 53908792 54117452 54355316 54616152 54893352 55180356 55470304 
2825.914 55757048 56034492 56297132 56540492 56760692 56954896 57121416 
2829.289 57259372 57369020 57450896 57507136 57540460 57554456 57553548 
2832.665 57542620 57526388 57509064 57494504 57485500 57484632 57494348 
2836.040 57517044 57555480 57612452 57691120 57794436 57926064 58090528 
2839.415 58293740 58543004 58847456 59217820 59665388 60201900 60840188 
2842.790 61592616 62473164 63497216 64680368 66038652 67584544 69322904 
2846.166 71245432 73325624 75516432 77742728 79909784 81908784 83618992 
2849.541 84932296 85760136 86044176 85767328 84952240 83659488 81971768 
2852.916 79990400 77822984 75565528 73307736 71123368 69064584 67169808 
2856.291 65459476 63939124 62603264 61437280 60421832 59533916 58751248 
2859.667 58053184 57420412 56837312 56290416 55768580 55263436 54768956 
2863.042 54281268 53799152 53322928 52855164 52399712 51962552 51550716 
2866.417 51171960 50834804 50547192 50315164 50142644 50030532 49977000 
2869.792 49976776 50022616 50105644 50214724 50338752 50466164 50585648 
2873.167 50688516 50768728 50823404 50854172 50864900 50861584 50850488 
2876.543 50836928 50825268 50818080 50816928 50823072 50837896 50862404 
2879.918 50897944 50945072 51004316 51075496 51158352 51252676 51358348 
2883.293 51474980 51601532 51736560 51878308 52024288 52172668 52322412 
2886.668 52473212 52625976 52782272 52943864 53112932 53291128 53480492 
2890.044 53683284 53902300 54141360 54404812 54698260 55028724 55404196 
2893.419 55834364 56330248 56902468 57561268 58313448 59160368 60095496 
2896.794 61102820 62155872 63215972 64239284 65176300 65978364 66607400 
2900.169 67037292 67260984 67289728 67153296 66894256 66559464 66198304 
2903.545 65854916 65563852 65353660 65243832 65248072 65376468 65635920 
2906.920 66031516 66567732 67248368 68077872 69061600 70205384 71514704 
2910.295 72993208 74639568 76444984 78390592 80448624 82578736 84730248 
2913.670 86848448 88870040 90731960 92378056 93758336 94838200 95601328 
2917.046 96049424 96201072 96086096 95742240 95205096 94504576 93662832 
2920.421 92691232 91593984 90370624 89020496 87546608 85958992 84275048 
2923.796 82521032 80729896 78935936 77175208 75480440 73876736 72383248 
2927.171 71010704 69761832 68633120 67615944 66698836 65867872 65109468 
2930.547 64411536 63763372 63157336 62588648 62054108 61552792 61083864 
2933.922 60646640 60240420 59863824 59515260 59192944 58894244 58615844 
2937.297 58353772 58102796 57857804 57614344 57369812 57124288 56880936 
2940.672 56645424 56424720 56225808 56054240 55912892 55801508 55716180 
2944.048 55649884 55592636 55532124 55455544 55350784 55208272 55023760 
2947.423 54798876 54542136 54266924 53991140 53733528 53509796 53332220 
2950.798 53207560 53136296 53113980 53132664 53182392 53251760 53329936 
2954.173 53407080 53474456 53525240 53554700 53559536 53538732 53492708 
2957.549 53424016 53335708 53232396 53119632 53002256 52885104 52771944 
2960.924 52664952 52565576 52474036 52390888 52316468 52251736 52197628 
2964.299 52154848 52124028 52104600 52095632 52096232 52105684 52123764 
2967.674 52150924 52187504 52233876 52290156 52355528 52429620 52512176 
2971.050 52603684 52705576 52819240 52946184 53086980 53240748 53404608 
2974.425 53574116 53742900 53902716 54044312 54157948 54233440 54262460 
2977.800 54238956 54159864 54026336 53842888 53617712 53360284 53081628 
2981.175 52793012 52504548 52225428 51963264 51722752 51505648 51310132 
2984.551 51131068 50960092 50787276 50603516 50401112 50175672 49926668 
2987.926 49656448 49368684 49067164 48753880 48428004 48086124 47722544 
2991.301 47331852 46910392 46457772 45977704 45478188 44970056 44464352 
2994.676 43971048 43496648 43042816 42607256 42184332 41767320 41349512 
2998.052 40926128 40495268 40057348 39614536 39170400 38728596 38292420 
3001.427 37864848 37448172 37043948 36653364 36276572 35913456 35562976 
3004.802 35224428 34896696 34579432 34272768 33977352 33693916 33422836 
3008.177 33164188 32917134 32680116 32451402 32228876 32010924 31796250 
3011.552 31584430 31375420 31169568 30967802 30770858 30579338 30393482 
3014.928 30213244 30038302 29868364 29703494 29543476 29389224 29241088 
3018.303 29099484 28964234 28834548 28709078 28586546 28465748 28346114 
3021.678 28228034 28112354 28000732 27894866 27796616 27707540 27629462 
3025.053 27563824 27512246 27475888 27455344 27449838 27457744 27475534 
3028.429 27498514 27521248 27537662 27541652 27528202 27493114 27433672 
3031.804 27349220 27240866 27110952 26963240 26801972 26631568 26456090 
3035.179 26279170 26103694 25932086 25765928 25606370 25454176 25309482 
3038.554 25171966 25040986 24915518 24794754 24677776 24564018 24452956 
3041.930 24345006 24240130 24138992 24042012 23949708 23862152 23779372 
3045.305 23701122 23627084 23557256 23491672 23430992 23375988 23326966 
3048.680 23284246 23247154 23214404 23184064 23154532 23124268 23092468 
3052.055 23059238 23024752 22989710 22954254 22918344 22882018 22845346 
3055.431 22809064 22774598 22743416 22716952 22696006 22680434 22669542 
3058.806 22662246 22657742 22655578 22656382 22660920 22669962 22683890 
3062.181 22702534 22725262 22751796 22782000 22816222 22855476 22900320 
3065.556 22950620 23005432 23062940 23120564 23175606 23226182 23270296 
3068.932 23307214 23336162 23356826 23369168 23373154 23369520 23359834 
3072.307 23346022 23330568 23316094 23304276 23296202 23292112 23291342 
3075.682 23292984 23296098 23299592 23303018 23305676 23307110 23306760 
3079.057 23304242 23299348 23291866 23282392 23271380 23259600 23247820 
3082.433 23236564 23226076 23216500 23207866 23200352 23194410 23190774 
3085.808 23190322 23194234 23203498 23218702 23239954 23266592 23297740 
3089.183 23331930 23368050 23404974 23442498 23480304 23518604 23557536 
3092.558 23596856 23636110 23674806 23712600 23749378 23786092 23823998 
3095.934 23864778 23910532 23962488 24021036 24085544 24154720 24226362 
3099.309 24298084 24368102 24435290 24499510 24561144 24621734 24682614 
3102.684 24745432 24811032 24879692 24951242 25024664 25098660 25171790 
3106.059 25242758 25310924 25376010 25438542 25499748 25560892 25623556 
3109.435 25688690 25756998 25828516 25902578 25978306 26054718 26131246 
3112.810 26207120 26282338 26356864 26430702 26504022 26576966 26649536 
3116.185 26722188 26794992 26868198 26941628 27014682 27086478 27155994 
3119.560 27222556 27285814 27346364 27404944 27463040 27521708 27581724 
3122.936 27643338 27706408 27770620 27835864 27902284 27969988 28039540 
3126.311 28110940 28184156 28258656 28333912 28409074 28483296 28556574 
3129.686 28628378 28698778 28767666 28835184 28901724 28967952 29034830 
3133.061 29103524 29175278 29251152 29331616 29416986 29506734 29599836 
3136.437 29695122 29790890 29885792 29978264 30067312 30152542 30234168 
3139.812 30312964 30389928 30466370 30543148 30620686 30699446 30779466 
3143.187 30860888 30944104 31029650 31117632 31208266 31301092 31395468 
3146.562 31490688 31586424 31682360 31779032 31876794 31976040 32076664 
3149.938 32178204 32279696 32380390 32479540 32577210 32673866 32770220 
3153.313 32866918 32964460 33062774 33161402 33259760 33357176 33453252 
3156.688 33548064 33641856 33735564 33830292 33927012 34026980 34130448 
3160.063 34237200 34346236 34456380 34565544 34672836 34777644 34880464 
3163.438 34982696 35085636 35190936 35299352 35411104 35525184 35640696 
3166.814 35755992 35869548 35980404 36087396 36190240 36289360 36385368 
3170.189 36479884 36574060 36668980 36764996 36861256 36956312 37048568 
3173.564 37136696 37219752 37298096 37372548 37444164 37513948 37582408 
3176.939 37650012 37716900 37783908 37852448 37923492 37998236 38076572 
3180.315 38157928 38240852 38323868 38405956 38487008 38567100 38646844 
3183.690 38725988 38803840 38878916 38950240 39017220 39080732 39142768 
3187.065 39206444 39273752 39346376 39424012 39505656 39589312 39673272 
3190.440 39756560 39839028 39921040 40003032 40085660 40169096 40253316 
3193.816 40338536 40424460 40510728 40596800 40681532 40763744 40842728 
3197.191 40918192 40990940 41062356 41133856 41206276 41279908 41353812 
3200.566 41426996 41498664 41569064 41639116 41710784 41785416 41863892 
3203.941 41945924 42029756 42113680 42196272 42276064 42353056 42427400 
3207.317 42499376 42569248 42637008 42702736 42767120 42830776 42894996 
3210.692 42960504 43027852 43096600 43165980 43234792 43302252 43368152 
3214.067 43432816 43496720 43560416 43624120 43687504 43750824 43813968 
3217.442 43877272 43941060 44005808 44071448 44137536 44203856 44270000 
3220.818 44336748 44404788 44475296 44549120 44626152 44705288 44784920 
3224.193 44862980 44938012 45009708 45078552 45145972 45213512 45282424 
3227.568 45353404 45426460 45500628 45575512 45649820 45722480 45792724 
3230.943 45860184 45924668 45986876 46047916 46108964 46171124 46235028 
3234.319 46300344 46366480 46432624 46498004 46562912 46628204 46694648 
3237.694 46763500 46835132 46909360 46985476 47062980 47141236 47220020 
3241.069 47298968 47377672 47455132 47530128 47601776 47669772 47735080 
3244.444 47799476 47865432 47934988 48009292 48088196 48170484 48254532 
3247.820 48338516 48421412 48502504 48581724 48658764 48733788 48806820 
3251.195 48878452 48949728 49022540 49098996 49180436 49267908 49360444 
3254.570 49455972 49552072 49646416 49736952 49822936 49904404 49982020 
3257.945 50056524 50128736 50199328 50269072 50338492 50407924 50477552 
3261.321 50547156 50616024 50683828 50750036 50815028 50879432 50944144 
3264.696 51009832 51076612 51143856 51210696 51276276 51340188 51403104 
3268.071 51466588 51532096 51601272 51674900 51752608 51833468 51916020 
3271.446 51998668 52080504 52161160 52240676 52319424 52397916 52476688 
3274.822 52555704 52635288 52714892 52794280 52873500 52952660 53032884 
3278.197 53115772 53203032 53296408 53397152 53505264 53619400 53737652 
3281.572 53857816 53977556 54096284 54213616 54331020 54450404 54573544 
3284.947 54702128 54837408 54979796 55129156 55284736 55445948 55611280 
3288.323 55780032 55951072 56124328 56299848 56477920 56659468 56845320 
3291.698 57036088 57232348 57434516 57642948 57858144 58080336 58309696 
3295.073 58545772 58788084 59035692 59287924 59545052 59807884 60077688 
3298.448 60355808 60642680 60938312 61241208 61549700 61862236 62178008 
3301.823 62497152 62820896 63150740 63487976 63833796 64188384 64551600 
3305.199 64923280 65302676 65688916 66081008 66478132 66878944 67283536 
3308.574 67692368 68107016 68529472 68961504 69403880 69855928 70316200 
3311.949 70782616 71254176 71730400 72212304 72701320 73198192 73702968 
3315.324 74214544 74731168 75250856 75773728 76299960 76830584 77366608 
3318.700 77907816 78452632 78999288 79545320 80090200 80634416 81179432 
3322.075 81727016 82278208 82832552 83389008 83945008 84498824 85048792 
3325.450 85593776 86132536 86663416 87184304 87693368 88189264 88672200 
3328.825 89143592 89605264 90058504 90503368 90937856 91358752 91762984 
3332.201 92148144 92512848 92856936 93179576 93479312 93753232 93997832 
3335.576 94210256 94389216 94535592 94652256 94742544 94809184 94853336 
3338.951 94874352 94870232 94839112 94778728 94688232 94566896 94413560 
3342.326 94227088 94006064 93749128 93455816 93126072 92759992 92357976 
3345.702 91919448 91443520 90929352 90377560 89789920 89170560 88524136 
3349.077 87855672 87168792 86465976 85748192 85015992 84269904 83511312 
3352.452 82741936 81963560 81178080 80386544 79590208 78790600 77990088 
3355.827 77192184 76401288 75620968 74854184 74102648 73366616 72645472 
3359.203 71938960 71246792 70569416 69907688 69262392 68634120 68023264 
3362.578 67430136 66854632 66296956 65756796 65233016 64724132 64228720 
3365.953 63745224 63273580 62814348 62369184 61939492 61526260 61129020 
3369.328 60746128 60374844 60013012 59658468 59310900 58970144 58636476 
3372.704 58309544 57988348 57670836 57354952 57038468 56719836 56397328 
3376.079 56069700 55735016 55391360 55037072 54671352 54294636 53908680 
3379.454 53515760 53118736 52718556 52315496 51907732 51493300 51069720 
3382.829 50635828 50191516 49738252 49278004 48813012 48345368 47877160 
3386.205 47409048 46942176 46477244 46014464 45554388 45097924 44645172 
3389.580 44196884 43753828 43316200 42884464 42458816 42039176 41625844 
3392.955 41218624 40817976 40423948 40036712 39655736 39279924 38907944 
3396.330 38538276 38170048 37803284 37438892 37078232 36722740 36373192 
3399.706 36029508 35690300 35353444 35017140 34680156 34342152 34003544 
3403.081 33666204 33331200 33000246 32673970 32352868 32036568 31724956 
3406.456 31417448 31113574 30812758 30514356 30218288 29923950 29631762 
3409.831 29341824 29054918 28771632 28492812 28218734 27949634 27685220 
3413.207 27425344 27169504 26917478 26669088 26424680 26184772 25949884 
3416.582 25720856 25498202 25282124 25071980 24866676 24664764 24464804 
3419.957 24265462 24066632 23868488 23672464 23480024 23292494 23110780 
3423.332 22935004 22764192 22596866 22431072 22265268 22098274 21929568 
3426.708 21759428 21588520 21417956 21248400 21080474 20914282 20749510 
3430.083 20586086 20423592 20262616 20103920 19948544 19797940 19652864 
3433.458 19513626 19379870 19250694 19124742 19000352 18876686 18752884 
3436.833 18629012 18505488 18382518 18260722 18140204 18020480 17900546 
3440.208 17779576 17656396 17530560 17402588 17273446 17144966 17018244 
3443.584 16894038 16771661 16649388 16524669 16395444 16261030 16122429 
3446.959 15982529 15845492 15714958 15593153 15480447 15374944 15273619 
3450.334 15173553 15072482 14969409 14864682 14759397 14654173 14548870 
3453.709 14442942 14335567 14225891 14114258 14001318 13888853 13778023 
3457.085 13669993 13564860 13462351 13361745 13262597 13164359 13066998 
3460.460 12970443 12874695 12779173 12683536 12587408 12491164 12395181 
3463.835 12300446 12207606 12117102 12028798 11941805 11854830 11766885 
3467.210 11677087 11584789 11490196 11393685 11296175 11198994 11103568 
3470.586 11011391 10923379 10840243 10761708 10686481 10612490 10537968 
3473.961 10460981 10380919 10297718 10213039 10128308 10045630 9966560 
3477.336 9892013 9821919 9755801 9692200 9629693 9566551 9501318 9433217 
3481.194 9362249 9289024 9215406 9143154 9074229 9010119 8951465 8897924 
3485.051 8848583 8801954 8756783 8711515 8665407 8617715 8568407 8517516 
3488.908 8465414 8412812 8360453 8309552 8261055 8216042 8175017 8138081 
3492.766 8105098 8075595 8049063 8024761 8002688 7982809 7965193 7950175 
3496.623 7937959 7928713 7922538 7919366 7919400 7922538 7929321 7939714 
3500.481 7953617 7970795 7990369 8011058 8031578 8051459 8070835 8091730 
3504.338 8116711 8149324 8192203 8246771 8312186 8386023 8464366 8542454 
3508.196 8616870 8685993 8749750 8810441 8871173 8935330 9005417 9082925 
3512.053 9168264 9260862 9359507 9462881 9569463 9677631 9785554 9891810 
3515.910 9994701 10093444 10187394 10276444 10360185 10438818 10511761 
3519.286 10578639 10638533 10691269 10735929 10771762 10797678 10811912 
3522.661 10812727 10798697 10768875 10723906 10664815 10593612 10511048 
3526.036 10418046 10313597 10196553 10066145 9922014 9765764 9599510 9426377 
3529.894 9248643 9068275 8885952 8702455 8518361 8334275 8151416 7970491 
3533.751 7791833 7615306 7440367 7266544 7094709 6925535 6760633 6601379 
3537.608 6447900 6299719 6155118 6013151 5873347 5736778 5605554 5482055 
3541.466 5367916 5263097 5165848 5072911 4980497 4884752 4783399 4675104 
3545.323 4560106 4439915 4316446 4192542 4071015 3954806 3846015 3745607 
3549.181 3652506 3564970 3479323 3391922 3300032 3202654 3100625 2996919 
3553.038 2894739 2797785 2708221 2627509 2555211 2491057 2433642 2381699 
3556.896 2333826 2288057 2242260 2194269 2142454 2085585 2023630 1958256 
3560.753 1891560 1826805 1767282 1715951 1674837 1644636 1623982 1609449 
3564.610 1595514 1574996 1540147 1484520 1404534 1301332 1180445 1050624 
3568.468 921606 801323 694647 603392 526819 462830 409000 362869 322215 
3572.807 284979 249040 212076 171933 127352 77938 24751 -29653 -82661 
3577.147 -131257 -173388 -208594 -237108 -260918 -282210 -303170 -325055 
3581.004 -348165 -371571 -393189 -410469 -420995 -423081 -416361 -402458 
3584.862 -384813 -369121 -362202 -370545 -399181 -449661 -519231 -600966 
3588.719 -686259 -766078 -834010 -887151 -925573 -952122 -970405 -985083 
3592.577 -999298 -1015728 -1035594 -1059261 -1086463 -1116638 -1148859 
3595.952 -1182400 -1215872 -1248087 -1277722 -1303919 -1326910 -1347820 
3599.327 -1368695 -1391584 -1418039 -1448455 -1480982 -1512681 -1539756 
3602.702 -1558542 -1566234 -1561843 -1545600 -1520044 -1489138 -1457305 
3606.078 -1430490 -1413877 -1411533 -1426097 -1457305 -1502148 -1554910 
3609.453 -1609812 -1661339 -1706524 -1744609 -1777774 -1808264 -1839016 
3612.828 -1870953 -1902854 -1932313 -1955403 -1967904 -1968036 -1955205 
3616.203 -1931851 -1902591 -1874186 -1854457 -1850530 -1867687 -1907110 
3619.579 -1965463 -2035748 -2108823 -2176611 -2232984 -2274286 -2300028 
3622.954 -2310113 -2304708 -2283482 -2245378 -2189766 -2117429 -2032351 
3626.329 -1941747 -1857888 -1795989 -1771373 -1795461 -1868973 -1980306 
3629.704 -2107735 -2229523 -2330415 -2404825 -2455830 -2490489 -2517437 
3633.080 -2543329 -2571558 -2602025 -2632226 -2658770 -2679253 -2693512 
3636.455 -2703226 -2711194 -2719229 -2728382 -2737964 -2746294 -2751793 
3639.830 -2753900 -2753505 -2752418 -2752319 -2753274 -2753241 -2748303 
3643.205 -2733387 -2703950 -2656959 -2592605 -2513582 -2425550 -2335721 
3646.581 -2252960 -2185546 -2141499 -2127024 -2145455 -2196656 -2276659 
3649.956 -2377211 -2486733 -2592539 -2683304 -2750410 -2789918 -2802197 
3653.331 -2791037 -2763579 -2728448 -2695982 -2676059 -2675203 -2695718 
3656.706 -2733749 -2780864 -2827118 -2865006 -2890581 -2904800 -2911547 
3660.082 -2915924 -2922441 -2932775 -2945347 -2955779 -2959235 -2951501 
3663.457 -2930471 -2895814 -2848251 -2787942 -2713862 -2623532 -2515131 
3666.832 -2388448 -2246400 -2094150 -1937591 -1779259 -1615027 -1431877 
3670.207 -1209000 -925639 -563443 -110421 438816 1085966 1826772 2646644 
3674.065 3503539 4319692 4986262 5379892 5414950 5076733 4419229 3535005 
3677.922 2523383 1477239 469995 -438605 -1203944 -1805888 -2246268 -2548336 
3681.780 -2745405 -2872149 -2956141 -3012116 -3045810 -3056766 -3044099 
3685.155 -3009649 -2959367 -2901476 -2845618 -2800354 -2771251 -2761143 
3688.530 -2769901 -2795515 -2834920 -2885019 -2942550 -3004055 -3065847 
3691.905 -3123880 -3174505 -3215422 -3245910 -3266398 -3278467 -3284189 
3695.281 -3285570 -3283663 -3279289 -3271988 -3261004 -3245449 -3225091 
3698.656 -3200983 -3175920 -3154111 -3140690 -3140295 -3155361 -3185064 
3702.031 -3224927 -3268667 -3309344 -3341009 -3360474 -3366754 -3360211 
3705.406 -3342193 -3313718 -3275704 -3229301 -3175755 -3117367 -3057326 
3708.781 -3000238 -2950843 -2914476 -2896177 -2899764 -2927707 -2978552 
3712.157 -3047620 -3126874 -3206213 -3276329 -3330422 -3365241 -3381384 
3715.532 -3382502 -3373921 -3360375 -3345613 -3331342 -3316546 -3299085 
3718.907 -3276263 -3247093 -3212034 -3173683 -3135559 -3100852 -3072328 
3722.282 -3050186 -3033833 -3021889 -3013465 -3008431 -3008365 -3015111 
3725.658 -3030082 -3053015 -3080718 -3107596 -3126512 -3130920 -3116446 
3729.033 -3081935 -3030543 -2968219 -2902397 -2841141 -2790576 -2753142 
3732.408 -2727625 -2710240 -2698188 -2691240 -2692985 -2708824 -2744812 
3735.783 -2801901 -2876592 -2959465 -3040512 -3110722 -3164999 -3201608 
3739.159 -3220158 -3220059 -3199865 -3158420 -3096345 -3016855 -2929648 
3742.534 -2849338 -2793572 -2779514 -2815366 -2892721 -2986746 -3068019 
3745.909 -3115459 -3121314 -3090719 -3035775 -2971148 -2910230 -2864019 
3749.284 -2839100 -2838014 -2859312 -2900291 -2957523 -3026989 -3102727 
3752.660 -3177499 -3242456 -3289878 -3316151 -3321215 -3309049 -3285833 
3756.035 -3258472 -3233050 -3213613 -3202430 -3200161 -3206377 -3220421 
3759.410 -3241009 -3265674 -3290963 -3312337 -3326147 -3330027 -3324832 
3762.785 -3313816 -3302209 -3294876 -3295238 -3302998 -3314869 -3324668 
3766.161 -3326673 -3317170 -3296553 -3268568 -3238970 -3214764 -3201707 
3769.536 -3202364 -3216573 -3241009 -3271133 -3302406 -3332066 -3358271 
3772.911 -3380858 -3399926 -3415246 -3425667 -3429776 -3425865 -3412879 
3776.286 -3391543 -3364879 -3337754 -3316349 -3306155 -3310627 -3329665 
3779.662 -3358830 -3391149 -3419257 -3437995 -3445325 -3443221 -3435792 
3783.037 -3427870 -3423005 -3423202 -3427771 -3434970 -3442498 -3448875 
3786.412 -3454168 -3459197 -3465048 -3472247 -3480464 -3488024 -3493316 
3789.787 -3494992 -3492231 -3485033 -3473989 -3459559 -3441907 -3421229 
3793.163 -3397658 -3372277 -3346303 -3322136 -3301946 -3286786 -3276066 
3796.538 -3266924 -3255512 -3237326 -3209929 -3173551 -3131611 -3091673 
3799.913 -3061998 -3052390 -3068282 -3108814 -3164637 -3221375 -3264721 
3803.288 -3284912 -3279716 -3253408 -3215619 -3178387 -3153486 -3150657 
3806.664 -3172828 -3215718 -3268404 -3319176 -3358534 -3381746 -3389340 
3810.039 -3384146 -3369055 -3345613 -3313521 -3271298 -3217428 -3152565 
3813.414 -3080850 -3009155 -2947387 -2906149 -2891503 -2902496 -2930175 
3816.789 -2959827 -2976446 -2971115 -2942155 -2896177 -2844960 -2804074 
3820.165 -2788996 -2809703 -2866652 -2949033 -3039854 -3120953 -3180590 
3823.540 -3215521 -3229498 -3230058 -3225749 -3223480 -3226900 -3235155 
3826.915 -3243936 -3247028 -3239727 -3219500 -3187202 -3146414 -3102102 
3830.290 -3059168 -3021330 -2990135 -2964566 -2942056 -2919610 -2894169 
3833.666 -2864512 -2831002 -2795317 -2761110 -2732498 -2713565 -2707902 
3837.041 -2717385 -2741388 -2776848 -2818460 -2860990 -2900028 -2933401 
3840.416 -2961242 -2985232 -3008069 -3032451 -3060451 -3093516 -3131282 
3843.791 -3172170 -3213876 -3252783 -3285471 -3308522 -3319209 -3315559 
3847.167 -3296783 -3262353 -3211936 -3145986 -3064564 -2968976 -2861517 
3850.542 -2747479 -2634894 -2536181 -2467427 -2444364 -2477970 -2566288 
3853.917 -2693413 -2833735 -2962986 -3066373 -3139572 -3184801 -3207298 
3857.292 -3212758 -3205752 -3188912 -3164539 -3134835 -3101313 -3066406 
3860.667 -3032287 -3000402 -2972036 -2948375 -2930669 -2921125 -2922244 
3864.043 -2935046 -2958412 -2987601 -3014551 -3030280 -3027976 -3005502 
3867.418 -2966475 -2919281 -2876263 -2850490 -2849799 -2875407 -2919150 
3870.793 -2968186 -3009649 -3036202 -3047718 -3049462 -3049462 -3054693 
3874.168 -3069038 -3091410 -3116808 -3137631 -3147368 -3142598 -3123124 
3877.544 -3092068 -3054759 -3018467 -2989675 -2973879 -2973353 -2986219 
3880.919 -3006687 -3026561 -3038407 -3037288 -3022712 -2998592 -2972629 
3884.294 -2954693 -2952291 -2969700 -3004121 -3046731 -3085126 -3109077 
3887.669 -3113057 -3097299 -3067097 -3030214 -2996025 -2972596 -2965290 
3891.045 -2975689 -3001290 -3036597 -3074763 -3109077 -3134210 -3146151 
3894.420 -3142894 -3123782 -3089864 -3043737 -2989346 -2931459 -2874584 
3897.795 -2822674 -2777967 -2741652 -2713104 -2691503 -2675697 -2665883 
3901.170 -2662821 -2668386 -2684127 -2711655 -2750937 -2800189 -2856316 
3904.546 -2914443 -2969667 -3018105 -3056668 -3084633 -3102398 -3111643 
3907.921 -3114538 -3113057 -3109077 -3104010 -3098451 -3092628 -3086113 
3911.296 -3077987 -3066900 -3051831 -3032023 -3007444 -2979177 -2949461 
3914.671 -2921157 -2897263 -2880246 -2871128 -2869680 -2874486 -2882945 
3918.047 -2893149 -2903418 -2912732 -2920664 -2926522 -2929648 -2929155 
3921.422 -2924778 -2917274 -2908782 -2902496 -2901640 -2908684 -2924218 
3924.797 -2946301 -2971411 -2994446 -3011656 -3019981 -3019191 -3010010 
3928.172 -2994742 -2976183 -2956800 -2939226 -2925535 -2917570 -2916484 
3931.548 -2922770 -2935935 -2953673 -2973254 -2991517 -3005601 -3013992 
3934.923 -3016591 -3014354 -3008958 -3001949 -2994643 -2987240 -2980000 
3938.298 -2972069 -2962756 -2952192 -2939884 -2926818 -2914279 -2903747 
3941.673 -2897427 -2896440 -2901640 -2912633 -2927641 -2944261 -2959630 
3945.049 -2971674 -2979375 -2982567 -2982402 -2980296 -2977894 -2976183 
3948.424 -2975689 -2976248 -2977532 -2979013 -2980757 -2982567 -2984113 
3951.799 -2984936 -2984739 -2982665 -2978848 -2973583 -2967133 -2960716 
3955.174 -2954957 -2950119 -2946170 -2942714 -2938897 -2934486 -2929155 
3958.550 -2923066 -2916648 -2910362 -2905228 -2902002 -2901476 -2904602 
3961.925 -2911350 -2921223 -2932676 -2943372 -2951304 -2954233 -2951304 
3965.300 -2942780 -2930011 -2914904 -2899204 -2884196 -2870371 -2857600 
3968.675 -2845519 -2833570 -2821818 -2810691 -2800420 -2791663 -2784782 
3972.051 -2780206 -2777967 -2778296 -2781127 -2785638 -2790642 -2794428 
3975.426 -2795119 -2791235 -2782247 -2769144 -2753505 -2737898 -2724530 
3978.801 -2714915 -2709054 -2706486 -2705794 -2705695 -2704839 -2702831 
3982.176 -2699307 -2694895 -2689692 -2685016 -2681987 -2682019 -2686498 
3985.552 -2695817 -2709811 -2726999 -2745142 -2761933 -2775267 -2784090 
3988.927 -2788634 -2789753 -2788436 -2785440 -2780864 -2774740 -2766773 
3992.302 -2757390 -2747512 -2738985 -2733321 -2731873 -2734935 -2741619 
3995.677 -2751035 -2761834 -2773028 -2784090 -2794592 -2804634 -2813127 
3999.052 -2819480 -2822740 -2822213 -2818263 
##END=
