
##TITLE=Z357a_1_d
##JCAMP-DX=5.01  $$ Nicolet v. 1
##DATATYPE=INFRARED SPECTRUM
##ORIGIN=UniL
##OWNER=Nicolet
##LONGDATE=2011/09/22
##TIME=09:03:38
##SPECTROMETER/DATA SYSTEM=Nicolet iS5
##DATA PROCESSING=
Ratio against background
%Transmittance->Absorbance
Truncated
ElementMultiply or ElementDivide
##COMMENTS=
Number of sample scans: 32
Collection length: 51.22 sec
Sample gain: 2.0
Background collected on: Jeu Sep 22 08:56:13 2011 (GMT+02:00);
Number of background scans: 32
Background gain: 2.0
Sample spacing:  1.000
Number of scan points: 12415
Resolution points: 8192
Number of FFT points: 65536
Apodization: N-B fort;
Phase correction: Mertz;
Laser frequency: 15798.0 cm-1
Number of rejected sample scans: 0
Number of rejected background scans: 0
Bench serial number: ASB1000141;
##RESOLUTION=4.000
##XUNITS=1/CM
##YUNITS=ABSORBANCE
##FIRSTX=649.893372
##LASTX=4000.122314
##FIRSTY=0.100415
##MAXX=4000.122314
##MINX=649.893372
##MAXY=0.303664
##MINY=-0.003388
##XFACTOR=1.000000
##YFACTOR=1.000000E-009
##NPOINTS=6950
##DELTAX=0.482117
##ZPD=6100
##XYDATA=(X++(Y..Y))
649.893 100415416 100073416 99774312 99552568 99423152 99381288 99411408 
653.268 99500728 99652496 99883592 100214712 100658696 101209160 101844432 
656.643 102539072 103279592 104074504 104952720 105950648 107092288 
659.536 108382536 109806728 111345512 112992048 114762080 116686976 
662.428 118801960 121125320 123649048 126345680 129184904 132148488 
665.321 135218112 138359008 141468688 144321088 146587728 147917536 
668.214 148104352 147202992 145480336 143260864 140781904 138173424 
671.107 135476480 132692248 129832264 126938808 124077136 121324664 
673.999 118739112 116344544 114136432 112092760 110191536 108419400 
676.892 106773440 105254752 103859016 102572768 101373952 100237664 99144056 
680.267 98080808 97042856 96029248 95037760 94063664 93101272 92147848 
683.642 91208576 90294056 89420608 88601936 87843544 87142632 86488536 
687.016 85868016 85269264 84687560 84122520 83576616 83050608 82539104 
690.391 82030560 81510016 80962224 80375024 79744296 79071624 78365784 
693.766 77640296 76912888 76205496 75541120 74943392 74432648 74021816 
697.141 73715528 73508976 73391256 73346968 73362184 73427392 73537272 
700.516 73690216 73885968 74121752 74391824 74687968 75001000 75324824 
703.890 75656504 75995928 76343256 76696224 77049088 77394288 77725488 
707.265 78041632 78348528 78658376 78986688 79348136 79757784 80231672 
710.640 80789672 81462448 82286296 83295072 84508488 85913528 87455336 
714.015 89031072 90514664 91771824 92691072 93215304 93345952 93144800 
717.390 92712320 92178576 91682688 91350240 91301544 91633992 92409336 
720.765 93644048 95285592 97206576 99191808 100976688 102293104 102904760 
724.139 102683848 101632800 99893432 97700984 95339776 93084600 91127320 
727.514 89574112 88441024 87680112 87211200 86952064 86841200 86834928 
730.889 86906440 87036384 87205328 87393784 87585568 87770904 87949464 
734.264 88126640 88309448 88500984 88698336 88894104 89081960 89259880 
737.639 89432088 89607952 89796360 90002288 90225448 90460192 90700160 
741.013 90942264 91186752 91437264 91696808 91964856 92237168 92508336 
744.388 92773856 93033904 93293656 93559288 93834328 94115720 94392632 
747.763 94650776 94877120 95064400 95214048 95333872 95434248 95522184 
751.138 95599848 95665216 95715064 95749840 95774464 95797144 95826928 
754.513 95869400 95925432 95991600 96064304 96141816 96227080 96326376 
757.888 96446136 96591336 96763496 96961128 97181752 97423736 97685672 
761.262 97966248 98262448 98568808 98879408 99191432 99509688 99850608 
764.637 100242464 100727216 101356592 102182032 103253064 104598664 
767.530 106213848 108040632 109960824 111805792 113362992 114437032 
770.423 114895536 114712888 113993904 112957192 111891864 111052744 
773.315 110606048 110569544 110813368 111090224 111110120 110644728 
776.208 109569064 107903824 105783088 103413848 101002024 98693552 96566712 
779.583 94623952 92820424 91090384 89378360 87652696 85907064 84156552 
782.958 82428840 80758064 79176856 77714984 76398008 75243688 74262584 
786.332 73457808 72827000 72364536 72065208 71927544 71953904 72150760 
789.707 72526608 73091104 73854584 74828584 76028856 77475152 79190576 
793.082 81199128 83518544 86154184 89091152 92292528 95697392 99220376 
796.457 102767168 106236064 109532048 112589120 115380384 117937480 
799.350 120347176 122752936 125324144 128205952 131486488 135137504 
802.242 138993984 142725120 145883808 147989936 148586608 147390400 
805.135 144357168 139713488 133900152 127477896 121019792 114944104 
808.028 109478160 104633992 100255696 96095888 91910400 87550824 82984784 
811.402 78300264 73650952 69216776 65145388 61521640 58374840 55684348 
814.777 53403636 51475432 49846980 48474276 47318440 46347604 45534448 
818.152 44856224 44297156 43847284 43500752 43253200 43099016 43031548 
821.527 43044024 43131952 43295336 43537856 43867008 44291248 44817024 
824.902 45448972 46188592 47033108 47973356 48991788 50061320 51143444 
828.277 52196320 53182620 54079096 54888916 55646684 56421848 57305196 
831.651 58404028 59828004 61663108 63958972 66702000 69801960 73067736 
835.026 76210384 78891552 80730456 81398096 80696256 78589080 75234464 
838.401 70935248 66102384 61145460 56408380 52151188 48509396 45518660 
841.776 43141096 41298272 39896412 38842788 38062360 37491952 37080936 
845.151 36793128 36601672 36489472 36447596 36469904 36549732 36677056 
848.525 36838316 37019884 37212424 37414008 37630068 37871176 38148992 
851.900 38471080 38839784 39252792 39706528 40198828 40731024 41307344 
855.275 41933772 42616724 43361820 44176896 45072852 46064792 47173996 
858.650 48425708 49847316 51470172 53329040 55461004 57907020 60700668 
862.025 63855292 67344432 71085040 74929296 78653136 81996824 84691512 
865.400 86494000 87250816 86914656 85562824 83374184 80612760 77585464 
868.774 74573504 71829096 69538448 67807664 66684076 66160412 66193060 
872.149 66710464 67623224 68830880 70211064 71631600 72956760 74047360 
875.524 74791624 75116240 74997728 74467888 73605608 72524696 71342736 
878.899 70169904 69089416 68142440 67331008 66620916 65958536 65281496 
882.274 64538920 63706240 62788768 61821696 60857496 59957240 59172364 
885.648 58535572 58060684 57744136 57573976 57537092 57626680 57842588 
889.023 58189316 58671292 59289328 60038156 60908960 61891576 62977688 
892.398 64163184 65447772 66833144 68320520 69909680 71596512 73371640 
895.773 75215120 77091504 78947224 80701320 82255136 83503840 84344776 
899.148 84706008 84556512 83913776 82839088 81428272 79800792 78072560 
902.523 76355576 74746640 73315936 72115472 71176376 70511888 70123600 
905.897 70005312 70148400 70544280 71187144 72074120 73204072 74576416 
909.272 76190208 78044568 80138888 82473472 85047264 87854696 90881072 
912.647 94097240 97462088 100924848 104433232 107949752 111458048 114971608 
916.022 118529456 122193768 126034872 130111072 134456352 139056592 
918.914 143837056 148638336 153221904 157292464 160504272 162546688 
921.807 163205408 162419488 160329472 157275760 153786784 150457984 
924.700 147907856 146694512 147191472 149572336 153749392 159396480 
927.593 165934928 172605264 178623296 183206144 185747808 185915120 
930.485 183639536 179106992 172661072 164744560 155803056 146244832 
933.378 136457232 126769336 117466936 108806432 100979576 94127728 88340832 
936.753 83651048 80054024 77518560 75999016 75437784 75758032 76859608 
940.128 78590944 80744656 83077208 85298656 87126032 88330112 88748200 
943.502 88325440 87111088 85250352 82944432 80413096 77874392 75496208 
946.877 73394120 71630824 70219288 69139416 68350928 67809712 67471128 
950.252 67295336 67250112 67305472 67435600 67619464 67840744 68089928 
953.627 68364416 68666720 69000616 69368928 69771288 70203936 70661848 
957.002 71140192 71636216 72148920 72678376 73223840 73783976 74356352 
960.377 74939928 75536024 76149064 76783728 77444576 78132536 78844864 
963.751 79576072 80320560 81075464 81841016 82620648 83417872 84234904 
967.126 85071128 85923824 86790776 87672000 88570904 89493120 90443912 
970.501 91425568 92437008 93474344 94533656 95613640 96716760 97848464 
973.876 99014144 100217376 101457992 102733672 104042384 105384432 106763816 
977.251 108187088 109660920 111190072 112776944 114423576 116134432 
980.143 117918880 119792576 121773360 123878152 126119080 128499832 
983.036 131016496 133657128 136403840 139229040 142089008 144924864 
985.929 147653040 150170160 152371552 154155104 155444368 156203424 
988.821 156438784 156201136 155574016 154673120 153626608 152562704 
991.714 151609264 150869728 150420720 150309840 150552016 151137200 
994.607 152039024 153227280 154673584 156355040 158256784 160365328 
997.500 162666336 165144720 167782512 170562768 173471008 176490256 
1000.392 179597136 182757696 185919952 189019440 191989088 194765232 
1003.285 197303872 199586896 201622528 203442000 205094848 206647040 
1006.178 208170320 209744096 211449840 213356304 215517296 217962016 
1009.070 220692336 223687104 226910224 230322976 233886640 237565472 
1011.963 241325520 245124032 248911584 252636400 256247968 259710400 
1014.856 263003552 266116208 269034528 271726176 274128512 276157344 
1017.748 277715392 278714528 279104736 278883904 278109120 276884960 
1020.641 275363520 273729504 272170112 270879552 270029216 269743168 
1023.534 270099744 271116512 272758624 274947360 277581408 280556064 
1026.427 283760768 287090976 290439488 293680192 296680096 299298784 
1029.320 301398624 302871936 303641792 303663776 302921856 301416896 
1032.213 299162688 296185632 292532224 288271040 283485184 278269792 
1035.106 272714944 266894080 260870752 254698656 248431792 242136800 
1037.999 235889296 229769808 223862928 218241312 212965824 208086240 
1040.892 203632944 199615120 196008912 192750336 189723328 186759856 
1043.785 183672960 180264432 176371376 171906016 166864080 161334336 
1046.678 155470528 149478592 143571904 137937008 132733984 128068744 
1049.571 123995664 120528400 117644272 115298280 113430712 111981256 
1052.464 110893464 110115912 109606928 109327688 109236496 109288264 
1055.357 109426232 109583688 109693040 109684856 109497816 109088104 
1058.250 108427832 107511880 106357184 105006432 103524816 101993504 
1061.144 100511128 99176360 98079064 97299136 96892080 96890512 97304448 
1064.519 98122216 99310648 100813544 102558712 104450256 106374456 108217304 
1067.894 109863264 111214728 112206224 112801512 112996648 112811608 
1070.787 112282896 111453600 110365376 109059312 107569640 105925312 
1073.680 104154512 102284256 100347024 98386024 96452920 94610600 92930392 
1077.055 91478208 90314168 89483552 89009960 88896056 89121864 89648360 
1080.431 90414976 91342552 92341992 93308776 94140080 94750248 95078256 
1083.806 95106304 94864096 94430360 93917040 93453968 93180720 93216824 
1087.181 93657648 94567552 95970600 97850792 100149736 102776360 105603760 
1090.556 108481376 111262368 113803752 115990000 117746328 119031928 
1093.449 119839776 120186816 120106288 119639528 118830880 117732648 
1096.343 116401112 114899472 113302560 111687416 110129272 108694232 
1099.236 107419536 106306696 105310320 104345464 103291528 102012440 
1102.129 100393368 98353952 95873744 92996184 89825656 86508392 83199512 
1105.504 80058608 77219416 74776744 72794568 71299704 70291344 69748376 
1108.879 69637040 69915544 70534376 71442552 72584056 73895824 75312688 
1112.254 76760832 78158472 79426432 80485680 81268152 81728888 81844736 
1115.630 81619320 81078024 80264672 79233128 78038304 76736112 75375392 
1119.005 73994472 72623968 71282872 69981184 68723424 67510800 66345208 
1122.380 65231436 64176248 63188644 62275592 61440220 60680244 59989196 
1125.755 59360016 58789144 58280252 57845424 57505584 57285080 57205620 
1129.131 57283076 57521432 57911560 58430332 59043360 59708120 60373208 
1132.506 60988452 61508128 61896392 62136488 62233068 62214140 62123684 
1135.881 62017532 61953520 61977556 62120740 62392136 62778512 63244788 
1139.256 63738352 64199560 64561136 64760208 64746828 64482948 63949072 
1142.632 63142620 62075704 60771016 59259288 57578368 55768240 53871616 
1146.007 51933868 49996108 48097488 46272036 44544384 42932268 41445624 
1149.382 40087836 38858120 37753800 36771384 35907048 35156736 34515680 
1152.757 33978464 33539652 33194662 32940582 32776118 32701194 32715734 
1156.133 32819246 33010256 33287126 33649232 34097076 34633292 35260828 
1159.508 35982600 36799980 37712492 38717260 39808776 40979288 42216132 
1162.883 43500972 44810192 46111836 47369652 48546892 49605592 50512908 
1166.258 51242420 51773812 52095296 52204208 52106764 51817940 51360104 
1169.634 50761952 50052844 49263008 48421412 47552904 46681368 45829396 
1173.009 45017428 44266260 43594960 43018780 42550684 42199264 41969752 
1176.384 41865932 41891076 42048628 42343380 42780136 43363612 44098512 
1179.759 44989940 46043972 47269336 48676372 50276548 52082036 54102364 
1183.135 56344508 58811224 61499460 64396204 67472600 70683024 73952952 
1186.510 77181544 80253000 83031712 85385520 87202736 88393632 88908544 
1189.885 88740888 87926744 86538160 84674480 82456528 80002520 77425808 
1193.260 74829336 72292400 69878232 67633128 65584428 63746988 62123488 
1196.635 60706576 59480720 58423968 57510840 56711416 55994232 55328016 
1200.011 54679920 54019280 53319596 52558320 51722524 50809924 49830444 
1203.386 48805004 47762232 46735640 45755652 44847772 44029604 43309940 
1206.761 42690672 42169320 41741712 41402284 41145108 40963960 40850516 
1210.136 40795700 40791696 40832100 40914772 41041996 41219644 41455284 
1213.512 41756780 42130620 42580796 43109448 43715720 44396344 45144796 
1216.887 45949896 46798336 47673952 48560824 49446240 50320596 51179008 
1220.262 52019916 52844572 53656252 54460660 55267352 56090248 56946096 
1223.637 57854584 58833532 59895808 61047632 62286876 63603348 64979076 
1227.013 66391340 67812000 69207448 70543888 71786992 72906832 73883808 
1230.388 74710112 75392384 75949640 76414520 76830664 77247832 77727824 
1233.763 78338720 79149744 80235376 81664304 83494600 85774832 88537096 
1237.138 91799496 95566272 99829304 104566376 109735992 115280432 121119152 
1240.514 127148912 133260520 139335104 145253696 150909264 156196304 
1243.407 161013968 165272160 168884464 171777744 173896800 175201600 
1246.300 175668576 175289136 174069184 172031744 169218272 165691056 
1249.193 161523616 156791632 151566096 145902224 139843152 133429648 
1252.086 126708776 119747128 112638680 105492736 98438648 91610752 85126344 
1255.461 79090432 73579352 68633072 64261416 60442780 57132868 54268128 
1258.836 51776684 49586020 47621816 45819308 44125912 42499852 40916228 
1262.212 39363604 37841964 36358204 34923624 33549712 32246042 31020504 
1265.587 29879474 28827042 27866036 26996698 26215566 25516368 24890816 
1268.962 24330358 23828582 23381932 22989850 22653834 22375842 22157478 
1272.337 22000528 21907300 21881826 21929916 22057592 22269278 22565246 
1275.713 22939372 23377806 23858512 24353872 24829134 25245776 25567430 
1279.088 25761006 25803584 25688340 25424454 25036352 24556762 24022892 
1282.463 23466316 22908774 22363844 21836666 21330246 20849096 20400982 
1285.838 19996732 19648150 19364212 19150644 19009696 18942062 18949192 
1289.214 19034276 19201100 19452704 19789028 20205580 20693488 21240674 
1292.589 21832486 22450366 23072270 23672674 24222052 24692612 25063556 
1295.964 25325534 25484288 25560224 25586196 25598460 25633396 25723352 
1299.339 25892484 26158378 26530542 27008828 27580488 28216860 28876120 
1302.715 29501522 30030562 30408548 30590038 30550614 30287986 29820132 
1306.090 29180524 28411656 27563260 26682900 25815154 24999358 24263570 
1309.465 23625544 23091350 22657394 22314240 22050688 21858340 21732116 
1312.840 21669698 21669768 21729644 21844822 22010218 22222024 22479012 
1316.216 22782350 23133702 23532454 23974184 24450398 24951662 25470198 
1319.591 26002262 26548188 27109894 27686844 28273084 28855192 29412766 
1322.966 29923310 30364840 30719894 30980932 31151056 31245972 31292938 
1326.341 31330436 31402596 31551078 31811330 32201826 32721200 33347874 
1329.717 34046544 34777464 35503396 36199964 36856928 37475840 38066664 
1333.092 38641704 39213552 39791528 40384020 40997680 41637112 42304292 
1336.467 42996428 43705972 44420604 45125752 45807820 46454820 47058772 
1339.842 47614124 48118328 48571088 48974172 49332860 49655440 49951796 
1343.218 50232764 50506660 50778528 51049520 51318820 51585340 51848852 
1346.593 52108820 52361060 52591944 52777144 52877880 52846744 52638992 
1349.968 52217920 51568104 50699392 49649276 48477792 47257332 46071236 
1353.343 44997252 44101080 43434720 43025584 42876088 42961164 43234900 
1356.719 43635224 44092536 44546216 44945584 45256168 45462036 45562596 
1360.094 45571724 45515572 45435104 45383348 45417228 45594796 45958256 
1363.469 46522308 47270260 48155160 49109236 50047304 50882896 51532136 
1366.844 51916728 51980516 51693936 51063272 50129592 48963936 47655352 
1370.219 46287736 44937168 43661052 42494808 41461988 40578716 39860420 
1373.595 39325008 38988984 38860580 38933748 39187696 39593156 40119564 
1376.970 40745656 41463848 42280296 43212644 44287728 45541400 47014756 
1380.345 48755364 50808508 53199400 55911728 58861876 61899600 64797520 
1383.720 67282176 69090224 69976192 69770672 68413672 65985500 62717676 
1387.096 58949688 55088192 51485016 48373740 45862168 43940324 42529996 
1390.471 41522980 40815720 40317012 39950756 39659516 39395712 39122936 
1393.846 38819928 38480168 38112852 37736524 37371212 37030632 36719024 
1397.221 36433112 36167732 35921448 35700952 35521088 35401256 35360704 
1400.597 35412180 35560356 35802728 36131688 36537224 37008008 37534176 
1403.972 38107248 38720120 39366724 40042016 40741360 41461444 42201344 
1407.347 42963580 43753096 44576360 45438160 46339824 47278540 48248976 
1410.722 49245604 50263752 51298984 52342592 53375980 54369996 55287108 
1414.098 56088700 56750684 57271092 57676212 58013116 58344144 58735240 
1417.473 59240600 59898248 60719836 61686520 62752664 63856216 64936676 
1420.848 65941684 66836512 67606608 68257352 68818424 69341840 69898080 
1424.223 70553872 71354760 72312640 73404520 74586368 75808448 77032992 
1427.599 78235992 79407336 80547736 81664784 82773608 83896568 85069392 
1430.974 86337496 87744176 89326088 91100184 93064200 95201672 97496928 
1434.349 99947904 102566600 105377672 108399976 111629360 115022608 
1437.242 118510824 122025576 125513344 128935768 132249744 135394400 
1440.135 138266576 140722528 142608832 143764656 144057216 143405040 
1443.028 141777024 139204752 135777872 131650624 127021176 122102424 
1445.921 117121800 112280712 107747440 103661176 100109392 97122616 94667464 
1449.297 92663264 91005464 89598296 88388392 87373528 86598984 86126832 
1452.672 86009040 86254640 86824408 87629712 88550912 89464496 90247432 
1456.047 90817152 91160472 91356864 91548936 91882720 92475376 93387200 
1459.422 94640552 96238080 98165240 100389232 102847864 105456192 108089672 
1462.798 110582960 112759936 114441992 115503696 115918592 115777040 
1465.691 115255720 114545584 113817664 113184424 112701296 112388256 
1468.584 112235952 112211328 112249472 112249736 112075944 111561064 
1471.477 110558896 108996152 106923272 104508584 101981688 99552608 97350336 
1474.852 95435568 93827952 92535680 91575032 90964936 90707464 90776880 
1478.227 91114904 91645776 92286784 92972008 93664432 94357384 95073680 
1481.603 95853000 96745944 97802816 99075080 100623312 102514192 104819160 
1484.978 107599056 110880808 114629832 118722600 122955936 127028376 
1487.871 130565760 133182792 134494064 134203552 132184792 128522056 
1490.764 123515824 117590968 111209160 104742112 98423016 92382240 86659256 
1494.139 81260688 76215840 71586936 67477592 64008848 61273908 59306040 
1497.514 58068824 57483720 57453956 57890284 58724540 59900376 61367548 
1500.890 63078096 64975964 66998660 69081680 71140384 73070552 74739912 
1504.265 75955088 76471016 76013848 74352856 71437552 67489392 62961176 
1507.640 58328000 53917868 49860804 46147616 42722512 39540528 36585416 
1511.015 33874316 31438250 29297940 27458028 25901418 24599118 23518392 
1514.391 22628804 21903326 21312638 20826362 20418208 20070744 19783756 
1517.766 19570362 19448302 19425952 19495846 19631544 19797490 19960962 
1521.141 20110166 20261330 20451410 20715868 21068892 21503420 21998716 
1524.516 22535022 23101622 23702592 24352962 25071174 25867478 26739702 
1527.892 27675932 28663064 29693596 30769720 31902682 33107758 34398888 
1531.267 35785312 37268344 38839640 40482356 42171040 43877272 45574332 
1534.642 47244476 48877636 50468808 52008376 53480752 54867668 56140056 
1538.017 57266368 58213792 58950104 59446520 59682608 59658276 59396408 
1541.393 58941756 58347288 57654376 56881236 56018696 55043092 53935316 
1544.768 52702096 51384120 50047560 48757884 47549576 46421748 45341012 
1548.143 44263324 43157128 42024428 40901592 39848980 38918272 38132136 
1551.518 37479708 36928208 36443272 36004776 35615808 35296840 35071196 
1554.894 34947036 34908252 34914576 34911668 34830776 34593712 34125640 
1558.269 33375926 32360758 31181388 29988312 28908028 27998188 27256706 
1561.644 26646612 26120268 25630868 25140754 24627522 24089748 23546516 
1565.019 23030132 22573482 22193184 21885450 21627556 21388926 21140512 
1568.395 20864984 20562252 20248868 19950000 19687534 19475262 19316994 
1571.770 19210554 19151856 19135408 19152444 19187732 19220010 19224442 
1575.145 19180460 19083956 18952272 18821078 18724448 18680790 18688402 
1578.520 18732612 18794816 18860802 18925414 18990348 19061590 19144654 
1581.896 19241136 19348518 19462858 19579964 19697830 19815038 19927348 
1585.271 20025982 20098992 20133106 20120160 20061548 19969948 19866298 
1588.646 19775224 19720576 19718842 19780046 19909240 20107146 20371014 
1592.021 20691194 21049032 21413640 21744170 21999552 22142798 22152734 
1595.396 22028728 21790258 21471218 21109762 20744018 20404526 20114330 
1598.772 19892278 19753170 19708060 19763470 19919646 20170452 20506256 
1602.147 20917064 21394322 21929952 22514642 23132234 23757218 24356712 
1605.522 24890078 25315630 25598322 25711610 25643168 25395190 24982794 
1608.897 24429190 23760928 23008926 22205458 21385028 20585112 19837578 
1612.273 19165500 18579074 18074258 17636726 17245556 16879296 16518647 
1615.648 16150385 15772473 15394717 15037733 14725667 14479630 14311424 
1619.023 14221715 14202200 14237498 14309062 14397694 14489702 14579708 
1622.398 14672199 14778252 14910528 15076872 15278012 15509599 15766220 
1625.774 16044995 16345210 16665019 16999602 17338030 17665678 17970850 
1629.149 18248004 18502204 18745514 18992630 19253570 19530366 19815280 
1632.524 20093786 20348304 20559300 20709542 20785554 20780236 20696094 
1635.899 20547140 20356776 20149002 19941744 19742732 19549358 19351360 
1639.275 19134958 18888382 18606740 18295384 17967984 17643698 17338548 
1642.650 17059424 16802762 16555648 16299248 16014121 15685862 15310138 
1646.025 14894754 14459350 14031227 13639151 13306087 13046238 12864968 
1649.400 12758870 12717175 12719734 12737442 12726626 12634309 12417274 
1652.776 12069268 11642438 11221400 10874895 10623694 10451138 10326863 
1656.151 10223690 10125324 10025115 9924285 9827443 9737909 9655474 9575900 
1660.008 9492513 9398679 9289397 9161732 9015363 8852506 8679030 8503188 
1663.866 8336673 8191054 8074851 7991617 7938297 7905903 7880158 7844934 
1667.723 7786267 7694927 7569753 7417110 7249058 7078712 6917152 6772278 
1671.581 6648614 6546849 6463471 6390363 6313637 6216287 6085086 5916372 
1675.438 5721871 5524839 5350506 5214336 5117499 5050149 4997054 4946513 
1679.295 4893464 4843370 4807889 4799279 4822329 4870041 4921680 4947719 
1683.153 4916519 4808828 4630896 4416919 4211044 4043189 3922975 3842639 
1687.010 3788455 3746910 3708778 3668344 3622467 3569981 3511288 3450098 
1690.868 3393759 3351718 3333620 3344806 3383540 3439244 3494687 3529293 
1694.725 3525551 3479991 3406950 3335590 3292620 3291752 3328412 3384008 
1698.583 3430761 3439010 3387380 3272756 3117311 2957285 2825798 2736829 
1702.440 2687316 2664379 2652278 2636976 2606409 2554311 2480759 2392627 
1706.297 2300148 2214350 2143054 2088615 2049363 2020368 1996134 1973301 
1710.155 1951599 1933760 1924507 1928235 1946573 1978227 2019635 2065909 
1714.012 2113153 2158671 2200463 2234799 2255249 2253350 2220512 2155207 
1717.870 2065077 1967010 1879613 1817222 1785414 1781788 1798723 1827371 
1721.727 1861178 1896519 1932994 1971903 2015042 2062580 2114052 2168061 
1725.584 2224375 2283527 2346352 2412284 2478927 2541380 2594309 2634809 
1729.442 2663779 2685483 2706687 2731427 2757869 2775142 2764738 2704620 
1733.299 2578443 2387563 2155640 1923043 1726563 1584640 1497786 1453900 
1737.157 1437278 1432358 1427305 1414706 1391304 1358763 1321239 1284915 
1741.014 1254807 1234471 1225201 1226563 1235767 1249557 1265474 1282190 
1744.872 1300634 1323100 1351650 1386551 1425875 1464406 1495691 1513945 
1748.729 1514643 1495060 1454199 1392069 1310105 1212242 1106129 1001570 
1752.586 909354 838304 791365 766137 754188 744331 724616 687412 632425 
1756.926 566895 502934 450492 415135 394838 382336 367711 341879 299436 
1761.266 239824 166961 87648 9277 -61393 -119829 -162988 -189551 -200712 
1765.605 -200480 -194453 -189584 -191373 -200050 -211111 -216311 -208230 
1769.463 -184252 -149276 -113899 -93692 -101610 -142718 -211012 -291945 
1773.320 -368724 -429602 -471274 -496991 -512877 -523136 -528993 -528894 
1777.177 -520455 -503345 -480244 -456479 -437910 -428344 -427616 -432184 
1781.035 -436321 -436222 -430826 -422319 -414441 -410965 -413349 -420697 
1784.892 -430330 -439565 -446417 -449859 -449197 -443305 -429767 -406364 
1788.750 -371969 -328830 -281846 -239857 -212271 -206475 -225650 -267044 
1792.607 -323334 -385111 -444232 -495998 -538392 -571351 -595010 -609966 
1796.465 -616749 -617245 -613937 -610231 -608709 -610727 -616319 -624061 
1800.322 -632796 -641861 -651886 -663466 -677063 -691949 -705910 -716760 
1804.179 -722714 -723177 -719241 -712327 -703131 -691685 -676996 -657841 
1808.037 -634583 -609536 -586473 -570094 -563443 -567414 -580186 -598055 
1811.894 -616848 -633524 -646890 -655956 -660521 -659595 -651258 -634053 
1815.752 -607683 -573138 -534156 -494773 -457902 -425001 -395870 -368559 
1819.609 -340881 -311414 -278965 -243202 -203825 -160471 -113734 -66196 
1823.467 -21602 15142 40193 53647 59976 67068 83572 115089 161160 215656 
1828.288 267938 306830 324669 321054 302387 280470 266976 268767 287963 
1832.628 322281 367214 418518 473677 531132 590054 649415 708088 765175 
1836.968 821241 879007 943023 1018374 1109517 1218655 1345800 1488643 
1840.825 1643772 1807606 1975797 2143120 2304079 2453068 2586176 2703420 
1844.682 2809090 2909115 3008964 3110637 3210965 3303638 3380068 3433399 
1848.540 3460185 3460619 3438008 3396163 3337827 3262507 3168241 3053307 
1852.397 2917822 2765372 2602042 2434375 2267805 2105329 1947339 1793898 
1856.255 1645701 1505034 1374884 1257499 1152405 1056304 964707 873230 
1860.112 780012 686649 596988 514943 443460 382170 329344 283322 243769 
1864.452 212441 192054 184297 187247 195833 202330 198319 179921 147272 
1868.791 105511 62230 24586 -4141 -23557 -35982 -43701 -48339 -50327 -50460 
1873.613 -50360 -53011 -62022 -80342 -108798 -145930 -188822 -234293 -280620 
1877.953 -327737 -376670 -428145 -481568 -534123 -583231 -626808 -664491 
1881.810 -698930 -733696 -771271 -812415 -854646 -893996 -926928 -951857 
1885.667 -969281 -982075 -993083 -1004059 -1015562 -1027198 -1038999 
1889.043 -1051989 -1068615 -1089735 -1114192 -1138218 -1155733 -1160789 
1892.418 -1150974 -1127379 -1095750 -1064021 -1038536 -1022934 -1016752 
1895.793 -1016323 -1017215 -1017149 -1015628 -1013546 -1012158 -1010901 
1899.168 -1007496 -999563 -985909 -967264 -947361 -930731 -919687 -914529 
1903.026 -912711 -910231 -904808 -896807 -888573 -884407 -886887 -895748 
1906.883 -907751 -918299 -923391 -921903 -915588 -908016 -902262 -900245 
1910.741 -901204 -903453 -905999 -908479 -911818 -917142 -923093 -927292 
1914.598 -926466 -918100 -903519 -887647 -876801 -877364 -891648 -916282 
1918.456 -944055 -968289 -984356 -994009 -1002868 -1017149 -1041081 -1074432 
1922.313 -1112044 -1147042 -1174602 -1193404 -1206522 -1218747 -1232690 
1925.688 -1247459 -1258857 -1260972 -1250565 -1229188 -1202821 -1178964 
1929.063 -1164094 -1159897 -1163730 -1170835 -1176882 -1181012 -1185771 
1932.439 -1195254 -1211313 -1233120 -1256148 -1275178 -1287071 -1293216 
1935.814 -1298105 -1307817 -1325391 -1348877 -1371238 -1384747 -1384054 
1939.189 -1369488 -1347721 -1328397 -1320436 -1328694 -1350859 -1380619 
1942.564 -1410938 -1436104 -1454168 -1466188 -1473057 -1473519 -1465197 
1945.940 -1445615 -1413811 -1373782 -1331799 -1294339 -1264771 -1242107 
1949.315 -1220829 -1196080 -1165779 -1133922 -1108376 -1099551 -1112804 
1952.690 -1148066 -1198525 -1253142 -1302498 -1341775 -1371305 -1395713 
1956.065 -1420318 -1447266 -1475566 -1502445 -1524634 -1542661 -1560358 
1959.441 -1580992 -1606577 -1635857 -1663155 -1682794 -1692761 -1694445 
1962.816 -1693719 -1697184 -1707647 -1723158 -1738636 -1747448 -1746359 
1966.191 -1737646 -1727713 -1722927 -1727151 -1738966 -1752464 -1762265 
1969.566 -1766060 -1766753 -1770548 -1782922 -1804008 -1828721 -1847264 
1972.942 -1850563 -1835617 -1806746 -1772363 -1740913 -1714082 -1685302 
1976.317 -1642558 -1574059 -1476029 -1356111 -1231864 -1121066 -1039329 
1979.692 -992158 -976422 -983595 -1006009 -1038040 -1078365 -1127048 
1983.067 -1182004 -1238737 -1290474 -1331205 -1358092 -1373815 -1382997 
1986.443 -1390792 -1399313 -1405753 -1405158 -1393467 -1370842 -1342237 
1989.818 -1316439 -1301144 -1299690 -1309667 -1323805 -1332856 -1332856 
1993.193 -1322979 -1307024 -1290242 -1274913 -1259122 -1239827 -1214254 
1996.568 -1183193 -1152098 -1129692 -1121893 -1131344 -1154312 -1182565 
1999.944 -1209429 -1231237 -1250498 -1274517 -1311153 -1363642 -1429433 
2003.319 -1500563 -1566003 -1617074 -1649952 -1664574 -1663848 -1651635 
2006.694 -1627703 -1592117 -1546887 -1496270 -1449148 -1415628 -1401724 
2010.069 -1407470 -1428046 -1452219 -1470052 -1477184 -1473222 -1462457 
2013.445 -1449974 -1436665 -1419228 -1392971 -1353468 -1301970 -1245411 
2016.820 -1193371 -1153486 -1128403 -1112870 -1097766 -1075060 -1041643 
2020.195 -1000323 -959924 -928813 -911421 -906991 -909669 -911818 -908875 
2024.052 -900708 -889863 -880307 -873462 -867609 -859044 -845750 -827032 
2027.910 -807256 -791711 -782814 -778845 -773653 -758471 -726022 -673854 
2031.767 -604573 -523831 -437149 -346940 -252937 -154244 -51984 49107 140908 
2036.107 216120 270822 306863 330637 351893 375239 402300 429563 450724 
2040.447 461139 462200 457756 454936 459215 470758 485253 496366 498423 
2044.786 489931 476729 467076 471753 499351 553492 632923 732946 844811 
2049.126 957402 1061552 1146724 1205065 1235767 1242313 1234106 1224403 
2052.983 1226031 1246533 1286377 1338488 1390573 1431992 1456926 1465802 
2056.841 1466600 1469326 1480597 1503438 1534760 1568378 1598408 1621987 
2060.698 1639847 1654814 1669548 1683818 1695194 1700117 1695926 1682754 
2064.555 1663561 1642308 1622519 1605358 1588996 1571072 1550255 1526780 
2068.413 1502574 1480397 1461181 1443328 1424346 1401110 1372723 1341945 
2072.270 1314094 1294851 1288172 1294220 1309541 1329448 1349589 1367438 
2076.128 1384623 1403769 1426939 1455330 1487512 1520595 1552384 1581314 
2079.985 1606689 1629470 1649891 1667253 1681124 1691369 1699186 1707103 
2083.843 1718712 1735711 1757934 1782719 1805477 1821215 1827936 1824609 
2087.700 1813263 1795895 1773969 1747088 1714820 1676567 1634293 1592023 
2091.557 1555310 1529174 1517303 1519797 1534494 1558735 1589528 1625479 
2095.415 1666455 1711494 1757967 1802782 1841346 1870762 1890695 1903441 
2099.272 1912959 1923276 1936822 1953064 1971470 1991142 2012645 2039409 
2103.130 2075431 2122909 2182214 2249887 2320568 2388962 2452102 2509352 
2106.987 2563077 2615275 2666646 2716089 2761237 2799886 2832402 2862085 
2110.844 2893438 2931198 2977502 3030985 3087310 3141607 3189202 3228156 
2114.702 3259369 3284441 3305741 3325006 3342836 3359899 3377730 3398668 
2118.559 3424917 3458615 3499230 3543991 3589258 3631589 3668778 3701794 
2122.417 3733107 3765559 3801691 3841770 3884761 3929461 3974367 4019077 
2126.274 4063591 4107941 4150992 4191338 4227136 4257819 4284052 4308515 
2130.132 4333412 4360655 4390544 4422107 4454377 4488724 4527393 4574504 
2133.989 4633207 4703306 4780183 4857242 4926807 4984083 5029768 5067380 
2137.846 5102547 5139024 5175639 5206791 5225737 5226274 5206690 5171011 
2141.704 5126015 5078509 5033624 4992027 4951540 4910722 4869137 4828695 
2145.561 4792914 4763098 4736166 4706588 4666296 4608894 4533520 4444836 
2149.419 4350213 4257953 4172670 4093291 4015030 3931701 3838728 3735179 
2153.276 3622067 3499764 3368981 3228590 3078033 2923292 2778343 2663546 
2157.134 2603075 2615742 2705687 2859817 3050938 3245748 3414931 3542755 
2160.991 3625308 3668979 3683682 3677500 3656148 3622868 3580672 3532767 
2164.848 3484199 3437307 3392189 3346008 3292553 3226153 3144044 3046901 
2168.706 2939037 2825965 2713822 2606508 2507519 2418948 2343287 2283061 
2172.563 2240361 2214117 2201262 2195334 2189706 2179516 2163499 2141289 
2176.421 2114751 2083521 2044469 1993505 1928235 1849232 1763223 1680991 
2180.278 1612708 1565386 1539415 1527744 1519564 1506364 1483556 1453867 
2184.135 1425144 1404800 1398451 1406130 1423282 1443129 1460915 1473682 
2187.993 1481694 1487213 1492067 1496190 1500645 1505367 1512183 1524086 
2191.850 1543804 1571371 1604660 1638716 1666954 1686845 1698387 1705306 
2195.708 1713855 1729158 1752744 1782753 1814560 1843010 1865238 1879913 
2199.565 1886968 1886801 1878648 1860047 1829766 1788875 1741832 1696358 
2203.423 1660834 1641011 1638916 1652020 1673640 1697256 1718612 1736210 
2207.280 1751347 1766317 1781322 1795296 1805277 1808804 1804778 1796094 
2211.137 1786512 1781156 1784050 1797259 1820084 1851694 1889331 1930997 
2214.995 1974133 2015275 2050195 2075597 2088282 2088415 2078627 2063911 
2218.852 2048065 2034849 2023896 2013111 1999430 1981722 1960220 1938220 
2222.710 1919682 1906969 1900047 1896852 1893091 1886136 1874722 1860579 
2226.567 1846537 1836022 1830066 1828535 1829866 1831829 1833327 1835024 
2230.425 1837486 1841712 1847535 1854556 1861378 1868632 1877018 1888332 
2234.282 1904539 1925805 1950800 1977794 2004223 2028956 2052925 2078394 
2238.139 2106760 2139191 2174255 2208489 2238862 2263109 2280463 2293153 
2241.997 2303546 2314205 2326131 2339556 2353681 2368839 2385863 2405887 
2245.854 2430377 2459533 2492056 2525316 2556644 2584309 2607275 2625976 
2249.712 2640343 2650344 2655445 2655011 2650211 2644244 2641643 2648444 
2253.569 2668947 2703953 2750466 2802387 2852079 2892104 2918789 2930164 
2257.427 2927162 2912017 2886834 2853446 2814293 2771574 2728960 2689517 
2261.284 2656745 2631909 2615509 2606209 2602842 2605108 2614075 2631076 
2265.141 2657578 2692551 2732861 2773908 2810524 2838472 2856348 2865087 
2268.999 2867221 2865954 2864186 2863019 2863219 2864720 2867988 2873058 
2272.856 2880329 2889702 2900076 2910450 2919823 2927729 2935334 2943774 
2276.714 2954216 2967260 2981806 2995618 3006895 3013968 3016104 3014569 
2280.571 3010999 3007629 3006194 3008029 3013701 3023978 3038892 3058045 
2284.428 3081037 3106265 3131962 3156760 3180190 3202287 3224451 3248185 
2288.286 3274191 3302436 3331817 3360433 3387614 3412994 3437741 3463992 
2292.143 3493819 3528090 3567175 3610306 3656448 3704568 3754430 3805869 
2296.001 3858752 3912376 3965238 4015599 4062688 4105667 4146008 4185349 
2299.858 4225798 4269062 4315944 4366278 4419463 4475199 4533520 4594997 
2303.716 4660535 4730772 4805779 4885589 4969973 5058563 5151799 5250084 
2307.573 5353659 5462560 5576052 5692898 5811857 5932092 6052898 6174274 
2311.430 6296223 6418374 6540357 6661231 6780355 6897694 7014323 7131859 
2315.288 7252763 7379868 7515068 7659415 7812243 7971976 8135515 8300062 
2319.145 8462914 8622582 8778523 8930359 9077477 9217910 9347658 9460985 
2323.003 9552121 9616616 9653170 9665095 9659641 9647377 9639348 9645310 
2326.860 9671905 9721204 9790672 9874116 9963949 10051801 10130920 10197299 
2330.718 10249304 10287878 10315971 10337688 10357098 10377933 10403113 
2334.093 10433828 10470654 10513593 10562037 10615953 10675207 10739699 
2337.468 10809262 10882641 10958344 11034059 11107340 11176147 11238401 
2340.843 11292162 11335116 11364093 11374195 11358685 11308656 11213512 
2344.219 11063493 10851114 10576195 10247437 9885912 9521977 9191614 8933031 
2348.076 8777441 8746065 8848212 9080049 9424549 9854355 10338706 10844354 
2351.933 11342292 11812984 12244719 12633797 12980890 13288184 13558263 
2355.309 13793586 13997793 14175668 14332485 14473292 14600575 14714562 
2358.684 14813013 14893245 14953942 14995784 15021268 15033171 15033513 
2362.059 15022126 14997259 14956892 14899657 14826282 14739482 14642314 
2365.434 14537768 14427391 14310911 14186863 14054088 13911090 13757572 
2368.810 13593406 13418538 13233048 13037258 12831385 12616673 12394669 
2372.185 12166644 11933495 11695705 11452841 11204910 10952431 10697654 
2375.560 10443501 10193771 9951812 9719815 9499354 9291056 9095240 8913347 
2379.417 8747147 8598822 8470178 8362176 8274057 8204392 8150708 8110600 
2383.275 8082211 8063847 8054126 8051594 8054666 8061789 8071847 8084270 
2387.132 8098786 8115968 8135718 8157291 8179440 8201016 8220465 8237653 
2390.990 8253052 8267269 8280912 8293814 8304925 8312862 8316847 8316712 
2394.847 8313807 8310565 8309417 8312322 8320630 8334580 8354068 8378997 
2398.705 8409671 8446461 8489876 8539919 8595747 8656686 8721556 8789951 
2402.562 8861941 8937799 9017630 9101669 9189888 9282017 9378838 9481269 
2406.419 9590872 9708701 9834833 9967882 10105654 10245097 10384211 10522114 
2410.277 10659484 10797713 10938194 11081575 11227044 11372834 11516938 
2413.652 11656904 11790990 11917217 12033873 12138261 12228223 12301639 
2417.027 12358020 12398897 12427264 12446869 12461701 12473739 12484003 
2420.403 12492187 12498121 12501770 12505078 12510397 12520492 12537134 
2423.778 12560838 12590921 12626600 12667501 12714105 12768356 12832443 
2427.153 12908179 12996970 13098687 13212348 13337281 13472775 13618637 
2430.528 13774980 13941951 14119255 14306082 14501830 14705410 14916528 
2433.904 15134885 15360251 15592501 15831266 16075630 16325532 16581086 
2437.279 16842612 17110808 17386346 17669544 17960180 18258372 18563478 
2440.654 18875164 19193100 19516400 19843718 20173576 20504032 20833730 
2444.029 21161906 21488972 21816074 22144298 22474722 22807560 23142860 
2447.405 23479956 23818362 24157664 24497090 24835450 25171124 25502138 
2450.780 25826196 26142470 26450596 26751366 27045854 27335036 27617914 
2454.155 27892886 28156862 28406668 28639880 28855298 29052542 29232086 
2457.530 29394402 29538902 29664646 29769632 29851718 29908758 29939108 
2460.906 29941202 29914188 29858284 29774140 29664044 29532056 29382878 
2464.281 29222480 29057008 28891948 28732936 28584812 28452480 28340526 
2467.656 28253916 28196494 28171074 28179134 28220220 28292534 28394606 
2471.031 28523806 28678176 28856256 29055908 29274404 29508756 29755298 
2474.406 30010324 30270970 30534760 30799668 31063886 31324812 31579084 
2477.782 31822990 32052052 32262388 32450796 32614316 32750998 32859378 
2481.157 32938798 32989092 33011864 33009612 32985338 32942478 32884468 
2484.532 32813278 32730382 32636892 32533138 32419946 32298576 32169998 
2487.907 32035284 31895052 31749268 31597506 31439352 31274314 31101864 
2491.283 30921582 30732342 30532342 30319750 30092276 29848346 29587172 
2494.658 29308538 29012904 28700936 28373206 28029536 27670352 27296046 
2498.033 26907468 26506944 26097396 25682152 25264986 24849624 24438550 
2501.408 24034168 23638210 23251210 22873568 22504696 22143494 21789284 
2504.784 21441348 21099814 20766228 20442624 20131232 19834110 19552962 
2508.159 19287444 19037288 18800940 18577516 18365752 18165596 17976618 
2511.534 17798768 17631860 17475502 17329134 17192740 17066282 16950436 
2514.909 16846330 16754890 16676897 16613513 16565010 16531691 16513174 
2518.285 16508218 16514516 16529970 16551379 16575819 16602188 16630176 
2521.660 16660681 16695730 16736915 16785334 16841268 16903478 16970108 
2525.035 17039230 17108568 17175712 17238798 17295444 17343340 17380378 
2528.410 17405312 17417212 17416280 17403450 17379654 17345962 17303306 
2531.786 17252106 17193120 17127112 17054736 16977136 16895660 16811544 
2535.161 16726481 16642399 16561154 16484814 16415402 16353056 16297873 
2538.536 16248647 16203623 16160978 16120158 16080752 16043311 16008483 
2541.911 15976513 15947089 15919179 15891407 15862744 15833054 15802469 
2545.287 15771443 15740348 15709188 15677616 15645498 15613246 15581682 
2548.662 15552215 15526254 15504208 15485562 15468738 15451639 15432790 
2552.037 15411195 15387337 15362448 15338112 15315354 15294898 15276673 
2555.412 15260337 15245134 15231099 15217612 15204058 15189852 15174034 
2558.788 15155025 15132861 15106684 15076564 15042981 15005353 14962962 
2562.163 14915054 14860945 14800946 14736259 14669663 14603865 14542325 
2565.538 14486722 14438284 14397214 14363136 14335362 14314061 14298994 
2568.913 14289714 14285640 14285673 14288413 14293276 14299953 14308857 
2572.289 14320773 14336698 14356732 14380535 14407216 14435885 14465721 
2575.664 14496725 14528518 14561170 14594716 14628332 14661438 14693962 
2579.039 14726491 14760288 14797415 14839378 14887484 14942008 15002335 
2582.414 15066992 15134783 15204092 15273928 15343844 15413530 15482987 
2585.790 15552593 15623172 15695617 15771065 15850270 15932824 16018556 
2589.165 16106198 16194407 16282462 16370259 16457729 16545733 16634548 
2592.540 16724071 16813370 16901342 16986304 17067418 17144206 17216666 
2595.915 17285584 17351616 17415522 17478194 17540496 17603152 17666748 
2599.291 17731942 17798664 17866848 17936388 18007080 18079682 18155128 
2602.666 18234770 18319714 18410690 18507978 18610890 18719188 18832082 
2606.041 18949640 19072220 19200096 19333276 19471520 19614142 19760210 
2609.416 19908892 20059570 20211584 20364902 20518518 20671458 20822746 
2612.792 20971028 21115604 21256090 21392580 21525250 21653992 21778134 
2616.167 21896462 22008092 22112116 22207970 22296380 22378284 22454936 
2619.542 22527936 22598402 22667168 22734864 22801660 22867558 22932422 
2622.917 22996070 23057946 23117976 23176236 23232928 23288544 23343750 
2626.292 23398646 23453480 23508040 23562222 23616062 23670540 23726072 
2629.668 23783572 23843704 23906050 23969912 24034062 24097066 24157664 
2633.043 24215396 24269984 24321772 24371326 24419026 24465120 24510132 
2636.418 24554342 24598312 24642882 24688402 24735542 24784582 24835976 
2639.793 24889974 24946820 25007010 25070436 25137032 25206130 25277172 
2643.169 25349138 25421786 25494864 25568940 25644998 25723528 25805450 
2646.544 25891112 25980452 26073646 26170482 26270792 26374540 26481410 
2649.919 26590774 26701786 26813918 26926256 27038730 27151266 27264152 
2653.294 27377840 27493394 27611240 27732226 27856990 27986032 28119776 
2656.670 28258054 28400054 28544614 28690494 28836744 28982476 29127936 
2660.045 29273376 29419112 29565394 29712046 29858568 30004536 30149702 
2663.420 30294490 30439610 30585914 30733978 30884154 31035806 31187974 
2666.795 31339624 31489548 31637420 31783130 31927250 32070064 32212462 
2670.171 32355048 32498286 32643284 32790586 32941118 33095424 33253752 
2673.546 33415966 33581428 33749240 33918524 34088044 34257100 34425140 
2676.921 34591740 34757436 34922836 35089264 35258024 35430732 35608260 
2680.296 35792004 35982348 36179652 36384360 36596844 36817360 37045932 
2683.672 37282460 37526304 37776684 38032952 38294732 38562104 38836124 
2687.047 39117024 39405724 39702244 40006156 40316684 40633104 40954860 
2690.422 41281620 41613700 41951104 42293996 42642532 42996392 43355740 
2693.797 43721212 44093304 44472428 44858868 45252012 45650700 46054068 
2697.173 46460908 46871264 47285632 47704644 48129136 48559416 48994832 
2700.548 49434212 49876304 50319924 50764636 51210284 51656428 52102692 
2703.923 52548000 52990204 53427352 53857064 54277512 54687324 55085520 
2707.298 55471016 55842464 56198956 56539396 56862808 57168956 57458268 
2710.674 57731008 57988504 58231716 58461680 58679404 58885476 59080180 
2714.049 59263388 59433644 59589288 59727504 59845800 59941684 60013580 
2717.424 60061100 60084500 60085300 60065896 60028760 59977516 59915892 
2720.799 59848044 59778304 59710932 59649992 59598984 59561016 59538972 
2724.175 59535288 59552048 59590736 59651968 59736020 59842152 59969336 
2727.550 60116732 60283476 60469248 60673576 60895808 61134396 61387356 
2730.925 61652108 61925660 62205808 62490760 62779160 63070052 63362168 
2734.300 63654104 63943848 64229600 64509244 64781600 65046080 65302252 
2737.676 65549864 65788908 66019132 66240528 66453576 66659236 66859396 
2741.051 67056084 67251504 67447912 67647688 67852448 68064656 68286552 
2744.426 68520048 68766784 69027376 69301408 69587448 69883480 70186880 
2747.801 70494744 70804144 71111192 71411504 71700376 71972160 72221576 
2751.177 72444744 72638456 72801816 72935400 73040960 73120864 73177992 
2754.552 73214736 73232784 73232824 73213992 73173992 73109528 73016424 
2757.927 72891000 72730392 72533312 72299872 72031296 71729616 71396504 
2761.302 71033528 70642240 70223992 69781176 69317272 68836280 68343632 
2764.677 67844616 67344856 66849960 66365584 65896796 65449192 65027184 
2768.053 64634344 64273088 63944688 63649000 63385368 63153388 62952564 
2771.428 62782644 62643380 62533812 62451812 62394660 62358244 62338276 
2774.803 62330820 62331736 62337628 62344972 62350252 62348988 62337320 
2778.178 62310436 62264080 62194796 62099980 61978472 61830484 61658144 
2781.554 61464228 61253116 61030360 60801084 60570448 60343052 60121600 
2784.929 59908020 59702756 59504812 59312156 59121904 58930936 58735504 
2788.304 58532312 58318524 58092116 57852084 57598680 57332756 57056076 
2791.679 56770284 56478336 56182816 55887420 55596328 55314280 55045840 
2795.055 54795268 54566256 54361284 54181748 54028548 53902000 53802304 
2798.430 53730040 53685160 53667872 53677808 53714180 53775680 53860628 
2801.805 53966680 54091028 54231072 54383480 54545104 54713368 54886280 
2805.180 55062460 55241160 55421888 55603752 55785120 55963396 56135004 
2808.556 56295772 56441884 56569628 56676116 56758876 56816052 56846000 
2811.931 56847624 56819868 56762808 56676984 56563700 56425360 56264544 
2815.306 56084856 55890396 55686004 55477308 55271116 55074724 54895496 
2818.681 54741216 54618408 54533008 54489208 54490032 54536764 54629304 
2822.057 54765688 54942796 55155792 55399080 55665700 55948320 56239988 
2825.432 56533320 56821868 57099796 57361912 57603864 57822336 58014972 
2828.807 58180568 58318752 58430676 58517564 58582324 58628284 58658812 
2832.182 58677928 58689724 58697384 58704404 58713736 58727956 58750336 
2835.558 58784140 58832888 58900808 58991892 59109756 59258680 59442720 
2838.933 59666604 59936660 60260556 60647516 61108464 61655164 62300184 
2842.308 63057176 63939972 64964072 66146792 67505496 69057552 70816040 
2845.683 72785632 74956152 77297360 79756872 82251776 84677976 86916560 
2849.059 88835808 90317712 91266016 91617096 91352328 90496136 89114784 
2852.434 87297680 85155408 82805048 80351304 77892112 75507600 73254984 
2855.809 71175672 69292168 67610288 66124336 64819060 63674316 62666684 
2859.184 61773180 60973200 60247084 59578916 58954848 58362864 57793872 
2862.560 57240740 56698580 56165092 55640428 55126712 54628248 54151008 
2865.935 53702444 53290676 52924176 52610716 52356312 52164936 52037696 
2869.310 51972972 51966028 52009496 52094512 52209100 52340616 52476132 
2872.685 52602748 52709876 52790468 52841132 52862796 52859732 52839036 
2876.061 52807492 52772244 52738796 52710776 52690724 52679952 52679204 
2879.436 52688628 52708380 52737936 52777484 52827284 52888060 52961080 
2882.811 53048008 53149476 53265540 53394864 53534948 53682384 53834520 
2886.186 53989228 54145788 54305112 54468996 54639676 54819776 55011124 
2889.562 55215952 55436156 55674404 55934000 56219548 56536904 56893476 
2892.937 57297784 57760144 58291352 58901376 59599476 60390836 61275512 
2896.312 62245496 63284500 64366228 65453084 66502228 67465672 68295704 
2899.687 68954592 69416512 69673920 69737792 69637928 69417488 69123832 
2903.063 68807584 68514072 68278488 68129536 68087288 68164928 68372528 
2906.438 68717296 69204880 69840520 70629568 71577792 72691960 73979464 
2909.813 75446616 77097568 78930688 80936120 83091808 85366448 87714456 
2913.188 90079008 92399208 94606400 96632192 98417904 99911952 101080504 
2916.563 101908784 102401856 102581288 102480208 102139016 101595208 
2919.457 100879576 100014272 99009520 97867648 96585792 95161120 93595040 
2922.832 91897176 90085784 88189352 86244664 84289976 82366200 80510448 
2926.207 78751192 77110344 75600344 74223984 72977104 71849696 70828048 
2929.582 69896480 69040040 68245648 67502320 66803156 66143052 65519468 
2932.958 64930900 64376332 63854864 63365660 62907332 62478824 62078572 
2936.333 61703972 61351140 61015372 60690380 60370088 60050332 59728684 
2939.708 59406212 59087052 58777648 58485416 58216976 57978048 57771272 
2943.083 57597132 57452860 57332684 57228264 57128328 57020788 56893400 
2946.458 56736372 56544492 56318744 56066796 55801092 55538640 55296780 
2949.834 55089996 54929484 54821020 54764556 54755612 54786360 54846996 
2953.209 54926140 55013344 55098612 55173212 55230664 55266412 55277512 
2956.584 55262760 55222460 55157820 55071412 54966824 54848760 54721936 
2959.959 54591692 54462424 54337740 54220072 54110884 54011252 53922036 
2963.335 53844312 53779240 53727228 53688232 53661200 53644552 53636232 
2966.710 53634992 53640092 53651600 53670572 53697944 53734728 53781604 
2970.085 53839324 53908716 53990952 54087764 54199840 54327788 54470500 
2973.460 54625168 54787224 54951216 55110420 55257680 55385416 55486416 
2976.836 55552984 55578816 55558332 55488712 55369796 55204436 54998936 
2980.211 54761624 54502656 54233212 53963712 53703416 53459768 53237116 
2983.586 53036628 52855764 52689152 52528328 52363488 52185636 51986712 
2986.961 51761864 51509636 51231608 50930916 50612040 50278072 49930308 
2990.337 49567448 49186636 48783388 48354960 47900800 47423460 46929992 
2993.712 46430008 45933580 45450152 44985568 44541044 44113476 43696408 
2997.087 43282116 42863544 42436164 41998620 41552660 41102236 40651804 
3000.462 40205552 39766616 39336360 38915448 38504204 38102800 37711916 
3003.838 37332360 36965004 36610576 36268684 35939044 35620844 35313660 
3007.213 35017356 34732524 34459716 34199628 33952092 33716512 33490724 
3010.588 33272530 33059306 32849122 32640464 32433442 32228590 32026544 
3013.963 31828444 31634782 31445660 31260926 31080506 30904468 30733088 
3017.339 30567036 30406700 30252640 30104848 29962928 29826520 29695086 
3020.714 29568056 29445174 29326298 29211424 29100620 28994874 28894888 
3024.089 28802504 28719910 28649366 28593270 28553496 28531062 28525752 
3027.464 28536510 28560182 28592386 28627422 28658178 28676796 28676196 
3030.840 28650250 28594934 28509618 28396340 28259222 28104046 27936914 
3034.215 27762778 27585926 27409320 27234622 27063096 26895482 26731984 
3037.590 26573092 26418728 26268856 26123506 25982880 25847294 25717130 
3040.965 25592980 25474696 25362382 25255574 25153778 25056782 24964368 
3044.341 24876360 24792544 24712882 24636850 24564228 24495584 24431540 
3047.716 24373008 24320896 24275202 24234666 24197738 24161658 24124282 
3051.091 24084284 24041662 23997504 23953700 23911582 23872094 23835408 
3054.466 23801140 23768908 23739126 23712458 23690098 23672638 23660320 
3057.842 23651924 23646188 23641604 23637370 23633872 23632156 23633590 
3061.217 23639540 23650736 23667040 23688244 23714452 23745844 23783258 
3064.592 23827568 23878604 23935738 23997014 24059766 24121340 24179382 
3067.967 24232458 24279444 24320054 24353592 24379492 24397402 24406828 
3071.343 24408266 24402728 24391688 24377108 24360708 24343814 24327484 
3074.718 24312380 24299206 24288168 24279722 24273836 24269842 24267038 
3078.093 24264096 24259892 24253830 24245876 24236348 24226152 24216026 
3081.468 24206532 24198160 24190872 24184358 24178472 24172902 24167508 
3084.844 24162322 24157700 24154020 24152270 24154056 24160222 24171886 
3088.219 24189436 24212698 24240692 24272506 24306774 24342622 24379492 
3091.594 24417274 24455726 24494916 24534462 24574152 24614266 24655086 
3094.969 24697522 24742874 24792088 24846220 24905660 24970298 25039264 
3098.344 25111578 25185624 25259612 25332314 25402426 25469356 25533270 
3101.720 25595016 25655752 25716952 25779816 25844692 25911722 25980276 
3105.095 26049438 26118684 26187728 26256502 26325180 26393800 26462008 
3108.470 26529592 26596306 26661832 26726874 26792420 26859528 26929782 
3111.845 27004068 27082668 27165376 27251274 27338882 27426508 27512704 
3115.221 27595704 27674272 27748332 27817496 27882888 27945782 28007590 
3118.596 28069546 28132892 28197448 28263358 28330232 28397578 28465182 
3121.971 28533078 28601232 28669470 28737504 28804878 28871374 28936926 
3125.346 29001886 29066820 29132756 29200296 29269832 29341612 29415318 
3128.722 29490776 29567276 29644320 29721198 29797384 29872234 29945640 
3132.097 30017992 30090644 30164832 30242090 30323728 30410148 30500706 
3135.472 30593700 30687498 30780248 30870956 30959332 31045914 31131692 
3138.847 31217416 31303800 31390768 31477970 31564582 31650108 31734008 
3142.223 31816502 31897760 31978608 32059756 32142452 32227628 32316174 
3145.598 32408736 32505642 32606602 32710980 32817564 32925036 33031884 
3148.973 33137116 33239442 33338856 33435538 33529952 33623172 33715940 
3152.348 33808948 33902400 33996236 34090052 34183568 34276888 34370156 
3155.724 34464236 34559736 34657084 34756500 34857808 34960180 35063440 
3159.099 35167224 35271716 35377240 35484628 35593832 35705016 35817624 
3162.474 35930768 36043764 36155884 36266596 36375640 36483272 36589272 
3165.849 36693784 36796772 36898156 36998124 37096672 37193976 37290224 
3169.225 37385656 37480680 37575724 37671188 37767320 37864380 37962364 
3172.600 38061020 38159988 38259088 38357780 38455476 38551892 38646156 
3175.975 38737144 38824236 38906528 38984272 39058328 39130368 39202092 
3179.350 39275100 39350472 39428112 39507324 39586736 39665684 39743416 
3182.726 39820292 39896668 39973244 40050776 40129336 40208860 40289196 
3186.101 40370312 40452064 40534520 40617204 40699656 40781212 40861112 
3189.476 40939128 41015632 41091564 41168168 41246824 41328484 41413620 
3192.851 41502420 41594336 41688388 41783588 41878520 41971648 42061516 
3196.227 42147016 42227856 42304916 42379760 42454360 42530580 42609304 
3199.602 42690268 42772492 42854512 42935268 43014684 43093564 43172900 
3202.977 43254008 43337692 43423076 43509576 43595620 43679736 43761344 
3206.352 43840064 43915760 43988536 44058576 44125948 44191056 44254888 
3209.728 44318400 44383060 44449672 44518388 44588696 44659528 44729748 
3213.103 44798764 44866472 44933344 45000524 45068668 45138544 45210352 
3216.478 45284008 45359512 45436612 45515496 45595496 45675916 45755872 
3219.853 45834040 45909604 45982236 46052520 46121420 46190324 46260868 
3223.229 46333928 46410352 46490184 46572912 46657756 46743868 46829704 
3226.604 46914232 46996408 47075684 47152204 47226704 47300040 47373272 
3229.979 47447224 47522148 47597820 47674140 47750428 47826440 47901872 
3233.354 47975876 48047928 48117404 48184220 48249012 48313152 48378592 
3236.729 48447008 48519436 48595356 48673188 48750916 48826876 48900332 
3240.105 48972020 49043944 49117584 49194312 49273660 49354208 49434436 
3243.480 49513192 49590700 49668408 49748208 49831484 49918456 50007484 
3246.855 50095940 50181696 50262856 50339792 50414136 50488532 50564688 
3250.230 50643908 50725644 50808584 50891164 50972308 51051496 51129388 
3253.606 51207076 51285332 51365100 51446708 51529784 51614184 51699312 
3256.981 51784676 51869424 51953140 52034932 52114572 52192136 52267996 
3260.356 52342444 52416012 52488468 52559704 52629156 52696900 52763080 
3263.731 52828968 52895320 52963140 53032920 53104504 53177376 53251084 
3267.107 53325440 53400748 53477716 53557060 53638668 53722316 53806916 
3270.482 53891012 53973732 54054444 54133368 54211216 54289040 54368084 
3273.857 54448792 54531620 54616488 54702768 54790116 54877860 54965808 
3277.232 55054528 55144732 55237964 55335768 55439172 55548504 55663668 
3280.608 55783272 55905960 56030756 56157288 56285812 56417472 56553060 
3283.983 56692880 56837240 56985348 57136608 57290604 57447528 57607836 
3287.358 57772336 57941360 58114996 58293288 58476012 58663592 58856260 
3290.733 59055244 59260768 59473040 59691620 59915400 60143860 60376216 
3294.109 60613072 60854940 61102740 61356864 61617592 61884544 62157668 
3297.484 62437160 62723920 63018756 63322372 63634804 63954748 64280584 
3300.859 64610696 64943984 65280720 65622272 65970072 66325940 66690996 
3304.234 67065200 67448136 67839432 68238512 68645264 69059888 69482104 
3307.610 69911696 70348384 70791856 71241768 71698816 72162888 72634304 
3310.985 73112864 73597800 74088496 74584920 75087176 75596520 76114040 
3314.360 76640488 77175568 77718232 78267024 78820952 79379600 79943920 
3317.735 80514952 81093440 81679024 82270112 82864144 83458744 84052320 
3321.111 84644520 85236080 85827480 86418840 87009424 87597360 88180992 
3324.486 88759456 89332928 89902304 90468640 91031816 91590704 92142976 
3327.861 92685984 93217560 93736664 94242688 94735328 95214048 95677064 
3331.236 96122056 96546640 96949408 97329320 97686416 98020216 98329720 
3334.612 98612872 98867256 99090816 99283088 99445152 99579192 99687392 
3337.987 99770936 99828848 99858864 99857784 99822592 99751968 99645872 
3341.362 99504976 99330392 99122656 98881272 98604896 98292160 97941208 
3344.737 97550928 97120136 96647880 96133632 95577872 94982416 94350592 
3348.113 93687208 92997288 92285392 91554944 90807680 90044320 89264920 
3351.488 88469696 87659800 86836512 86002008 85158672 84308768 83455008 
3354.863 82600808 81750208 80907136 80075264 79256984 78453144 77662912 
3358.238 76885712 76120400 75367584 74628944 73906632 73203056 72519336 
3361.614 71855608 71210728 70582904 69970896 69374024 68792832 68227928 
3364.989 67680560 67151168 66640272 66147796 65673380 65216804 64777172 
3368.364 64353624 63944540 63547804 63161432 62783600 62412600 62047880 
3371.739 61688316 61333584 60982732 60634640 60288040 59941684 59594384 
3375.115 59245156 58892576 58535080 58170716 57797804 57415308 57023168 
3378.490 56622508 56215244 55803276 55387936 54969380 54546532 54117940 
3381.865 53682048 53237900 52785788 52326336 51861060 51390872 50916868 
3385.240 50439628 49960048 49478988 48998056 48519028 48043708 47573492 
3388.615 47109180 46650672 46197660 45748912 45303572 44861036 44421264 
3391.991 43984796 43553200 43128144 42711584 42304260 41905960 41514888 
3395.366 41128208 40743036 40356752 39968956 39580528 39194332 38813224 
3398.741 38440308 38076716 37721996 37374680 37031824 36691548 36352368 
3402.116 36013488 35675264 35337560 35000728 34664440 34328664 33993368 
3405.492 33659148 33326942 32997672 32672472 32352154 32036818 31727024 
3408.867 31422932 31124858 30833070 30547308 30267062 29991258 29718538 
3412.242 29448046 29179068 28912172 28647986 28387426 28131406 27880202 
3415.617 27633804 27392064 27154794 26922238 26694598 26471692 26253298 
3418.993 26038956 25827392 25618214 25411210 25206764 25005394 24808296 
3422.368 24615564 24426948 24241778 24059242 23878500 23699826 23523676 
3425.743 23350566 23181234 23015424 22852122 22690348 22528320 22365308 
3429.118 22200926 22035316 21869072 21703310 21538690 21375942 21215972 
3432.494 21059744 20907884 20761466 20620518 20484406 20351882 20221062 
3435.869 20089552 19955966 19819754 19681190 19541732 19403086 19266490 
3439.244 19132672 19001252 18871114 18740638 18609160 18476478 18343700 
3442.619 18212760 18085760 17963738 17846754 17732874 17619300 17502444 
3445.995 17380412 17252278 17119736 16985786 16854116 16728099 16608901 
3449.370 16496068 16387805 16281292 16173977 16064696 15953103 15839892 
3452.745 15726089 15612250 15498542 15384247 15268814 15151594 15032622 
3456.120 14912379 14791759 14672028 14554180 14439037 14327006 14218017 
3459.496 14111520 14006690 13902503 13797862 13692595 13587526 13483507 
3462.871 13382521 13285759 13193767 13105619 13019435 12932619 12842921 
3466.246 12749316 12652150 12552959 12454166 12357407 12263498 12172369 
3469.621 12082862 11993474 11903697 11813358 11723244 11634032 11546371 
3472.997 11460291 11375181 11289952 11203584 11115737 11026583 10936324 
3476.372 10846255 10756953 10669400 10584649 10503342 10425785 10352245 
3479.747 10282212 10214531 10147844 10081406 10014366 9947066 9880319 
3483.122 9814971 9751734 9690676 9631149 9572275 9513680 9455160 9397360 
3486.980 9341089 9286926 9234596 9183458 9131988 9079440 9025579 8971421 
3490.837 8918724 8869652 8825792 8787517 8754213 8724159 8695492 8667232 
3494.695 8638536 8610179 8583074 8558640 8537520 8520557 8507987 8499776 
3498.552 8496194 8497174 8502310 8511163 8522787 8535864 8549313 8562594 
3502.409 8575706 8589596 8606021 8627213 8655638 8693295 8741062 8799181 
3506.267 8866135 8939186 9014923 9089624 9160446 9226101 9287399 9346811 
3510.124 9408160 9475106 9549920 9633148 9723474 9818835 9916590 10014976 
3513.982 10113420 10212021 10311119 10410648 10509622 10606581 10699454 
3517.357 10786673 10867727 10942747 11012819 11078516 11140043 11196308 
3520.732 11245100 11283389 11307908 11316172 11306446 11278628 11233607 
3524.107 11173597 11101087 11018086 10926030 10825092 10714193 10592151 
3527.483 10457756 10310814 10152831 9985750 9812870 9637248 9461188 9286249 
3531.340 9113139 8941791 8771659 8602777 8434569 8266695 8098279 7928544 
3535.198 7756819 7582396 7405651 7227360 7048469 6870561 6695081 6523438 
3539.055 6357311 6198641 6049470 5911535 5785800 5672252 5569072 5473364 
3542.912 5381569 5289559 5193981 5093059 4985390 4871349 4751742 4628585 
3546.770 4503756 4379967 4259659 4145205 4037972 3938221 3845046 3756302 
3550.627 3669547 3582041 3492917 3402341 3311684 3223683 3140473 3062984 
3554.485 2991081 2922825 2855981 2788081 2717590 2644510 2569577 2494622 
3558.342 2421447 2351948 2287224 2227405 2172923 2123441 2079226 2040208 
3562.199 2007053 1979691 1957624 1939617 1922976 1903541 1876319 1835556 
3566.057 1776232 1695227 1593053 1473515 1344438 1214701 1092908 984533 
3569.914 892752 816527 752894 697567 645599 593571 539525 483330 426545 
3574.254 371558 320723 275265 235646 200540 168254 136268 103125 67399 29059 
3579.076 -10834 -50725 -88525 -122214 -150435 -172362 -188061 -197566 
3582.933 -202136 -202136 -198659 -192598 -186040 -182099 -184616 -198824 
3586.791 -228829 -276680 -341146 -417387 -497620 -574098 -639777 -691023 
3590.648 -727080 -749904 -762506 -769485 -775009 -782384 -794853 -813936 
3594.505 -840261 -872966 -910066 -948419 -984157 -1014538 -1037875 -1054435 
3598.363 -1066334 -1077440 -1091784 -1112176 -1139904 -1173478 -1210189 
3601.738 -1246170 -1277854 -1302961 -1319940 -1329025 -1330511 -1325655 
3605.113 -1316009 -1303985 -1292951 -1287071 -1290242 -1306099 -1335202 
3608.489 -1375829 -1422993 -1471042 -1514728 -1550552 -1578384 -1599974 
3611.864 -1618593 -1637573 -1658567 -1681408 -1703356 -1720848 -1730386 
3615.239 -1729528 -1718208 -1699098 -1676820 -1658204 -1650645 -1660151 
3618.614 -1689857 -1739362 -1803315 -1873394 -1941087 -1999436 -2043860 
3621.990 -2073309 -2088313 -2090292 -2080630 -2059756 -2027305 -1983143 
3625.365 -1928090 -1865146 -1799520 -1740187 -1697910 -1684246 -1708109 
3628.740 -1771010 -1865113 -1974996 -2083169 -2177238 -2250982 -2304576 
3632.115 -2342213 -2369994 -2393061 -2415204 -2437445 -2458663 -2476784 
3635.490 -2490028 -2497473 -2500735 -2501953 -2503765 -2508147 -2516020 
3638.866 -2527188 -2541188 -2557328 -2575708 -2596195 -2618064 -2638978 
3642.241 -2654456 -2659890 -2650373 -2623005 -2577981 -2518491 -2450031 
3645.616 -2379023 -2311398 -2252168 -2204436 -2171402 -2156269 -2163061 
3648.991 -2195799 -2256091 -2340664 -2440377 -2542011 -2631864 -2698846 
3652.367 -2737503 -2748500 -2737141 -2711754 -2682184 -2658112 -2647211 
3655.742 -2653534 -2676224 -2710437 -2748105 -2781127 -2803909 -2814806 
3659.117 -2815695 -2810658 -2805489 -2805095 -2811152 -2822871 -2835808 
3662.492 -2844532 -2843774 -2830508 -2803909 -2764666 -2714191 -2652151 
3665.868 -2577322 -2487293 -2380835 -2257838 -2120528 -1970378 -1806647 
3669.243 -1623115 -1406546 -1138020 -799913 -377928 136401 746388 1452936 
3673.100 2251419 3126722 4034929 4894403 5592062 5998638 6025784 5658624 
3676.958 4954623 4012155 2936168 1824942 756678 -205382 -1014372 -1649127 
3680.815 -2112022 -2427890 -2631666 -2760188 -2842260 -2894432 -2923033 
3684.190 -2929352 -2913719 -2879522 -2834031 -2786000 -2745471 -2719426 
3687.566 -2711754 -2722225 -2747743 -2783597 -2825241 -2869910 -2915464 
3690.941 -2960650 -3003693 -3042915 -3076178 -3102201 -3120558 -3131743 
3694.316 -3137269 -3138749 -3138388 -3137368 -3136183 -3134210 -3130164 
3697.691 -3121940 -3108419 -3089436 -3067229 -3045152 -3028207 -3020836 
3701.067 -3025805 -3043013 -3069236 -3099635 -3128256 -3150526 -3163223 
3704.442 -3165229 -3156414 -3137203 -3108419 -3071342 -3027088 -2978190 
3707.817 -2927378 -2878008 -2833735 -2798082 -2774740 -2767037 -2778066 
3711.192 -2809111 -2859312 -2924218 -2996815 -3068019 -3129341 -3175295 
3714.568 -3203450 -3214435 -3211837 -3199799 -3181807 -3160756 -3137730 
3717.943 -3112827 -3085916 -3057128 -3027417 -2998263 -2971510 -2947815 
3721.318 -2927246 -2908881 -2891437 -2874124 -2857073 -2841668 -2830541 
3724.693 -2826229 -2830904 -2845223 -2867541 -2893609 -2917372 -2932282 
3728.069 -2933203 -2917636 -2886368 -2843676 -2796305 -2751167 -2714718 
3731.444 -2689593 -2674610 -2664961 -2655279 -2642864 -2629855 -2623367 
3734.819 -2632259 -2664368 -2721764 -2798807 -2884722 -2967495 -3038045 
3738.194 -3091871 -3128453 -3148716 -3152763 -3139144 -3105754 -3051864 
3741.570 -2980823 -2901476 -2828435 -2779778 -2772370 -2813423 -2894004 
3744.945 -2989247 -3070190 -3117301 -3123946 -3096246 -3045810 -2986417 
3748.320 -2930438 -2887026 -2862175 -2858949 -2877152 -2915529 -2971477 
3751.695 -3040677 -3115294 -3186807 -3245186 -3283038 -3298066 -3292048 
3755.071 -3270673 -3241338 -3211015 -3185721 -3168716 -3161578 -3164407 
3758.446 -3176742 -3197891 -3226275 -3258801 -3290568 -3315461 -3328153 
3761.821 -3325489 -3307700 -3279157 -3246633 -3217231 -3197069 -3189011 
3765.196 -3191280 -3198516 -3204009 -3202332 -3191576 -3173683 -3154111 
3768.572 -3139966 -3137763 -3150986 -3179669 -3219171 -3263307 -3305300 
3771.947 -3340220 -3365669 -3381187 -3387565 -3385790 -3376847 -3360934 
3775.322 -3338017 -3309147 -3275869 -3241897 -3212100 -3191313 -3183682 
3778.697 -3190820 -3211113 -3239727 -3269982 -3295895 -3312633 -3319078 
3782.073 -3316151 -3306780 -3294712 -3283136 -3274520 -3270114 -3269686 
3785.448 -3272515 -3277546 -3283630 -3289713 -3295073 -3299249 -3302012 
3788.823 -3303491 -3304050 -3304116 -3303590 -3302669 -3300466 -3295830 
3792.198 -3287609 -3274915 -3257815 -3237457 -3216343 -3196839 -3181709 
3795.573 -3172203 -3167269 -3163453 -3155460 -3137927 -3107333 -3063083 
3798.949 -3009188 -2953838 -2907598 -2882451 -2886500 -2920927 -2976512 
3802.324 -3037584 -3088153 -3116742 -3119670 -3100951 -3069960 -3038505 
3805.699 -3018105 -3017743 -3039986 -3080817 -3130065 -3176972 -3212955 
3809.074 -3233610 -3238806 -3230650 -3211640 -3183518 -3146875 -3101773 
3812.450 -3048278 -2988161 -2925238 -2865533 -2817176 -2787613 -2781358 
3815.825 -2796864 -2825110 -2853485 -2868956 -2863788 -2837092 -2794757 
3819.200 -2747282 -2708165 -2690877 -2703489 -2745998 -2808749 -2877448 
3822.575 -2937415 -2979803 -3002771 -3010010 -3008332 -3004153 -3002607 
3825.951 -3005799 -3013169 -3021330 -3026923 -3027088 -3020408 -3007970 
3829.326 -2991419 -2973616 -2956602 -2941859 -2929451 -2918097 -2905524 
3832.701 -2889034 -2866487 -2837026 -2801078 -2760748 -2719525 -2681526 
3836.076 -2650373 -2628867 -2618427 -2618361 -2627023 -2642106 -2661602 
3839.452 -2683995 -2709087 -2736581 -2766345 -2798675 -2833274 -2870470 
3842.827 -2910263 -2952752 -2997079 -3041236 -3082725 -3117762 -3143486 
3846.202 -3157236 -3157960 -3145592 -3120130 -3081804 -3029523 -2962197 
3849.577 -2878962 -2780601 -2671778 -2561314 -2462782 -2394148 -2372795 
3852.953 -2409504 -2501229 -2629559 -2767892 -2891305 -2986483 -3050449 
3856.328 -3087660 -3104241 -3106675 -3099306 -3084304 -3063018 -3036202 
3859.703 -3004779 -2970325 -2934322 -2899106 -2866257 -2838113 -2816880 
3863.078 -2805358 -2806016 -2819546 -2843577 -2872215 -2896999 -2908684 
3866.454 -2901377 -2873762 -2830443 -2780403 -2735758 -2708626 -2705761 
3869.829 -2726538 -2762131 -2799827 -2828073 -2841767 -2842853 -2838738 
3873.204 -2838738 -2850391 -2876987 -2915529 -2958313 -2995565 -3019125 
3876.579 -3024620 -3011985 -2984870 -2949559 -2913982 -2885315 -2869680 
3879.955 -2869779 -2884591 -2908354 -2932841 -2949757 -2952785 -2939884 
3883.330 -2913653 -2881299 -2852827 -2837915 -2842787 -2867475 -2904602 
3886.705 -2941694 -2967199 -2973780 -2959794 -2929484 -2890515 -2852761 
3890.080 -2824517 -2811843 -2816254 -2835183 -2863064 -2893083 -2920466 
3893.456 -2940772 -2951929 -2952488 -2942188 -2921157 -2890614 -2852662 
3896.831 -2810493 -2767629 -2727296 -2692326 -2663545 -2641020 -2623565 
3900.206 -2610028 -2599588 -2592440 -2590234 -2595174 -2609436 -2634696 
3903.581 -2671383 -2717516 -2769736 -2823003 -2872248 -2913160 -2942879 
3906.957 -2960420 -2966574 -2963710 -2954035 -2941134 -2927444 -2914805 
3910.332 -2904339 -2895880 -2888508 -2880443 -2870306 -2856316 -2837948 
3913.707 -2815530 -2790938 -2767234 -2747578 -2734606 -2730095 -2733223 
3917.082 -2742014 -2753175 -2763678 -2771646 -2776387 -2778494 -2778494 
3920.458 -2776683 -2772996 -2767069 -2759003 -2749883 -2742277 -2738721 
3923.833 -2741454 -2751167 -2766213 -2783070 -2797358 -2805489 -2805588 
3927.208 -2797786 -2784058 -2766872 -2748599 -2731280 -2716199 -2704576 
3930.583 -2697727 -2697299 -2704609 -2719788 -2741355 -2765752 -2788996 
3933.958 -2807037 -2817374 -2820073 -2816781 -2810526 -2804074 -2799465 
3937.334 -2797226 -2796239 -2795054 -2792420 -2787613 -2781226 -2774642 
3940.709 -2769703 -2768255 -2771613 -2779844 -2792189 -2806642 -2820534 
3944.084 -2830739 -2834821 -2831430 -2820731 -2804897 -2786988 -2770691 
3947.459 -2759036 -2753735 -2754459 -2759760 -2767399 -2775103 -2781852 
3950.835 -2787152 -2791301 -2794658 -2797062 -2798148 -2797226 -2793868 
3954.210 -2788568 -2782214 -2776024 -2771481 -2769275 -2769374 -2771284 
3957.585 -2773654 -2775629 -2776090 -2774280 -2770065 -2762855 -2753175 
3960.960 -2741520 -2729041 -2717484 -2708593 -2703226 -2701843 -2703950 
3964.336 -2707638 -2710898 -2712083 -2709811 -2703753 -2694269 -2682349 
3967.711 -2669176 -2655839 -2643654 -2633511 -2626496 -2622972 -2622610 
3971.086 -2625080 -2628867 -2632622 -2634828 -2634960 -2632622 -2628241 
3974.461 -2622445 -2615594 -2607986 -2599785 -2590991 -2582263 -2574259 
3977.837 -2567803 -2563554 -2561413 -2560622 -2560161 -2559206 -2557098 
3981.212 -2554199 -2551202 -2549093 -2548336 -2549060 -2550609 -2552387 
3984.587 -2554133 -2555780 -2557954 -2561512 -2566354 -2572381 -2578244 
3987.962 -2582823 -2585030 -2584667 -2582296 -2579265 -2576894 -2576136 
3991.338 -2576960 -2579331 -2582395 -2585425 -2588126 -2590333 -2592144 
3994.713 -2593791 -2595438 -2596722 -2598040 -2599324 -2601136 -2603902 
3998.088 -2607558 -2612268 -2617208 -2621621 -2624618 -2625738 
##END=
