
##TITLE=Z357a_3_c
##JCAMP-DX=5.01  $$ Nicolet v. 1
##DATATYPE=INFRARED SPECTRUM
##ORIGIN=UniL
##OWNER=Nicolet
##LONGDATE=2011/09/22
##TIME=09:38:30
##SPECTROMETER/DATA SYSTEM=Nicolet iS5
##DATA PROCESSING=
Ratio against background
%Transmittance->Absorbance
Truncated
ElementMultiply or ElementDivide
##COMMENTS=
Number of sample scans: 32
Collection length: 51.19 sec
Sample gain: 2.0
Background collected on: Jeu Sep 22 09:32:15 2011 (GMT+02:00);
Number of background scans: 32
Background gain: 2.0
Sample spacing:  1.000
Number of scan points: 12415
Resolution points: 8192
Number of FFT points: 65536
Apodization: N-B fort;
Phase correction: Mertz;
Laser frequency: 15798.0 cm-1
Number of rejected sample scans: 0
Number of rejected background scans: 0
Bench serial number: ASB1000141;
##RESOLUTION=4.000
##XUNITS=1/CM
##YUNITS=ABSORBANCE
##FIRSTX=649.893372
##LASTX=4000.122314
##FIRSTY=0.092242
##MAXX=4000.122314
##MINX=649.893372
##MAXY=0.289664
##MINY=-0.002721
##XFACTOR=1.000000
##YFACTOR=1.000000E-009
##NPOINTS=6950
##DELTAX=0.482117
##ZPD=6100
##XYDATA=(X++(Y..Y))
649.893 92242040 91832208 91454856 91154336 90954312 90853624 90837040 
653.268 90889040 91009184 91214216 91529256 91974192 92550696 93240640 
656.643 94015360 94851272 95743192 96706576 97769120 98951552 100261168 
660.018 101689584 103222640 104858648 106615848 108526040 110622632 
662.911 112917528 115393040 118004128 120702400 123451008 126219240 
665.803 128974288 131638240 134040296 135930176 137039632 137219872 
668.696 136532736 135200208 133471280 131511528 129394096 127126888 
671.589 124699352 122122744 119446328 116744808 114104592 111590496 
674.481 109232912 107034040 104980576 103060800 101271984 99619160 98107720 
677.856 96734608 95486016 94340176 93272672 92264744 91303712 90381760 
681.231 89491976 88625184 87769608 86914208 86054000 85192456 84341760 
684.606 83518744 82738496 82009424 81333040 80704992 80119168 79570824 
687.981 79057360 78576808 78124368 77690736 77261816 76819712 76348904 
691.355 75837640 75281512 74682848 74049048 73391256 72721736 72055232 
694.730 71409312 70802504 70255464 69786744 69409048 69128960 68945000 
698.105 68849520 68830528 68874912 68970864 69108520 69280696 69481912 
701.480 69707256 69952840 70215584 70494312 70789128 71102176 71434672 
704.855 71785744 72150912 72521832 72889472 73246664 73591672 73929184 
708.229 74269584 74627208 75015768 75450872 75950264 76537088 77244120 
711.604 78109216 79167600 80439936 81915904 83542960 85219864 86818824 
714.979 88198152 89232656 89848512 90030664 89829808 89345144 88714992 
718.354 88094488 87626224 87444680 87653104 88311272 89428056 90943816 
721.729 92729544 94575960 96231792 97443592 97987664 97740896 96701816 
725.104 95001384 92862552 90559768 88362512 86462376 84967552 83896128 
728.478 83199664 82795184 82595400 82534376 82565712 82661936 82805488 
731.853 82979048 83165352 83350224 83525568 83692792 83859872 84036552 
735.228 84227824 84431976 84640816 84846248 85043640 85235480 85429128 
738.603 85633088 85852024 86084496 86322784 86557848 86783864 87000432 
741.978 87212296 87425504 87644792 87871448 88103904 88341000 88583936 
745.352 88837144 89104944 89388616 89682240 89972536 90242696 90477896 
748.727 90670232 90820784 90938792 91036560 91122864 91201632 91271336 
752.102 91328816 91373224 91408232 91440864 91479104 91527704 91587480 
755.477 91655152 91727624 91804200 91888616 91987168 92105824 92247856 
758.852 92413184 92598960 92802320 93022656 93260800 93517864 93792584 
762.227 94080248 94373776 94669392 94969840 95289472 95653480 96098000 
765.601 96665016 97395288 98325936 99479608 100854752 102411952 104067472 
768.976 105698216 107147464 108272072 108982528 109280888 109277992 
771.869 109177440 109229160 109630256 110465736 111648976 112939144 
774.762 113972880 114364712 113840960 112291176 109818000 106678408 
777.654 103227808 99805952 96651640 93894128 91538872 89511120 87696248 
781.029 85990176 84323408 82664336 81015776 79400176 77847912 76387968 
784.404 75046328 73846496 72807368 71943848 71265264 70774000 70467928 
787.779 70343232 70398720 70638696 71074072 71719056 72590288 73703280 
791.154 75072360 76714176 78648808 80899872 83493520 86447944 89764288 
794.528 93412992 97329776 101410616 105509208 109462512 113091808 116225192 
797.903 118734408 120548648 121685088 122248472 122435072 122496920 
800.796 122678088 123187360 124125592 125453992 126973552 128352912 
803.689 129199800 129108848 127794800 125156936 121313496 116573856 
806.581 111364440 106143736 101259440 96911544 93122496 89770360 86647080 
809.956 83536088 80291856 76859176 73282160 69665864 66143356 62830164 
813.331 59798684 57081696 54676876 52562396 50709704 49092060 47686672 
816.706 46471860 45427232 44534176 43775672 43140184 42621072 42214892 
820.081 41919172 41729892 41640760 41645280 41739012 41922456 42201308 
823.455 42586240 43089612 43721616 44487736 45386068 46405448 47522036 
826.830 48699500 49890428 51033980 52068772 52941432 53617188 54094108 
830.205 54408076 54635316 54876732 55251620 55882108 56864428 58260928 
833.580 60074420 62238308 64599240 66921236 68927096 70305016 70784016 
836.955 70197432 68507784 65832556 62407548 58558360 54612696 50847544 
840.329 47473240 44598464 42249948 40394024 38964664 37884984 37080252 
843.704 36490948 36067524 35769880 35568408 35440760 35372572 35357400 
847.079 35392016 35474200 35599228 35759084 35944232 36147748 36366704 
850.454 36604232 36867028 37162824 37496936 37870920 38283372 38732836 
853.829 39219064 39745160 40316500 40938980 41618660 42360688 43172056 
857.204 44063672 45050836 46154580 47399884 48812232 50419940 52252896 
860.578 54341908 56720704 59416776 62439152 65761036 69303824 72929792 
863.953 76431032 79566888 82088672 83770984 84470856 84141744 82850352 
867.328 80757224 78101280 75164224 72207680 69470752 67135624 65311612 
870.703 64054540 63367420 63216312 63538216 64250656 65259388 66449404 
874.078 67696240 68872000 69844568 70505384 70780000 70639160 70106072 
877.452 69249688 68175240 66994564 65816128 64725904 63771436 62965432 
880.827 62287220 61697444 61148208 60598944 60028684 59437328 58845676 
884.202 58285292 57791600 57391028 57096924 56909380 56820280 56820052 
887.577 56904844 57080108 57359416 57760828 58299236 58982288 59807620 
890.952 60764612 61837244 63009060 64266748 65600268 67002140 68466240 
894.327 69984720 71546856 73137528 74732200 76294192 77772568 79094368 
897.701 80174320 80925144 81264960 81142280 80544264 79503176 78090056 
901.076 76405432 74568744 72692152 70879968 69218128 67765448 66561440 
904.451 65626240 64964376 64571016 64435676 64546912 64893812 65468380 
907.826 66266192 67284464 68521944 69977872 71650904 73540256 75644864 
911.201 77961536 80482920 83192568 86061224 89050024 92110616 95194448 
914.575 98266648 101312360 104345504 107404848 110552784 113861936 117396632 
917.950 121203192 125287352 129602224 134027568 138370368 142381776 
920.843 145758000 148212304 149527552 149607120 148526336 146539040 
923.736 144074656 141639856 139780928 139008576 139684064 142003248 
926.628 145939776 151255664 157490048 164007600 170123760 175113408 
929.521 178356592 179436832 178141840 174497504 168716432 161160992 
932.414 152269888 142505952 132355664 122257080 112591528 103684856 95759632 
935.789 88957008 83343680 78919288 75644512 73457848 72293656 72078936 
939.163 72726472 74126976 76117440 78476288 80946616 83226520 85027920 
942.538 86126632 86376104 85746864 84317496 82262272 79804136 77174024 
945.913 74590064 72211168 70138904 68420968 67058244 66023068 65272020 
949.288 64761212 64447968 64294300 64269060 64342940 64489400 64687676 
952.663 64920744 65178880 65458708 65761460 66090232 66447244 66832296 
956.037 67243304 67677032 68130704 68603080 69093872 69603088 70129672 
959.412 70671440 71225840 71791336 72368992 72962056 73574992 74211440 
962.787 74872488 75556064 76257896 76973688 77701040 78440208 79193600 
966.162 79963592 80751680 81556704 82376768 83210056 84057216 84921016 
969.537 85806160 86716448 87653712 88616528 89602376 90608624 91635544 
972.912 92685736 93764136 94874688 96019744 97198536 98409304 99651208 
976.286 100926352 102240016 103598832 105009136 106474072 107994616 
979.179 109570936 111205992 112907808 114690024 116569008 118560536 
982.072 120676328 122921192 125293688 127785832 130383920 133063856 
984.964 135786256 138495232 141110112 143531456 145658688 147393792 
987.857 148664704 149437360 149718480 149556208 149028992 148245392 
990.750 147325360 146389088 145556128 144923936 144564336 144522048 
993.643 144810576 145420496 146326880 147501536 148918272 150556560 
996.535 152403152 154445952 156671232 159063600 161605024 164277696 
999.428 167067088 169956912 172925760 175943040 178961184 181920752 
1002.321 184758832 187414400 189844496 192029776 193976288 195712064 
1005.213 197284016 198755792 200196944 201684848 203298000 205102064 
1008.106 207147840 209461440 212042880 214870016 217906896 221116336 
1010.999 224462176 227913680 231443344 235018656 238601712 242152976 
1013.891 245633904 249016528 252283872 255423520 258416032 261221760 
1016.784 263769664 265967184 267709488 268900160 269479712 269437056 
1019.677 268819104 267721472 266288992 264701360 263142672 261806160 
1022.570 260863664 260440416 260617616 261415904 262804752 264709920 
1025.462 267035072 269678496 272532736 275495840 278463200 281315104 
1028.355 283927712 286174016 287933536 289116640 289664352 289549824 
1031.249 288772256 287346208 285297728 282661472 279488192 275843456 
1034.142 271799520 267431024 262799232 257942432 252881168 247624320 
1037.035 242181712 236576432 230848704 225052864 219256256 213527024 
1039.928 207932560 202540688 197409200 192583776 188086512 183902192 
1042.821 179970032 176180800 172401232 168483312 164300816 159783520 
1045.714 154923632 149784752 144480176 139162816 133991208 129103096 
1048.607 124615160 120603448 117104704 114124752 111642728 109620232 
1051.500 108008040 106756784 105819824 105154912 104727432 104504840 
1054.393 104450680 104524640 104674728 104837848 104950232 104944328 
1057.286 104760752 104356496 103704376 102799464 101659144 100325536 
1060.179 98862176 97347232 95874816 94537688 93420232 92596904 92119504 
1063.554 92018792 92305144 92968680 93980304 95290344 96834344 98527560 
1066.930 100269560 101959936 103497480 104795832 105796152 106463400 
1069.823 106789320 106784832 106474240 105887304 105053912 104004104 
1072.716 102765408 101362488 99822552 98174216 96452128 94702360 92978328 
1076.091 91341944 89861392 88597432 87602960 86915792 86553160 86513408 
1079.466 86775128 87301528 88037032 88910416 89841264 90735104 91498744 
1082.842 92054832 92348672 92367112 92141960 91751936 91307880 90938016 
1086.217 90780520 90953616 91551632 92636728 94228040 96301888 98786632 
1089.592 101574440 104517312 107441560 110179832 112572896 114497056 
1092.485 115880560 116697128 116966224 116738176 116086904 115093856 
1095.378 113837336 112395640 110837264 109223240 107611792 106051936 
1098.271 104584208 103236088 102012824 100892744 99821544 98721240 97492904 
1101.646 96033344 94263144 92134824 89651696 86865320 83874464 80806752 
1105.022 77792744 74963864 72428184 70261512 68513840 67205440 66334204 
1108.397 65881640 65818904 66110484 66714176 67585504 68675024 69925048 
1111.772 71274872 72654008 73983472 75186640 76186968 76918976 77339288 
1115.147 77426400 77184352 76637520 75828288 74808632 73631320 72350680 
1118.523 71014256 69659720 68317264 67006088 65737016 64515852 63345336 
1121.898 62228484 61170328 60176784 59253440 58403192 57623692 56908092 
1125.273 56246624 55631392 55060204 54540484 54088292 53728352 53487720 
1128.648 53389020 53447664 53666672 54036056 54532484 55122084 55763832 
1132.024 56408192 57006580 57514056 57895096 58132420 58229628 58213492 
1135.399 58126852 58024360 57963472 57989864 58134996 58409296 58800904 
1138.774 59276872 59786972 60273500 60670872 60917384 60963172 60769908 
1142.149 60317276 59601644 58633672 57434784 56033848 54467192 52773028 
1145.525 50992768 49170308 47346004 45557888 43838488 42211060 40691180 
1148.900 39286556 37997984 36823024 35757972 34799504 33944780 33191654 
1152.275 32538246 31981818 31520042 31150666 30872308 30684156 30585346 
1155.650 30574220 30647850 30802906 31036376 31347212 31737074 32210462 
1159.026 32772292 33427418 34178228 35024284 35962044 36985280 38085724 
1162.401 39250832 40462936 41699692 42930692 44120848 45234508 46234628 
1165.776 47088864 47771364 48262012 48549408 48630232 48510656 48204992 
1169.151 47735156 47129860 46418760 45632004 44798364 43941496 43083136 
1172.527 42243340 41439644 40690524 40013572 39423756 38933860 38553124 
1175.902 38286448 38136836 38106340 38197036 38412216 38755984 39232880 
1179.277 39847708 40605672 41512588 42576592 43806564 45212704 46805088 
1182.652 48591652 50578124 52766932 55156732 57738840 60493544 63387968 
1186.028 66366552 69351712 72251552 74955168 77350368 79337480 80829096 
1189.403 81767288 82126344 81914272 81171200 79964792 78386344 76533336 
1192.778 74505648 72399728 70293952 68253248 66325480 64538724 62906908 
1196.153 61430944 60102384 58906308 57824228 56837504 55925480 55067988 
1199.529 54245528 53437280 52623136 51785124 50907780 49981648 49005772 
1202.904 47988380 46946492 45903968 44888888 43927016 43040036 42242716 
1206.279 41541212 40935340 40420312 39989552 39635844 39352616 39133992 
1209.654 38973580 38864820 38801956 38780980 38800868 38864352 38977568 
1213.030 39148608 39385264 39695164 40083260 40552156 41102164 41731136 
1216.405 42433684 43201080 44022124 44883592 45771736 46675684 47586916 
1219.780 48500724 49415460 50332016 51253420 52184960 53136148 54120640 
1223.155 55154964 56258732 57449948 58741800 60140892 61644968 63243448 
1226.531 64916976 66639960 68380136 70097432 71749592 73290832 74676200 
1229.906 75869448 76843512 77585424 78097912 78401032 78532944 78546632 
1233.281 78515432 78526744 78672592 79053656 79763800 80882784 82478880 
1236.656 84599752 87275000 90518096 94327536 98686432 103557328 108885272 
1240.031 114590008 120563784 126687440 132823648 138825264 144553328 
1242.925 149864384 154621504 158706464 162015408 164473488 166040096 
1245.818 166705984 166491296 165436768 163604416 161069520 157917424 
1248.711 154244608 150141872 145685280 140929056 135897232 130590736 
1251.604 124999304 119120144 112973480 106615344 100132296 93643096 87284432 
1254.979 81184144 75463336 70215352 65494464 61322216 57684532 54540368 
1258.354 51827604 49473980 47406644 45551224 43843988 42233628 40680444 
1261.729 39161516 37666632 36196864 34759300 33364796 32024336 30747242 
1265.105 29541206 28412754 27366548 26405912 25531408 24740242 24026184 
1268.480 23381162 22797680 22270012 21796146 21376708 21014184 20710968 
1271.855 20468152 20286118 20165384 20107632 20116552 20196312 20349762 
1275.230 20575872 20868216 21214056 21593950 21985260 22360424 22689964 
1278.606 22946568 23105256 23148870 23072236 22882472 22598368 22245110 
1281.981 21850396 21436858 21018184 20600434 20183538 19766936 19353472 
1285.356 18951684 18574924 18239262 17958072 17741192 17594424 17519832 
1288.731 17518864 17593802 17746750 17979552 18290822 18676226 19126994 
1292.107 19631406 20176180 20744298 21315664 21867434 22372320 22804522 
1295.482 23144292 23381756 23521400 23581042 23590698 23583142 23592028 
1298.857 23646746 23768278 23971768 24265182 24648422 25111404 25631324 
1302.232 26174672 26695374 27142766 27471616 27644114 27639384 27453932 
1305.608 27100408 26604020 25997020 25317878 24604588 23892958 23216534 
1308.983 22600008 22059996 21603668 21230098 20932884 20704468 20539290 
1312.358 20434774 20390460 20405880 20478988 20605334 20780200 20999370 
1315.733 21261726 21568426 21921064 22319156 22758572 23230830 23726106 
1319.109 24236416 24757044 25288024 25830836 26385420 26946986 27504056 
1322.484 28038654 28531204 28962074 29316586 29588378 29781308 29911632 
1325.859 30005638 30100834 30239886 30461822 30798424 31263630 31850408 
1329.234 32530244 33261012 33997632 34698784 35339212 35910760 36420320 
1332.610 36884920 37325244 37762224 38212448 38689768 39204992 39765384 
1335.985 40374348 41029832 41724388 42445448 43177732 43906964 44620716 
1339.360 45310080 45968940 46593344 47180348 47728352 48237500 48709288 
1342.735 49145816 49547692 49912988 50235444 50505616 50713988 50853764 
1346.111 50922124 50920600 50851712 50714472 50500480 50192520 49766416 
1349.486 49199512 48475864 47595048 46575532 45456332 44291392 43140952 
1352.861 42070820 41139280 40393840 39869720 39582924 39528772 39680060 
1356.236 39992168 40406604 40858924 41293716 41665448 41944792 42119340 
1359.612 42191084 42175236 42096780 41994680 41918880 41924132 42068156 
1362.987 42394808 42923636 43644492 44518576 45487164 46475288 47406756 
1366.362 48207100 48804300 49142812 49185560 48921248 48366964 47564916 
1369.737 46575456 45460820 44282368 43092724 41931580 40834172 39834308 
1373.113 38965568 38265532 37766848 37488700 37431160 37574028 37885564 
1376.488 38331000 38885548 39539840 40299960 41185508 42225372 43457168 
1379.863 44921624 46662332 48717512 51102744 53790752 56686988 59634256 
1383.238 62403076 64725252 66348412 67044324 66663488 65165712 62648812 
1386.614 59354928 55624688 51855980 48384148 45424140 43065648 41285484 
1389.989 39998528 39093168 38466192 38028612 37707396 37448424 37208492 
1393.364 36955984 36674604 36362308 36031088 35699764 35386336 35101264 
1396.739 34845384 34613272 34398384 34199020 34021172 33878612 33788244 
1400.115 33766396 33822804 33959724 34173892 34458640 34806472 35210916 
1403.490 35667712 36175220 36732724 37339256 37992308 38686868 39416680 
1406.865 40175784 40960900 41771772 42610656 43480352 44382328 45315304 
1410.240 46276088 47261100 48266196 49286056 50310216 51317516 52276780 
1413.615 53149364 53896412 54493824 54939752 55259372 55497788 55713764 
1416.991 55969804 56317612 56797168 57427824 58204888 59101212 60072780 
1420.366 61070440 62046924 62965968 63807012 64566292 65263316 65938288 
1423.741 66649384 67453008 68387696 69461968 70653784 71921720 73219016 
1427.116 74509584 75768920 76984288 78151528 79271384 80349784 81399336 
1430.492 82445864 83527296 84685552 85961864 87384016 88963112 90696520 
1433.867 92578536 94612584 96814888 99216000 101846736 104722248 107820616 
1437.242 111087832 114458544 117870016 121267624 124589160 127757552 
1440.135 130655736 133128984 135017936 136160880 136431472 135759936 
1443.028 134131792 131594288 128245968 124241056 119766728 115016128 
1445.921 110192512 105476720 101025568 96979928 93442208 90466712 88046928 
1449.297 86122792 84601480 83389448 82427000 81699296 81234072 81075512 
1452.672 81258968 81782168 82603016 83638192 84782080 85930808 86983344 
1456.047 87874168 88591784 89197048 89797336 90500752 91394448 92522936 
1459.422 93903832 95541712 97429280 99544736 101840744 104248816 106663120 
1462.798 108938712 110919728 112447488 113413760 113801600 113700592 
1465.691 113276016 112700784 112124160 111638568 111284248 111069080 
1468.584 110976160 110967768 110974272 110890048 110572192 109846584 
1471.477 108564544 106659312 104198992 101376512 98443136 95620328 93037480 
1474.852 90748952 88768408 87103472 85777336 84820464 84247816 84044872 
1478.227 84160976 84525112 85059480 85703344 86426152 87226592 88128624 
1481.603 89167832 90383312 91809152 93478784 95433008 97720856 100397672 
1484.978 103509128 107070368 111037680 115282680 119601960 123699616 
1487.871 127212984 129771296 131010488 130658552 128613112 124979560 
1490.764 120070856 114311128 108150784 101942800 95900104 90133856 84667792 
1494.139 79496688 74639520 70150744 66128812 62692300 59934304 57889792 
1497.514 56524564 55762552 55508744 55677228 56204348 57041528 58149316 
1500.890 59492384 61029404 62713124 64492904 66298732 68041712 69606664 
1504.265 70820328 71460136 71269792 70019872 67633168 64276168 60334068 
1507.640 56229880 52265604 48569012 45141196 41939024 38929292 36104032 
1511.015 33487610 31118130 29023246 27214760 25681660 24398768 23335322 
1514.391 22461288 21749674 21171300 20696790 20301360 19968596 19698558 
1517.766 19503194 19397958 19389398 19468504 19608630 19775954 19940460 
1521.141 20093648 20254144 20459608 20743984 21118700 21574346 22088268 
1524.516 22640358 23220450 23833974 24498072 25233204 26051690 26952028 
1527.892 27923132 28950952 30026976 31151092 32332130 33583144 34915580 
1531.267 36337704 37850496 39446872 41112652 42826576 44564208 46301412 
1534.642 48020540 49708792 51356636 52948652 54462988 55875060 57150212 
1538.017 58253652 59152620 59821576 60241792 60404432 60317812 60007836 
1541.393 59517504 58896556 58183940 57396360 56524980 55547072 54444060 
1544.768 53223592 51926140 50616472 49357548 48180296 47079452 46017336 
1548.143 44947492 43837428 42691620 41551748 40484140 39546192 38761308 
1551.518 38116688 37574532 37095048 36653728 36252656 35915004 35669116 
1554.894 35527704 35477076 35475312 35462876 35363440 35089984 34561600 
1558.269 33728224 32617678 31350664 30094832 28982334 28065234 27331436 
1561.644 26734768 26221690 25741106 25253468 24735612 24186318 23626244 
1565.019 23090022 22613168 22214176 21889702 21616412 21362194 21096614 
1568.395 20801402 20477772 20144700 19830540 19559756 19346404 19192476 
1571.770 19093096 19040680 19026312 19039086 19062004 19072322 19045976 
1575.145 18964526 18828828 18663290 18510364 18408304 18376018 18409584 
1578.520 18490828 18598128 18715764 18837860 18967398 19112278 19279792 
1581.896 19472766 19688366 19920028 20159692 20399384 20631114 20843986 
1585.271 21023888 21154740 21221676 21216738 21144060 21021592 20877604 
1588.646 20746034 20661554 20650224 20730118 20910736 21193358 21571108 
1592.021 22025312 22525424 23024542 23464426 23788088 23944772 23904896 
1595.396 23666584 23256034 22720548 22114592 21494160 20903816 20375424 
1598.772 19932100 19588422 19352744 19227800 19209966 19290044 19455926 
1602.147 19696686 20004052 20372506 20796850 21267294 21765454 22265688 
1605.522 22733572 23131816 23427252 23591154 23605008 23461350 23162150 
1608.897 22716778 22140462 21455586 20691090 19883086 19074470 18305060 
1612.273 17605326 16991746 16463064 16005252 15595695 15211196 14831321 
1615.648 14443832 14049810 13662778 13305984 13003286 12772655 12621483 
1619.023 12546035 12534542 12569228 12630762 12699979 12763818 12818689 
1622.398 12871555 12936784 13029438 13159236 13326586 13525344 13747619 
1625.774 13987870 14243729 14513580 14794569 15079376 15357986 15621489 
1629.149 15866490 16097188 16323054 16555337 16800798 17059182 17321788 
1632.524 17573998 17799700 17981558 18105346 18161140 18145662 18063928 
1635.899 17930622 17767080 17594146 17426248 17269172 17119736 16968076 
1639.275 16801384 16608488 16384263 16132813 15866285 15601946 15354038 
1642.650 15128847 14922461 14721761 14508202 14262321 13970316 13628723 
1646.025 13247156 12847971 12460338 12113865 11830009 11620283 11486317 
1649.400 11422123 11414400 11441172 11472062 11463047 11362291 11130252 
1652.776 10768603 10338943 9931777 9615532 9405384 9279005 9200752 9140582 
1656.633 9079947 9011338 8935906 8858357 8783662 8712969 8643436 8568947 
1660.490 8482983 8379740 8255855 8110938 7948286 7775405 7602628 7442760 
1664.348 7307382 7203643 7133409 7091409 7066958 7044832 7008868 6946072 
1668.205 6849320 6720015 6567301 6405327 6247648 6104307 5981405 5880434 
1672.063 5799903 5734428 5674871 5607669 5517188 5392103 5231371 5049110 
1675.920 4869037 4716068 4603871 4532014 4489092 4459398 4430342 4396735 
1679.778 4362931 4339537 4337663 4360889 4401556 4438610 4443933 4388769 
1683.635 4259090 4067136 3851063 3655413 3506745 3409287 3351217 3316325 
1687.492 3289949 3263075 3231227 3192840 3148282 3099324 3049837 3006294 
1691.350 2976801 2969162 2987044 3027781 3080469 3128425 3152454 3137435 
1695.207 3081904 3002458 2928196 2884232 2881363 2911517 2954149 2980104 
1699.065 2960721 2877694 2734195 2558544 2390728 2262576 2184012 2147915 
1702.922 2138392 2138392 2133797 2113586 2072434 2010981 1935990 1857318 
1706.780 1784749 1725265 1680924 1650257 1628439 1610679 1593519 1576459 
1710.637 1561728 1553780 1556507 1572136 1600137 1637851 1682122 1729424 
1714.494 1777197 1823211 1862775 1888898 1892392 1865704 1807141 1725032 
1718.352 1636055 1557937 1503472 1477139 1475344 1490571 1514477 1541543 
1722.209 1569476 1599073 1632563 1671810 1716916 1765918 1816623 1867434 
1726.067 1918118 1968741 2018803 2066009 2106294 2135728 2152444 2158537 
1729.924 2159370 2161468 2168128 2176253 2174355 2143420 2063712 1922344 
1733.781 1725432 1500213 1286676 1117423 1005090 944219 918850 911446 906233 
1738.121 892819 866557 828278 783099 738323 700819 675033 662888 663651 
1742.461 675000 693253 714559 736498 758271 781805 810087 846404 891491 
1746.800 943488 997285 1045709 1082511 1102940 1104701 1087593 1052850 
1750.658 1002101 939072 869379 800825 741708 699193 675963 670454 675498 
1754.997 681438 677887 657645 619982 570611 519653 475369 442034 417656 
1759.337 395601 367313 325896 268767 197921 119696 41883 -27897 -84682 
1763.677 -125891 -150998 -160604 -157424 -145765 -131588 -121386 -120094 
1767.534 -128309 -142254 -154609 -158948 -152588 -139140 -126719 -126255 
1771.391 -145467 -185709 -239327 -293137 -335451 -360017 -368625 -367168 
1775.249 -362202 -357435 -352668 -345020 -331048 -310057 -284660 -259958 
1779.106 -241645 -232406 -231346 -234095 -234790 -229690 -218629 -204985 
1782.964 -193592 -188723 -191969 -202169 -215847 -229094 -239062 -244294 
1786.821 -243268 -234923 -217371 -189220 -150733 -105452 -60167 -24385 -7753 
1791.161 -16500 -51553 -107009 -172925 -238499 -296183 -342868 -379417 
1795.018 -408185 -431356 -449925 -464655 -475776 -484381 -491695 -499506 
1798.875 -508309 -518238 -528431 -538458 -548221 -558512 -570061 -582668 
1802.733 -595176 -604937 -609801 -608047 -599775 -586639 -571020 -554475 
1806.590 -537532 -519595 -499572 -477530 -454990 -434832 -419969 -412025 
1810.448 -410502 -412786 -415434 -415898 -413216 -408350 -402954 -398320 
1814.305 -394182 -388620 -379219 -364255 -343795 -318996 -292971 -267309 
1818.163 -242804 -218828 -193857 -166830 -137749 -107109 -76102 -45192 
1822.020 -13882 18323 51228 83074 111079 132390 146278 155327 164409 179159 
1826.842 202827 234552 268932 297745 313627 312566 297247 275795 259119 
1831.181 256102 270457 300729 342044 389333 438750 489134 540852 594865 
1835.521 651240 709116 767432 825656 885747 950927 1025482 1112806 1214335 
1839.861 1329714 1456128 1590892 1731420 1875287 2019902 2162566 2300182 
1843.718 2430243 2552578 2669513 2784646 2900910 3018406 3133798 3240474 
1847.575 3330582 3397966 3439411 3455041 3447426 3420241 3375459 3312586 
1851.433 3230159 3127123 3004693 2867588 2722458 2576043 2433076 2294852 
1855.290 2160169 2026793 1893990 1763357 1638317 1521659 1414706 1315656 
1859.148 1220914 1126293 1029899 932099 836345 746455 665244 594135 532857 
1863.487 481837 442067 416197 406214 411952 429132 449895 463660 461802 
1867.827 440209 401107 352755 304973 266744 241349 227723 222253 221192 
1872.167 222585 226563 233260 242343 250996 255604 251560 236442 210153 
1876.506 174750 133053 87416 38569 -13916 -70503 -129832 -189286 -245586 
1880.846 -295455 -338100 -374816 -409078 -443471 -479449 -515590 -549279 
1884.703 -577605 -599577 -616385 -630447 -644707 -660356 -676963 -693240 
1888.561 -707464 -719869 -731645 -743950 -756453 -766442 -768857 -759463 
1892.418 -735581 -699194 -655658 -612845 -577341 -553184 -540212 -535083 
1896.275 -534024 -534619 -536175 -539947 -546632 -554707 -560994 -561556 
1900.133 -553184 -535678 -511619 -485241 -460517 -438804 -419506 -400836 
1903.990 -381337 -361639 -344291 -332207 -326909 -327505 -330287 -331280 
1907.848 -327903 -321546 -316414 -318069 -330320 -353363 -383555 -414375 
1911.705 -439929 -456744 -464390 -464919 -461146 -454990 -447244 -439102 
1915.563 -432581 -432184 -442643 -467931 -507581 -555931 -602885 -638553 
1919.420 -656750 -657974 -647651 -635046 -627999 -630381 -641299 -655922 
1923.277 -669321 -678518 -684043 -689204 -697309 -709681 -725228 -741469 
1927.135 -756089 -768658 -781359 -796242 -814399 -833514 -848693 -854183 
1930.992 -846841 -826933 -799847 -773156 -753344 -744049 -745439 -754402 
1934.850 -767931 -784468 -804114 -827165 -853720 -880472 -902626 -915819 
1938.707 -918299 -912149 -903221 -897534 -899287 -908049 -918960 -925176 
1942.564 -922465 -909933 -891681 -872933 -857688 -846511 -836358 -822336 
1946.422 -802129 -776199 -749077 -725493 -708887 -698566 -689931 -678551 
1950.279 -661083 -638718 -616782 -601033 -595805 -600139 -609437 -617411 
1954.137 -619727 -615393 -607882 -602885 -604077 -612183 -624855 -637296 
1957.994 -647453 -655757 -666377 -683282 -709052 -741734 -776398 -806627 
1961.852 -829281 -844626 -856134 -867543 -880472 -892673 -899749 -898030 
1965.709 -887482 -873197 -862185 -860995 -870750 -886821 -900378 -904180 
1969.566 -896807 -882522 -871312 -872470 -889863 -920712 -955990 -985017 
1973.424 -1001348 -1003563 -996092 -983728 -967892 -944485 -906032 -846742 
1977.281 -766740 -675045 -587367 -518403 -477795 -467964 -483752 -517212 
1981.139 -561358 -612547 -668494 -727345 -783840 -830406 -858978 -865062 
1984.996 -850644 -824354 -797697 -779970 -774182 -774711 -770312 -751227 
1988.854 -711864 -656088 -593885 -538392 -499738 -481832 -480277 -487790 
1992.711 -496329 -500962 -499738 -494310 -484579 -470712 -450753 -424802 
1996.568 -394943 -367102 -347768 -341908 -349357 -364785 -380609 -390276 
2000.426 -390706 -385277 -380708 -383555 -396069 -414607 -431091 -436586 
2004.283 -425398 -397426 -357600 -313666 -272243 -237307 -209985 -190777 
2008.141 -181304 -184782 -203196 -235750 -275753 -313566 -338100 -342504 
2011.998 -327075 -299958 -272872 -255719 -252275 -258898 -265521 -262872 
2015.855 -244294 -211343 -170441 -130462 -97436 -73352 -55495 -39957 -24087 
2020.195 -6726 11398 30418 53879 87018 134313 197954 271949 345858 407640 
2025.017 448269 464688 461769 448535 433742 421603 411421 398089 377627 
2029.356 349605 318269 291578 277752 281432 303680 342542 394872 460575 
2033.696 540387 633985 738423 845574 944352 1024552 1080618 1113736 1132439 
2038.036 1147621 1168418 1199516 1239555 1283286 1324795 1359727 1387382 
2041.893 1408058 1422352 1428867 1424845 1407426 1377775 1340150 1303126 
2045.750 1275444 1264544 1273649 1301465 1343175 1393997 1448116 1501211 
2049.608 1548493 1584274 1603064 1602265 1582944 1551885 1519431 1498251 
2053.465 1497620 1519731 1558968 1604926 1644969 1671145 1682122 1682787 
2057.323 1681656 1685980 1698354 1717415 1737907 1755505 1768247 1778062 
2061.180 1788775 1804246 1824875 1848833 1871727 1889830 1901245 1906969 
2065.038 1908799 1908400 1905604 1898083 1882575 1857518 1823877 1784815 
2068.895 1745458 1709830 1680192 1656211 1636654 1619559 1604693 1592588 
2072.752 1583675 1577723 1572768 1566450 1557205 1545267 1533397 1525283 
2076.610 1524585 1532000 1546332 1563490 1580217 1595082 1609183 1624814 
2080.467 1644337 1667287 1690271 1708333 1716749 1713756 1701581 1685315 
2084.325 1670946 1663196 1663728 1670846 1681656 1693298 1704375 1714687 
2088.182 1723968 1730854 1732384 1724999 1706870 1679128 1646732 1616632 
2092.040 1596047 1588763 1594251 1608119 1624747 1639381 1650324 1659138 
2095.897 1668950 1681889 1698021 1714421 1727893 1735811 1738239 1737907 
2099.754 1738705 1744028 1755405 1771840 1792135 1815059 1841080 1871394 
2103.612 1907335 1948304 1991608 2033284 2070071 2100934 2128103 2155940 
2107.469 2190073 2233167 2285126 2342554 2400690 2455001 2503454 2546646 
2111.327 2586542 2625042 2662879 2699019 2732027 2760737 2785580 2808190 
2115.184 2830634 2854414 2879696 2905379 2930498 2955050 2980505 3009631 
2119.042 3044598 3086209 3132363 3179489 3222648 3258334 3285175 3304673 
2122.899 3319564 3333687 3350315 3371586 3398668 3432364 3472676 3519038 
2126.756 3569179 3619795 3666272 3704568 3732372 3750319 3761883 3771141 
2130.614 3782505 3798482 3819273 3843207 3869182 3896629 3926552 3960390 
2134.471 3997574 4036266 4071317 4098509 4114732 4120820 4120251 4118813 
2138.329 4119749 4123997 4128312 4128112 4119749 4103125 4082120 4062554 
2142.186 4049276 4044059 4043290 4040480 4029210 4006035 3971960 3931668 
2146.043 3890678 3852467 3816499 3779163 3736750 3687525 3633661 3580104 
2149.901 3531898 3490746 3453805 3413829 3361802 3291452 3199349 3088011 
2153.758 2961889 2825765 2684449 2540680 2398924 2267606 2158837 2087849 
2157.616 2067341 2102099 2184778 2298350 2420847 2530948 2616875 2674981 
2161.473 2708554 2724492 2729527 2728393 2724659 2720757 2718757 2719757 
2165.331 2723125 2724958 2719624 2700586 2663646 2608142 2538347 2461199 
2169.188 2384098 2312706 2248188 2188907 2131533 2073267 2013477 1954162 
2173.045 1897684 1846703 1802017 1762824 1727661 1694828 1663528 1634060 
2176.903 1606123 1578787 1550388 1518966 1483855 1446121 1407792 1371726 
2180.760 1340516 1314725 1294120 1278468 1268166 1264677 1270559 1286443 
2184.618 1311269 1340981 1370197 1393963 1409952 1418928 1424213 1429333 
2188.475 1436580 1445456 1453767 1459352 1461713 1463375 1467897 1479034 
2192.333 1497886 1521958 1546465 1565951 1577723 1582212 1583110 1584607 
2196.190 1590326 1600802 1614670 1629404 1644104 1659703 1679660 1706271 
2200.047 1740501 1779359 1818287 1851694 1876818 1894256 1907501 1921346 
2203.905 1938286 1957357 1975264 1986947 1988745 1980789 1965578 1948304 
2207.762 1932928 1921812 1913858 1907568 1901611 1895920 1892525 1893524 
2211.620 1899414 1909098 1919449 1927403 1932062 1935557 1942313 1957091 
2215.477 1981888 2014609 2049829 2079925 2098437 2103131 2095340 2079459 
2219.334 2060549 2042173 2025594 2009882 1994304 1978892 1965712 1957557 
2223.192 1956725 1963115 1973900 1984884 1991341 1990210 1980856 1965212 
2227.049 1945875 1926704 1910297 1898749 1893324 1895321 1904606 1920713 
2230.907 1941115 1962250 1980190 1992074 1997333 1997433 1995768 1995269 
2234.764 1998365 2005255 2014742 2025794 2038244 2053391 2073167 2098969 
2238.622 2129535 2161867 2191005 2213051 2226173 2232168 2235232 2241027 
2242.479 2253084 2272802 2298483 2327430 2356846 2386197 2416616 2450369 
2246.336 2488691 2531115 2574310 2613775 2645877 2668080 2681115 2687083 
2250.194 2689017 2689384 2689250 2688783 2688183 2688083 2690384 2697385 
2254.051 2710688 2730327 2753901 2777743 2796751 2807222 2806722 2795117 
2257.909 2774108 2746899 2717023 2687850 2662246 2641977 2628076 2620442 
2261.766 2617842 2619442 2623542 2629842 2638110 2649144 2663313 2680549 
2265.624 2699752 2718790 2735695 2748733 2757169 2761537 2763104 2763037 
2269.481 2762204 2760970 2759470 2757736 2756302 2756168 2757969 2762070 
2273.338 2767939 2774709 2781278 2787347 2793550 2800753 2810391 2822930 
2277.196 2837538 2852946 2867388 2879829 2889702 2897941 2905079 2911884 
2281.053 2918489 2924059 2928529 2932366 2936802 2944075 2956384 2974566 
2284.911 2998287 3025613 3054208 3081871 3107566 3131395 3154423 3177253 
2288.768 3200451 3223683 3246383 3268149 3289215 3310616 3333387 3358396 
2292.625 3386312 3416300 3448295 3481761 3517033 3555215 3596608 3641747 
2296.483 3689964 3739791 3789123 3836388 3880482 3921002 3958016 3991722 
2300.340 4022154 4049410 4073858 4096703 4119749 4145306 4175614 4212081 
2304.198 4254807 4303026 4355300 4410291 4467533 4526723 4588333 4652464 
2308.055 4718647 4786281 4854427 4922853 4991758 5061781 5133391 5206556 
2311.913 5280470 5353626 5424076 5491148 5554674 5615993 5677053 5739833 
2315.770 5806149 5876807 5952045 6031562 6114825 6201397 6290273 6380780 
2319.627 6471845 6562726 6652416 6740240 6824581 6903417 6973176 7029881 
2323.485 7069989 7091274 7094473 7083157 7063994 7044630 7032473 7033349 
2327.342 7049682 7081002 7124247 7174874 7227765 7278640 7324062 7361804 
2331.200 7391293 7413032 7429278 7443300 7458805 7479233 7506640 7541769 
2335.057 7583037 7628154 7674860 7721436 7767681 7814132 7861668 7910728 
2338.915 7960367 8009067 8055105 8097097 8134401 8166914 8193823 8212631 
2342.772 8219013 8205844 8165023 8089874 7976026 7825265 7645959 7453480 
2346.629 7267858 7110303 7001561 6956947 6985701 7089792 7264623 7498617 
2350.487 7774427 8073873 8377612 8669869 8941250 9187756 9409955 9610180 
2354.344 9791011 9954084 10100092 10230679 10348377 10456602 10559049 
2357.719 10657209 10750568 10836234 10910807 10972140 11019887 11056219 
2361.095 11083887 11105505 11121992 11132190 11134128 11125969 11106899 
2364.470 11077700 11039939 10995656 10945635 10889810 10827946 10758922 
2367.845 10682643 10598807 10507246 10407661 10299413 10181627 10054954 
2371.220 9921098 9782979 9644700 9510123 9381513 9259406 9143086 9030789 
2375.078 8921058 8813045 8707323 8605142 8508426 8419028 8338734 8269565 
2378.935 8212968 8170493 8142909 8130350 8131497 8144597 8167015 8196525 
2382.793 8231709 8271795 8316341 8365283 8417170 8469874 8520928 8567461 
2386.650 8607474 8640327 8666049 8685249 8698433 8705904 8707526 8702996 
2390.508 8692754 8677441 8658579 8637453 8614944 8591658 8567697 8543231 
2394.365 8518732 8495451 8474773 8458184 8446494 8439804 8437913 8440649 
2398.222 8448555 8462778 8484909 8516265 8557457 8608117 8666725 8731934 
2402.080 8802190 8877227 8957282 9043070 9135338 9234664 9341225 9455160 
2405.937 9576069 9704127 9838594 9978630 10122645 10269116 10416756 10565772 
2409.795 10717215 10873401 11036608 11207834 11386406 11569373 11752315 
2413.170 11930192 12099215 12256171 12399476 12528438 12642223 12740376 
2416.545 12821966 12886539 12933985 12965630 12983143 12988128 12982529 
2419.920 12967985 12945967 12918351 12887836 12857152 12829269 12806439 
2423.296 12789444 12778183 12772246 12771359 12776648 12790195 12815072 
2426.671 12854354 12909715 12981334 13067954 13167331 13277560 13397556 
2430.046 13527053 13666916 13817905 13980821 14155813 14342417 14540407 
2433.421 14748908 14967387 15195034 15431039 15674835 15926018 16185189 
2436.797 16453117 16731199 17020450 17320790 17631998 17952342 18280454 
2440.172 18615558 18957670 19307502 19666490 20035210 20413380 20800150 
2443.547 21193878 21593498 21998576 22409440 22826978 23251490 23682750 
2446.922 24119518 24559742 25001078 25441668 25879366 26312858 26740548 
2450.298 27160860 27572262 27973876 28365426 28747064 29119078 29481734 
2453.673 29833866 30173320 30497080 30801696 31083676 31339698 31567220 
2457.048 31763204 31925078 32049552 32134316 32177598 32179024 32138846 
2460.423 32058436 31938594 31779710 31581902 31344932 31069830 30759264 
2463.799 30418036 30053356 29673160 29285640 28898926 28519738 28154670 
2467.174 27809970 27491560 27205060 26955730 26746572 26578728 26451162 
2470.549 26360914 26304586 26278960 26281880 26312084 26368906 26450948 
2473.924 26556078 26680680 26820370 26969728 27124074 27279322 27431908 
2477.300 27579782 27721278 27854730 27978822 28091534 28190272 28272340 
2480.675 28334972 28375932 28394112 28389656 28364294 28320576 28261484 
2484.050 28189670 28107298 28015788 27916242 27810006 27698816 27584794 
2487.425 27470098 27356774 27245382 27135360 27024624 26910712 26790552 
2490.801 26661726 26522582 26372638 26212188 26042544 25864630 25679550 
2494.176 25487766 25288796 25081248 24862642 24630116 24381210 24114686 
2497.551 23830682 23531300 23220066 22901334 22579276 22257038 21937338 
2500.926 21621358 21310166 21004168 20704122 20410428 20123006 19841742 
2504.302 19566170 19295688 19031264 18774368 18527582 18293932 18075570 
2507.677 17873478 17686488 17511862 17346134 17185948 17029098 16874508 
2511.052 16723037 16575785 16434122 16299043 16171191 16050633 15937807 
2514.427 15832881 15736362 15648762 15570074 15500328 15439451 15386959 
2517.802 15343569 15309588 15285803 15272349 15269089 15275198 15289304 
2521.178 15309965 15335640 15365469 15398425 15434164 15472309 15512930 
2524.553 15556096 15602083 15651029 15702695 15756153 15809376 15859479 
2527.928 15903059 15936811 15958810 15967645 15963519 15947742 15922030 
2531.303 15887832 15846729 15799962 15748492 15693350 15635572 15576256 
2534.679 15516604 15457957 15401858 15349782 15303238 15263666 15231407 
2538.054 15206357 15187313 15172352 15159554 15147855 15136600 15126376 
2541.429 15118040 15112311 15108743 15106889 15104488 15100269 15092859 
2544.804 15082396 15069806 15056839 15045794 15037972 15034234 15034302 
2548.180 15037458 15042226 15046960 15050150 15050459 15047337 15040888 
2551.555 15031936 15022263 15013482 15007309 15004599 15005353 15009023 
2554.930 15014374 15020720 15027854 15035331 15043152 15050322 15054850 
2558.305 15054164 15045348 15026208 14995887 14955383 14906618 14852579 
2561.681 14795769 14737665 14678985 14619251 14558463 14496554 14434755 
2565.056 14374370 14317212 14264924 14218153 14176832 14140649 14108918 
2568.431 14081263 14057784 14038996 14025410 14018052 14017094 14022843 
2571.806 14035026 14052753 14075136 14101080 14129900 14160913 14194154 
2575.182 14229931 14268348 14309541 14352965 14397728 14442805 14486996 
2578.557 14530025 14572169 14614214 14657119 14701846 14748840 14798512 
2581.932 14850899 14906275 14965328 15028711 15096838 15169333 15245374 
2585.307 15323352 15401480 15478661 15554722 15630420 15707606 15787832 
2588.683 15872367 15960908 16052661 16145708 16237710 16327010 16412787 
2592.058 16494658 16573720 16650869 16727308 16804138 16881432 16958980 
2595.433 17035818 17110670 17182228 17250106 17314512 17376412 17437872 
2598.808 17501030 17567614 17638830 17714858 17795420 17879898 17968088 
2602.184 18059958 18156440 18258302 18366374 18480836 18601552 18727456 
2605.559 18857652 18991108 19126994 19265346 19405994 19548908 19694226 
2608.934 19841672 19990732 20140568 20289904 20437310 20581292 20720420 
2612.309 20854136 20982330 21105344 21223764 21338078 21447962 21552584 
2615.685 21650368 21739954 21820188 21890886 21952778 22007394 22056336 
2619.060 22101308 22143426 22183628 22222128 22259304 22295368 22330528 
2622.435 22364820 22398414 22431106 22463032 22494646 22526438 22559172 
2625.810 22593866 22630830 22670380 22712378 22756684 22803300 22852646 
2629.186 22905350 22962044 23022934 23087330 23154008 23221462 23287986 
2632.561 23352596 23414942 23475584 23535044 23594512 23654338 23714838 
2635.936 23775802 23836984 23898208 23959092 24019916 24080710 24141586 
2639.311 24203028 24265534 24329656 24395858 24464490 24535760 24609392 
2642.687 24684824 24761886 24839942 24919134 24999640 25081984 25166244 
2646.062 25252658 25341270 25432114 25525576 25621904 25721840 25825984 
2649.437 25934338 26046660 26162002 26279312 26397672 26516418 26635374 
2652.812 26754854 26875496 26998004 27123050 27251380 27383628 27520434 
2656.188 27662512 27809794 27962284 28119352 28279908 28443000 28607780 
2659.563 28773580 28940646 29108946 29278408 29449076 29620056 29790678 
2662.938 29960124 30128108 30294348 30459298 30623602 30787718 30951824 
2666.313 31116172 31280618 31444982 31609300 31773758 31938736 32104634 
2669.688 32271988 32441620 32613676 32788836 32967106 33148528 33332630 
2673.064 33518784 33706308 33894164 34081700 34268248 34453152 34636232 
2676.439 34816808 34994584 35169524 35342088 35513064 35684112 35856884 
2679.814 36033428 36215812 36405728 36604520 36813432 37033484 37265344 
2683.189 37508964 37764032 38029988 38305772 38590564 38883916 39185988 
2686.565 39496980 39817712 40148380 40488760 40837960 41194980 41558164 
2689.940 41926620 42299548 42676924 43058880 43445964 43838528 44237388 
2693.315 44643004 45055872 45476752 45905660 46342480 46786380 47236532 
2696.690 47691776 48151716 48616444 49086232 49561620 50043064 50530256 
2700.066 51022504 51518816 52018272 52520028 53023560 53528240 54032976 
2703.441 54536164 55035456 55528284 56011872 56483996 56942544 57385920 
2706.816 57812304 58219588 58605908 58968852 59306836 59619128 59905436 
2710.191 60166428 60403288 60616428 60806764 60974724 61120404 61243916 
2713.567 61345528 61425104 61481936 61515076 61523016 61504424 61458160 
2716.942 61383808 61281808 61153164 60999660 60823152 60625952 60411212 
2720.317 60182152 59943164 59699524 59456516 59219528 58993940 58783720 
2723.692 58592296 58422108 58274796 58151436 58052616 57978732 57929848 
2727.068 57906488 57908720 57937040 57991456 58071776 58176932 58305340 
2730.443 58454744 58622484 58806292 59004152 59214440 59436112 59667780 
2733.818 59907832 60154060 60404356 60656280 60908084 61158696 61407548 
2737.193 61654284 61898340 62138780 62374344 62603840 62826372 63041620 
2740.569 63250580 63454456 63655020 63853912 64052740 64252460 64454584 
2743.944 64660148 64870648 65087608 65312340 65545744 65788412 66039964 
2747.319 66299656 66565104 66833384 67100280 67361416 67611832 67847448 
2750.694 68064888 68262896 68441184 68600904 68743848 68871720 68986208 
2754.070 69088328 69179040 69258976 69328512 69387552 69434904 69469040 
2757.445 69487744 69488248 69468224 69425456 69358472 69266392 69148224 
2760.820 69003024 68830104 68628960 68399904 68144344 67864408 67563168 
2764.195 67243648 66908940 66561820 66205220 65842272 65476848 65113672 
2767.571 64757712 64413800 64086488 63778876 63493116 63230804 62992820 
2770.946 62780120 62592968 62431464 62294908 62181792 62090004 62016576 
2774.321 61958216 61911940 61874612 61843356 61815356 61787316 61755648 
2777.696 61716536 61665628 61598268 61510148 61397164 61256204 61086036 
2781.072 60886964 60662108 60415856 60154596 59884440 59611144 59339240 
2784.447 59071716 58810048 58554984 58306400 58063560 57825284 57589600 
2787.822 57353592 57113780 56866924 56610620 56343604 56066420 55781504 
2791.197 55491308 55199584 54909516 54623668 54344612 54074520 53815320 
2794.573 53569020 53337392 53121880 52923240 52742164 52578740 52433172 
2797.948 52305928 52196996 52106468 52034108 51978984 51940296 51916396 
2801.323 51906276 51908628 51922296 51945932 51977748 52015696 52057568 
2804.698 52101012 52144800 52187728 52229616 52269940 52308472 52344388 
2808.073 52376460 52403264 52423264 52435264 52437772 52429768 52409804 
2811.449 52376312 52327348 52261828 52178796 52078188 51960984 51828800 
2814.824 51683820 51528964 51367712 51203756 51042180 50888108 50747728 
2818.199 50626712 50530700 50464376 50431292 50434492 50475244 50554896 
2821.574 50673472 50830448 51023808 51250248 51505724 51784528 52080764 
2824.950 52388460 52701272 53013864 53320868 53616848 53897088 54156560 
2828.325 54390916 54596724 54771548 54914632 55026768 55110496 55169860 
2831.700 55209024 55233108 55246616 55253616 55257720 55262008 55269648 
2835.075 55284060 55309048 55348376 55406344 55486568 55592376 55727212 
2838.451 55894656 56099104 56347264 56646592 57006696 57438980 57954608 
2841.826 58566208 59287240 60131112 61114144 62254408 63570164 65080180 
2845.201 66798680 68730488 70865688 73173400 75600424 78062568 80454808 
2848.576 82656648 84535256 85971760 86869168 87163976 86838328 85918208 
2851.952 84471576 82590592 80387656 77981480 75478200 72976480 70557176 
2855.327 68278256 66181712 64290568 62611416 61137984 59854396 58739340 
2858.702 57767568 56914288 56157324 55475684 54852144 54272448 53724304 
2862.077 53198536 52688516 52190308 51702368 51225720 50763144 50318880 
2865.453 49898640 49509216 49157136 48849940 48593948 48393628 48251456 
2868.828 48167044 48137388 48156680 48217544 48311372 48427968 48557004 
2872.203 48688120 48810864 48916576 48999356 49056296 49088496 49100368 
2875.578 49099108 49091948 49086232 49087420 49099480 49124668 49164036 
2878.954 49218324 49287724 49372100 49471116 49584160 49710316 49848952 
2882.329 49999752 50162804 50337972 50524560 50721140 50925592 51134720 
2885.704 51345896 51556760 51766496 51975212 52184404 52396196 52612664 
2889.079 52836376 53069612 53314912 53575388 53854848 54157124 54487780 
2892.455 54852896 55259372 55716140 56233012 56819604 57485652 58237512 
2895.830 59076764 59997412 60985060 62014664 63050664 64051696 64971840 
2899.205 65765388 66396780 66841996 67094052 67164240 67080788 66884592 
2902.580 66620528 66336520 66075340 65871304 65752476 65738872 65844776 
2905.956 66080428 66453152 66968048 67629448 68441448 69408968 70538392 
2909.331 71837424 73313576 74972016 76811880 78823288 80983632 83259912 
2912.706 85604592 87958952 90260600 92439544 94427640 96165632 97602856 
2916.081 98705816 99461112 99874840 99970848 99784104 99357760 98731352 
2919.457 97937184 96998032 95924232 94717280 93373024 91887712 90261912 
2922.832 88504472 86633976 84679184 82677568 80667888 78691344 76784552 
2926.207 74975400 73284912 71724136 70295984 68996848 67818592 66750728 
2929.582 65780884 64897084 64088060 63343308 62654212 62014472 61419112 
2932.958 60865844 60353256 59880788 59447588 59052280 58692304 58363700 
2936.333 58061404 57779560 57511752 57251436 56992976 56731996 56466260 
2939.708 56195824 55923448 55654364 55395348 55153004 54933736 54741744 
2943.083 54578280 54441052 54324448 54219548 54114936 53998756 53860176 
2946.458 53690932 53488248 53255428 53001884 52741788 52492284 52270872 
2949.834 52091224 51962960 51889360 51868264 51892348 51951200 52033552 
2953.209 52127016 52220460 52304132 52369360 52409580 52419716 52396796 
2956.584 52339756 52249384 52128360 51980516 51810768 51624784 51428280 
2959.959 51226464 51024552 50826348 50635348 50453996 50284060 50126804 
2963.335 49983208 49853524 49737956 49636648 49549400 49476208 49417204 
2966.710 49372548 49341884 49324920 49320056 49325436 49338764 49358252 
2970.085 49382308 49410968 49445388 49487456 49539336 49602656 49677952 
2973.460 49764484 49859916 49960644 50062324 50158900 50243292 50307572 
2976.836 50342248 50337932 50286444 50181400 50020536 49805580 49542640 
2980.211 49241072 48912944 48571420 48228576 47895396 47580256 47288404 
2983.586 47021552 46778224 46554212 46343032 46137556 45931368 45719536 
2986.961 45499896 45272460 45039112 44802292 44562740 44318584 44064772 
2990.337 43793480 43494672 43159688 42782108 42360468 41898592 41406148 
2993.712 40896712 40384492 39883228 39402896 38948460 38519556 38111660 
2997.087 37718096 37331564 36946060 36558852 36169604 35780456 35394676 
3000.462 35016064 34646712 34287896 33939300 33599576 33267270 32941620 
3003.838 32621962 32309070 32003932 31707882 31421792 31146714 30882766 
3007.213 30630250 30389146 30158970 29939496 29730070 29529290 29335870 
3010.588 29148310 28965120 28785546 28609232 28436738 28268698 28106026 
3013.963 27949104 27797888 27651920 27510446 27372652 27238150 27106934 
3017.339 26979316 26855614 26736178 26620754 26508916 26400174 26293814 
3020.714 26189734 26087930 25988860 25893154 25801124 25713508 25630656 
3024.089 25553266 25482180 25418832 25365156 25322656 25293046 25277278 
3027.464 25274818 25283670 25300176 25319248 25334842 25340358 25330170 
3030.840 25299578 25246372 25169964 25072052 24955524 24823802 24680512 
3034.215 24529100 24372448 24213750 24056022 23902444 23755888 23618722 
3037.590 23492126 23376022 23269354 23170084 23076184 22985868 22897946 
3040.965 22811926 22728054 22646642 22568422 22493564 22422732 22355610 
3044.341 22292404 22232522 22175330 22120274 22066446 22013948 21962746 
3047.716 21913710 21867888 21826248 21789180 21756362 21726648 21698398 
3051.091 21670186 21641034 21610562 21579116 21547292 21515782 21484898 
3054.466 21454576 21424708 21394948 21365292 21336198 21307938 21281352 
3057.842 21256994 21235526 21217536 21203620 21194470 21190608 21192556 
3061.217 21200210 21213154 21230444 21251428 21275088 21301188 21329828 
3064.592 21361324 21396096 21434420 21475882 21519714 21564702 21609274 
3067.967 21651936 21691258 21725706 21754342 21776184 21790502 21797158 
3071.343 21796566 21789422 21777926 21764376 21751486 21742044 21738560 
3074.718 21742114 21752914 21769564 21789702 21810640 21830046 21845934 
3078.093 21857468 21864996 21869176 21870814 21870466 21868340 21864298 
3081.468 21858304 21850604 21842068 21834088 21827504 21823288 21821406 
3084.844 21821720 21823880 21827956 21834472 21844646 21859594 21880118 
3088.219 21905940 21935910 21968184 22000562 22031760 22060938 22088444 
3091.594 22115392 22143112 22172716 22204760 22239774 22277512 22318040 
3094.969 22361330 22407380 22456506 22508640 22563570 22620846 22680050 
3098.344 22740554 22801904 22863786 22925610 22987160 23048020 23107844 
3101.720 23166486 23223840 23280260 23336302 23392702 23450332 23509964 
3105.095 23572612 23638244 23706686 23776748 23846820 23915084 23979856 
3108.470 24040752 24097908 24153110 24208144 24265216 24326012 24391232 
3111.845 24460842 24534358 24611110 24690400 24771636 24853868 24936082 
3115.221 25016802 25094132 25166874 25234432 25297330 25356796 25414758 
3118.596 25472552 25531304 25590590 25650058 25708902 25766806 25824084 
3121.971 25881828 25941338 26003740 26069352 26138108 26209512 26282726 
3125.346 26356830 26431370 26505782 26579538 26652036 26722928 26791926 
3128.722 26859316 26925798 26992046 27059040 27126896 27195500 27264540 
3132.097 27333376 27401910 27470698 27540664 27613042 27688716 27768218 
3135.472 27851232 27936772 28023882 28110976 28197448 28282242 28365036 
3138.847 28445264 28523066 28598438 28671876 28744336 28816704 28890002 
3142.223 28965154 29042518 29122126 29203768 29287024 29371534 29457054 
3145.598 29543264 29630058 29717226 29804482 29891932 29979792 30068592 
3148.973 30159044 30252000 30347536 30445900 30546420 30648278 30750160 
3152.348 30851602 30951754 31050504 31148032 31245152 31342332 31440172 
3155.724 31539000 31638666 31738680 31838390 31937060 32034214 32129858 
3159.099 32224488 32318852 32413948 32510642 32609138 32709338 32810918 
3162.474 32913238 33016048 33119130 33222738 33327088 33432462 33538792 
3165.849 33645900 33753220 33860236 33966028 34069840 34170628 34267604 
3169.225 34360152 34448204 34532468 34614200 34695196 34777824 34863120 
3172.600 34951848 35043360 35136040 35227552 35315780 35399028 35476464 
3175.975 35548484 35615880 35680192 35742968 35805644 35869008 35933576 
3179.350 35999052 36065040 36130932 36196616 36262236 36328448 36396104 
3182.726 36465832 36537728 36611116 36684700 36757028 36826884 36893828 
3186.101 36958760 37022656 37087360 37153624 37222100 37292424 37363808 
3189.476 37435824 37508240 37581648 37656876 37734432 37814708 37897168 
3192.851 37980732 38064236 38146460 38226744 38304504 38379676 38452180 
3196.227 38521912 38589336 38654848 38719612 38784748 38851124 38919652 
3199.602 38989456 39059924 39129464 39196980 39261568 39323556 39383632 
3202.977 39443132 39503148 39564884 39628660 39695164 39764328 39835940 
3206.352 39909344 39983376 40056264 40126320 40192320 40253788 40311480 
3209.728 40367080 40422676 40480104 40540300 40603128 40667528 40732300 
3213.103 40796392 40859252 40920888 40981548 41041560 41100852 41159424 
3216.478 41217092 41274296 41331472 41389456 41449016 41510148 41572824 
3219.853 41636016 41698968 41761048 41822188 41882864 41943588 42005008 
3223.229 42067684 42131608 42196924 42263100 42330116 42397624 42464956 
3226.604 42531680 42597680 42662852 42727744 42793004 42859520 42927292 
3229.979 42995768 43063600 43129204 43191236 43249432 43304596 43358084 
3233.354 43411504 43465924 43521332 43577232 43632912 43688384 43744556 
3236.729 43803412 43866568 43935412 44009436 44087032 44165632 44242780 
3240.105 44316932 44388272 44457676 44526136 44594096 44660888 44724976 
3243.480 44785064 44840756 44893112 44944956 44999308 45059220 45125680 
3246.855 45198364 45275364 45354252 45432680 45509868 45585888 45661744 
3250.230 45738308 45816400 45895936 45975972 46055396 46132988 46207980 
3253.606 46279884 46348860 46415516 46480708 46545768 46611640 46679300 
3256.981 46748776 46819520 46890124 46959340 47025464 47088276 47147736 
3260.356 47204988 47261432 47318140 47376044 47435176 47494864 47554456 
3263.731 47613236 47670772 47726688 47781016 47833800 47885224 47935284 
3267.107 47984460 48033012 48081536 48130544 48180484 48231760 48284708 
3270.482 48339556 48396112 48453972 48512508 48570532 48626748 48680564 
3273.857 48731672 48780648 48829140 48878936 48931892 48988860 49050436 
3277.232 49115764 49184408 49255548 49329188 49405548 49485116 49568044 
3280.608 49653848 49741448 49829512 49917040 50003620 50089320 50175520 
3283.983 50263340 50353820 50447924 50546000 50648268 50754912 50865832 
3287.358 50981404 51101328 51225084 51352380 51482780 51616312 51753092 
3290.733 51894140 52040276 52192360 52351004 52516476 52688740 52867772 
3294.109 53053020 53244080 53439680 53638480 53838836 54039508 54240124 
3297.484 54441468 54645084 54853424 55068556 55291736 55523240 55762176 
3300.859 56007160 56257564 56513092 56774624 57042964 57319336 57604432 
3304.234 57898160 58199928 58508764 58824012 59144456 59469548 59798116 
3307.610 60129596 60463876 60801200 61143020 61490948 61846528 62210316 
3310.985 62581756 62959032 63340200 63724352 64111724 64504280 64904504 
3314.360 65314612 65735364 66165008 66600680 67039184 67478176 67917176 
3317.735 68357944 68802928 69254040 69712312 70176520 70644304 71112944 
3321.111 71580336 72046232 72510480 72974360 73438184 73902200 74365760 
3324.486 74828192 75289400 75749432 76208648 76666576 77122176 77572984 
3327.861 78016216 78449016 78869704 79277424 79672832 80056696 80429848 
3331.236 80792304 81143640 81482712 81808008 82117616 82409416 82680936 
3334.612 82929800 83153640 83351744 83524208 83672824 83800072 83908184 
3337.987 83998080 84069480 84120152 84146896 84146776 84117856 84058864 
3341.362 83969736 83850512 83701752 83523240 83314976 83076888 82808936 
3344.737 82511288 82184072 81827208 81440584 81023880 80578248 80104944 
3348.113 79606288 79084624 78542272 77980328 77399472 76799784 76182040 
3351.488 75547544 74899176 74240488 73574832 72905184 72233120 71559632 
3354.863 70885272 70210872 69538216 68869512 68207808 67555624 66915320 
3358.238 66288272 65675268 65076908 64493440 63925116 63371600 62832572 
3361.614 62306572 61792628 61289628 60797276 60316060 59847436 59393068 
3364.989 58954656 58532804 58127724 57738496 57364028 57002956 56653804 
3368.364 56315952 55988084 55669768 55359856 55057612 54762224 54472564 
3371.739 54187904 53906876 53628396 53351140 53073800 52795216 52514568 
3375.115 52231036 51944252 51653480 51358200 51057720 50751748 50440112 
3378.490 50123308 49801832 49475832 49145300 48809344 48466492 48115144 
3381.865 47753720 47381624 46998956 46606772 46206728 45800860 45390888 
3385.240 44978544 44564832 44150960 43737596 43325648 42915700 42508584 
3388.615 42104628 41704068 41306512 40911680 40518768 40127740 39739132 
3391.991 39354176 38975140 38604364 38243348 37892796 37551556 37217080 
3395.366 36886436 36556940 36227012 35897588 35570172 35247640 34932100 
3398.741 34624032 34322036 34023540 33725036 33424054 33119700 32812848 
3402.116 32505464 32200220 31898618 31601500 31308464 31018402 30730280 
3405.492 30443838 30159540 29878480 29601362 29328780 29060196 28794680 
3408.867 28530884 28267566 28004798 27742964 27483406 27227708 26977342 
3412.242 26733112 26495006 26262484 26034100 25809106 25586370 25366106 
3415.617 25149180 24936820 24730490 24531028 24338698 24152866 23971558 
3418.993 23793300 23616166 23439212 23262256 23085654 22910274 22736992 
3422.368 22566676 22399460 22235800 22075162 21917648 21762772 21609972 
3425.743 21458928 21308774 21159368 21010638 20862966 20716528 20571320 
3429.118 20427412 20283792 20139666 19994338 19848088 19701540 19556812 
3432.494 19415730 19280276 19151094 19028114 18910394 18796374 18685080 
3435.869 18575684 18468010 18361950 18257440 18153850 18049802 17944052 
3439.244 17835362 17722900 17606498 17486232 17362754 17236730 17109292 
3442.619 16981650 16855184 16731543 16611999 16497066 16386120 16277989 
3445.995 16170504 16062427 15952829 15842365 15732273 15624409 15520038 
3449.370 15419332 15321430 15224785 15127234 15028059 14926645 14823950 
3452.745 14720903 14618634 14517657 14417903 14318719 14219626 14119940 
3456.120 14019763 13919473 13819478 13720329 13622706 13526608 13432412 
3459.496 13339672 13248214 13157392 13066827 12975599 12883774 12791355 
3462.871 12698785 12607020 12516331 12426753 12337771 12248604 12158092 
3466.246 12066237 11973072 11879995 11788504 11699926 11615076 11534018 
3469.621 11456072 11379978 11304916 11229799 11154151 11077768 11000312 
3472.997 10921510 10840991 10758617 10674596 10589809 10505210 10422187 
3476.372 10341793 10264434 10189938 10117490 10046376 9975375 9903572 
3479.747 9830799 9756953 9682849 9609706 9538946 9472092 9410226 9354056 
3483.604 9302971 9256021 9211514 9167247 9121870 9073925 9023008 8968749 
3487.462 8911858 8852676 8792114 8731461 8671863 8615079 8562527 8515522 
3491.319 8474503 8438758 8406765 8377038 8347786 8317793 8286857 8255956 
3495.177 8226239 8199564 8177178 8160229 8149357 8144597 8146083 8153206 
3499.034 8165125 8180554 8198179 8216075 8232723 8247108 8258759 8268316 
3502.892 8277367 8288005 8302629 8323467 8352380 8389638 8435683 8488896 
3506.749 8547657 8609536 8672269 8734233 8794853 8854941 8915849 8979742 
3510.606 9048144 9122141 9201124 9284454 9370442 9457903 9546058 9635080 
3514.464 9725168 9816869 9910115 10004329 10098361 10190718 10279804 
3517.839 10364563 10444112 10517702 10585226 10646173 10700031 10746050 
3521.214 10783378 10810315 10825329 10826723 10812727 10782665 10736845 
3524.590 10675954 10601489 10515155 10417707 10310068 10192176 10064077 
3527.965 9926115 9779760 9626644 9469044 9309065 9148196 8987759 8828261 
3531.822 8669869 8512650 8355926 8199192 8041063 7880090 7715332 7546792 
3535.680 7375892 7204856 7036615 6873860 6717525 6567571 6422409 6280154 
3539.537 6139222 5999949 5863474 5732245 5608676 5493967 5387977 5289023 
3543.395 5193947 5099429 5002283 4901004 4794321 4683377 4569481 4455113 
3547.252 4342649 4234732 4132728 4037470 3948553 3864368 3782839 3701426 
3551.109 3618324 3532834 3444988 3356860 3270252 3187500 3109936 3038392 
3554.967 2972931 2912951 2857582 2806022 2757269 2709855 2662579 2613675 
3558.824 2561944 2506186 2446804 2384564 2321734 2261311 2206557 2160668 
3562.682 2125439 2101000 2085552 2074399 2060615 2036413 1993971 1927603 
3566.539 1836521 1724733 1601434 1477704 1364247 1267701 1190246 1129349 
3570.396 1080020 1036508 993898 949565 902979 855534 809290 765938 725877 
3574.736 688607 652236 615071 575555 533819 490395 446545 403727 362836 
3579.076 324602 288958 255704 224706 196330 171800 151946 138688 133451 
3583.415 136633 147902 164740 182971 196164 197258 179225 138058 73630 -8647 
3588.237 -99092 -186537 -261382 -316877 -352072 -369121 -373326 -370578 
3592.094 -366804 -366705 -373525 -389349 -414805 -449396 -491927 -539815 
3595.952 -589849 -637759 -680371 -714543 -739650 -756751 -768658 -779044 
3599.809 -790818 -806164 -824982 -845684 -865955 -882853 -894327 -898956 
3603.667 -896244 -886523 -871213 -852100 -832621 -816747 -809372 -814598 
3607.524 -835069 -870651 -918299 -972157 -1025942 -1074631 -1115646 -1148992 
3611.382 -1176783 -1201995 -1226446 -1250763 -1273394 -1291960 -1303357 
3614.757 -1305802 -1298501 -1283073 -1262789 -1241941 -1226413 -1221490 
3618.132 -1231468 -1258296 -1300054 -1351982 -1406447 -1456479 -1496667 
3621.507 -1524865 -1541572 -1549099 -1549925 -1545336 -1534242 -1514134 
3624.883 -1481873 -1435542 -1376292 -1309667 -1245609 -1198559 -1182929 
3628.258 -1209628 -1280133 -1383922 -1500926 -1610736 -1699825 -1762925 
3631.633 -1802622 -1826544 -1843239 -1859735 -1880355 -1905988 -1934589 
3635.008 -1962627 -1987166 -2006494 -2020808 -2031262 -2039375 -2045806 
3638.384 -2050390 -2052501 -2052006 -2049269 -2045905 -2043432 -2043267 
3641.759 -2044718 -2045180 -2040497 -2026216 -1998908 -1957514 -1903976 
3645.134 -1842546 -1779061 -1720122 -1671869 -1639587 -1627538 -1638696 
3648.509 -1674278 -1733059 -1810409 -1898467 -1986177 -2061668 -2116407 
3651.885 -2145093 -2147862 -2129068 -2096557 -2058799 -2024831 -2002668 
3655.260 -1997688 -2011441 -2040958 -2079509 -2118550 -2150796 -2171765 
3658.635 -2180831 -2180897 -2176216 -2171831 -2171106 -2174831 -2180963 
3662.010 -2185117 -2183172 -2171270 -2148126 -2114297 -2071100 -2019126 
3665.385 -1957844 -1884644 -1797177 -1693983 -1576139 -1446275 -1307454 
3668.761 -1158905 -994538 -799616 -554177 -239625 158707 648785 1232876 
3672.618 1910696 2676248 3513693 4379833 5195423 5850947 6224219 6233026 
3676.476 5866832 5184122 4280840 3256898 2205292 1198553 294794 -462967 
3680.333 -1055493 -1486298 -1778962 -1967014 -2085345 -2161644 -2211095 
3683.708 -2240071 -2249465 -2238983 -2211227 -2172293 -2130321 -2094512 
3687.083 -2072386 -2068791 -2084752 -2118517 -2165864 -2222204 -2283185 
3690.459 -2345509 -2406143 -2462683 -2512825 -2554825 -2587961 -2611906 
3693.834 -2627451 -2635915 -2638714 -2637100 -2632259 -2624618 -2613684 
3697.209 -2598764 -2578837 -2553112 -2522180 -2488249 -2455434 -2428845 
3700.584 -2413886 -2413919 -2429537 -2457840 -2493190 -2529494 -2561149 
3703.960 -2584766 -2598731 -2602750 -2597447 -2582757 -2559601 -2527912 
3707.335 -2488776 -2443903 -2395664 -2347519 -2303719 -2268649 -2247026 
3710.710 -2243268 -2260409 -2298940 -2355395 -2422848 -2491905 -2553573 
3714.085 -2600938 -2630217 -2642008 -2639472 -2627089 -2609732 -2590695 
3717.461 -2571690 -2552717 -2532425 -2509465 -2483538 -2455303 -2426440 
3720.836 -2398893 -2373783 -2352001 -2333348 -2317430 -2304312 -2294457 
3724.211 -2289316 -2290206 -2298643 -2314958 -2337632 -2363008 -2385877 
3727.586 -2400145 -2400805 -2384427 -2350551 -2302038 -2244521 -2184491 
3730.962 -2129365 -2084719 -2052830 -2032318 -2020346 -2014278 -2014212 
3734.337 -2024435 -2049829 -2095436 -2160918 -2240532 -2323724 -2399618 
3737.712 -2460475 -2502744 -2526825 -2534533 -2526825 -2502777 -2460739 
3741.087 -2399783 -2322340 -2236313 -2155808 -2098403 -2082245 -2116077 
3744.463 -2192634 -2287503 -2370620 -2421069 -2431020 -2405747 -2357636 
3747.838 -2301478 -2250322 -2213501 -2196128 -2197744 -2215875 -2247356 
3751.213 -2289975 -2342114 -2401200 -2461695 -2517305 -2561083 -2589048 
3754.588 -2600411 -2598138 -2586413 -2570504 -2554858 -2542275 -2534435 
3757.964 -2532326 -2536642 -2548336 -2567441 -2592506 -2619612 -2643918 
3761.339 -2659857 -2664006 -2656201 -2639274 -2618427 -2599390 -2586149 
3764.714 -2580089 -2579002 -2578343 -2573205 -2561512 -2544021 -2525013 
3768.089 -2510618 -2507060 -2518260 -2544613 -2581835 -2623532 -2662228 
3771.465 -2692458 -2711622 -2720217 -2720809 -2716463 -2709811 -2701942 
3774.840 -2691898 -2677771 -2657782 -2631238 -2600115 -2569120 -2544515 
3778.215 -2532788 -2538091 -2560523 -2595075 -2633609 -2666904 -2688045 
3781.590 -2694006 -2686366 -2669473 -2649187 -2630975 -2618328 -2612301 
3784.966 -2612103 -2615594 -2621259 -2627451 -2633906 -2640756 -2647968 
3788.341 -2655180 -2662129 -2668551 -2674248 -2679286 -2683468 -2686136 
3791.716 -2685773 -2680999 -2670033 -2652842 -2630514 -2606175 -2583547 
3795.091 -2566024 -2555220 -2550082 -2545700 -2536543 -2516514 -2482978 
3798.467 -2436951 -2384164 -2334073 -2297753 -2285756 -2303620 -2348574 
3801.842 -2408878 -2467625 -2510387 -2528209 -2520797 -2494442 -2460245 
3805.217 -2430130 -2414611 -2420114 -2446868 -2487919 -2532228 -2569582 
3808.592 -2593791 -2603606 -2601432 -2591057 -2575346 -2554858 -2528143 
3811.968 -2492630 -2446967 -2391545 -2330612 -2271286 -2222864 -2194018 
3815.343 -2189667 -2207073 -2237302 -2266968 -2283746 -2281241 -2260211 
3818.718 -2227775 -2195172 -2175589 -2180601 -2215776 -2278043 -2355033 
3822.093 -2430559 -2490324 -2526364 -2538618 -2532491 -2515856 -2496386 
3825.469 -2479914 -2469437 -2464034 -2460838 -2455665 -2445418 -2428647 
3828.844 -2405780 -2378825 -2350452 -2322999 -2298116 -2276758 -2258464 
3832.219 -2242181 -2226259 -2209282 -2189799 -2167248 -2142257 -2116605 
3835.594 -2093226 -2075947 -2068626 -2073903 -2092633 -2123397 -2162237 
3838.969 -2204700 -2246367 -2284174 -2316705 -2343762 -2365677 -2383900 
3842.345 -2399552 -2414249 -2429109 -2444727 -2460376 -2474478 -2484262 
3845.720 -2487194 -2481330 -2465813 -2441102 -2408120 -2367325 -2318418 
3849.095 -2260079 -2190854 -2110373 -2022325 -1934556 -1860362 -1817569 
3852.470 -1823607 -1887448 -2002372 -2146082 -2288492 -2404495 -2482714 
3855.846 -2524025 -2536642 -2530679 -2514274 -2492960 -2469008 -2442815 
3859.221 -2413655 -2381231 -2346234 -2309552 -2272836 -2237862 -2206381 
3862.596 -2181062 -2164677 -2160226 -2169292 -2190161 -2217556 -2243070 
3865.971 -2257541 -2254970 -2234467 -2201139 -2164413 -2136586 -2128541 
3869.347 -2145191 -2183007 -2230347 -2273725 -2302335 -2313607 -2311761 
3872.722 -2306092 -2306323 -2318319 -2342806 -2374542 -2404133 -2421761 
3876.097 -2421563 -2401562 -2365545 -2319638 -2272176 -2231632 -2204634 
3879.472 -2195073 -2202853 -2224050 -2250949 -2274681 -2288294 -2287734 
3882.848 -2273396 -2250421 -2226984 -2212381 -2213963 -2234665 -2270528 
3886.223 -2311925 -2346992 -2366006 -2365216 -2346827 -2317166 -2285097 
3889.598 -2259486 -2246729 -2249301 -2265617 -2290074 -2315946 -2337006 
3892.973 -2349299 -2351276 -2342971 -2325142 -2298775 -2265057 -2225138 
3896.349 -2181557 -2137113 -2095238 -2059525 -2032977 -2017114 -2011342 
3899.724 -2014014 -2022094 -2032911 -2044916 -2057810 -2073078 -2092534 
3903.099 -2117594 -2148488 -2184194 -2221578 -2257179 -2287767 -2311464 
3906.474 -2327482 -2336479 -2339478 -2338094 -2333282 -2326295 -2317990 
3909.850 -2308926 -2300126 -2291788 -2284207 -2276758 -2267990 -2256816 
3913.225 -2241884 -2222963 -2201205 -2178886 -2159039 -2144631 -2137872 
3916.600 -2139257 -2147829 -2161413 -2177040 -2192502 -2205557 -2214952 
3919.975 -2219633 -2219105 -2213073 -2202227 -2188315 -2173479 -2161116 
3923.351 -2153797 -2153335 -2159764 -2171633 -2186040 -2199788 -2210765 
3926.726 -2217721 -2220556 -2220029 -2216699 -2211194 -2203777 -2195205 
3930.101 -2186238 -2178458 -2174139 -2174963 -2181886 -2194183 -2209743 
3933.476 -2225962 -2239675 -2249004 -2253421 -2253421 -2250388 -2245905 
3936.852 -2240994 -2236049 -2230709 -2224479 -2216600 -2207073 -2196392 
3940.227 -2185744 -2176875 -2171732 -2171567 -2177238 -2188678 -2203809 
3943.602 -2220259 -2234731 -2244521 -2247751 -2244060 -2234203 -2220457 
3946.977 -2206084 -2193557 -2185414 -2183106 -2186502 -2194612 -2205623 
3950.353 -2217622 -2228237 -2236115 -2239873 -2239346 -2235126 -2228435 
3953.728 -2220919 -2214227 -2209578 -2207370 -2207172 -2207535 -2206974 
3957.103 -2203875 -2197579 -2188117 -2176150 -2163127 -2150335 -2139026 
3960.478 -2130321 -2124485 -2121814 -2121617 -2123496 -2126068 -2128607 
3963.854 -2129695 -2128904 -2125705 -2120199 -2112780 -2104042 -2094512 
3967.229 -2084653 -2075090 -2065955 -2057546 -2050192 -2043893 -2038584 
3970.604 -2034329 -2030768 -2027635 -2025128 -2023347 -2022886 -2024007 
3973.979 -2026744 -2030438 -2034725 -2038188 -2039837 -2039111 -2036077 
3977.354 -2030933 -2024073 -2016125 -2006956 -1996534 -1984693 -1971401 
3980.730 -1957118 -1943000 -1930465 -1920635 -1914895 -1913411 -1916545 
3984.105 -1923571 -1933665 -1945936 -1959295 -1972621 -1984957 -1995610 
3987.480 -2003921 -2009891 -2014014 -2016751 -2018763 -2020709 -2022259 
3990.855 -2023083 -2022424 -2019423 -2013915 -2006428 -1997886 -1989904 
3994.231 -1984429 -1982945 -1985814 -1993400 -2003823 -2015465 -2026447 
3997.606 -2034923 -2040233 -2042805 -2043630 -2044520 -2046696 -2051181 
##END=
