
##TITLE=Z357a_2_e
##JCAMP-DX=5.01  $$ Nicolet v. 1
##DATATYPE=INFRARED SPECTRUM
##ORIGIN=UniL
##OWNER=Nicolet
##LONGDATE=2011/09/22
##TIME=09:19:43
##SPECTROMETER/DATA SYSTEM=Nicolet iS5
##DATA PROCESSING=
Ratio against background
%Transmittance->Absorbance
Truncated
ElementMultiply or ElementDivide
##COMMENTS=
Number of sample scans: 32
Collection length: 51.20 sec
Sample gain: 2.0
Background collected on: Jeu Sep 22 09:10:47 2011 (GMT+02:00);
Number of background scans: 32
Background gain: 2.0
Sample spacing:  1.000
Number of scan points: 12415
Resolution points: 8192
Number of FFT points: 65536
Apodization: N-B fort;
Phase correction: Mertz;
Laser frequency: 15798.0 cm-1
Number of rejected sample scans: 0
Number of rejected background scans: 0
Bench serial number: ASB1000141;
##RESOLUTION=4.000
##XUNITS=1/CM
##YUNITS=ABSORBANCE
##FIRSTX=649.893372
##LASTX=4000.122314
##FIRSTY=0.101995
##MAXX=4000.122314
##MINX=649.893372
##MAXY=0.302769
##MINY=-0.003306
##XFACTOR=1.000000
##YFACTOR=1.000000E-009
##NPOINTS=6950
##DELTAX=0.482117
##ZPD=6100
##XYDATA=(X++(Y..Y))
649.893 101995384 101584528 101220080 100921384 100687104 100500096 
652.786 100341264 100207160 100117896 100112640 100231864 100501480 
655.679 100921216 101467488 102106328 102812848 103583992 104438672 
658.571 105405128 106503120 107735976 109090616 110550480 112111760 
661.464 113790448 115617184 117624336 119825672 122212384 124757552 
664.357 127435416 130235016 133147312 136147408 139143040 141914944 
667.250 144136032 145450368 145649104 144792720 143155856 141062912 
670.142 138738640 136294368 133751528 131096792 128333632 125504288 
673.035 122678968 119945448 117371056 114986080 112790000 110762776 
675.928 108883064 107139064 105528728 104051936 102701520 101458872 
678.820 100297480 99188936 98113824 97063952 96040704 95048232 94087240 
682.195 93151896 92231640 91317080 90407344 89510296 88642656 87822616 
685.570 87062056 86364664 85725144 85133560 84578848 84053480 83552112 
688.945 83069544 82598328 82125784 81635632 81113208 80548448 79939384 
692.320 79292896 78621840 77942224 77269136 76616416 75997592 75425288 
695.694 74913152 74473432 74114632 73839904 73645616 73524168 73464944 
699.069 73459808 73505016 73600904 73750328 73954872 74210816 74508912 
702.444 74834928 75172416 75509224 75838792 76160592 76477856 76794680 
705.819 77112560 77429848 77744432 78054680 78364120 78680968 79017528 
709.194 79388272 79811224 80307328 80902344 81629072 82520912 83604256 
712.569 84886328 86342312 87907552 89475288 90921592 92120160 92970080 
715.943 93423560 93489504 93234312 92759744 92196608 91683792 91345544 
719.318 91299176 91635840 92408552 93624064 95222336 97073680 98967824 
722.693 100652392 101873376 102410024 102143336 101078376 99351720 97190128 
726.068 94868960 92656248 90741112 89230288 88141048 87426240 87004400 
729.443 86790048 86718392 86742712 86835128 86977200 87150608 87336936 
732.817 87520712 87692272 87852104 88007360 88169176 88345176 88536528 
736.192 88738648 88944408 89148184 89348600 89549144 89754104 89966496 
739.567 90186376 90410368 90634632 90858232 91082904 91312048 91548768 
742.942 91792656 92040128 92286952 92530192 92771064 93014616 93266312 
746.317 93528304 93796048 94058440 94301928 94515568 94694864 94843848 
749.692 94972032 95089760 95203032 95312088 95413112 95502152 95579816 
753.066 95651872 95727120 95814160 95916008 96029496 96146368 96258176 
756.441 96361040 96457312 96554632 96662576 96789384 96939880 97115080 
759.816 97315560 97542712 97798784 98085712 98401784 98741088 99093440 
763.191 99449984 99808120 100178232 100584384 101067752 101681712 102480416 
766.566 103516320 104821568 106393176 108177016 110060456 111881312 
769.458 113436296 114538808 115064408 114993200 114432456 113599952 
772.351 112779904 112217976 112064800 112315552 112813584 113281480 
775.244 113401712 112931320 111746080 109886056 107517816 104887792 
778.136 102237208 99735288 97469840 95438456 93582464 91818488 90076568 
781.511 88316624 86530352 84735040 82962200 81248664 79627416 78126984 
784.886 76772104 75580824 74566544 73737048 73094240 72635952 72358464 
788.261 72259144 72338232 72600112 73051584 73701360 74559344 75636904 
791.636 76948328 78512096 80350304 82486768 84940320 87717896 90805472 
795.010 94164776 97729152 101401496 105070496 108613264 111910472 114875120 
798.385 117465016 119705960 121690568 123580864 125575024 127851696 
801.278 130537656 133641704 137030272 140398096 143311936 145293840 
804.171 145876256 144754704 141857248 137380384 131739480 125477392 
807.063 119159120 113203600 107846264 103110496 98851488 94830368 90807104 
810.438 86631264 82264312 77784336 73334256 69083584 65171644 61676932 
813.813 58625172 55995172 53741964 51812824 50160720 48748916 47545876 
817.188 46526844 45670320 44958184 44377444 43918876 43575732 43341096 
820.563 43206168 43160312 43194128 43301120 43481048 43739168 44084868 
823.938 44528780 45078884 45739712 46511132 47387612 48356256 49396196 
827.312 50477440 51559296 52598148 53555524 54406916 55154624 55832332 
830.687 56509056 57275784 58240504 59515072 61188032 63313484 65883452 
834.062 68814648 71924104 74932128 77509056 79282872 79930376 79255112 
837.437 77219096 73973296 69811024 65131640 60333688 55751552 51637656 
840.812 48122324 45239068 42949932 41178368 39833944 38827500 38086376 
844.186 37548988 37164416 36895884 36715560 36606284 36559824 36572112 
847.561 36638804 36752916 36903208 37078088 37269532 37475660 37701652 
850.936 37956396 38249032 38584264 38961544 39376848 39826172 40309048 
854.311 40829916 41396052 42016140 42697580 43445268 44264424 45163804 
857.686 46156276 47262280 48507988 49921092 51533852 53380440 55496020 
861.060 57919172 60681236 63794956 67234368 70919168 74705040 78371976 
864.435 81663344 84312304 86076296 86801144 86437392 85059112 82841728 
867.810 80045464 76974400 73908600 71100888 68740392 66937700 65745264 
871.185 65160288 65142616 65622000 66509032 67701976 69076824 70499728 
874.560 71833320 72936416 73694408 74030664 73917904 73385216 72510048 
877.935 71407912 70199656 69001040 67901216 66946672 66143088 65458172 
881.309 64838528 64220652 63551216 62802748 61976332 61102284 60228128 
884.684 59410200 58696360 58117420 57687336 57404112 57258392 57240588 
888.059 57346444 57577948 57941020 58440076 59075740 59842108 60728712 
891.434 61724368 62819400 64008848 65291776 66669168 68142368 69709824 
894.809 71365896 73098552 74885240 76688472 78453584 80101000 81535240 
898.183 82656720 83368808 83605776 83341352 82597088 81436424 79956504 
901.558 78277144 76514208 74778640 73165096 71741064 70554920 69633928 
904.933 68987720 68615224 68508368 68657104 69052656 69688704 70562360 
908.308 71672320 73018464 74599944 76416296 78467200 80752440 83270104 
911.683 86013320 88966448 92099392 95371760 98734184 102137216 105546464 
915.058 108949232 112362336 115828600 119413264 123189736 127219216 
917.950 131538032 136133936 140933408 145778032 150429776 154594496 
920.843 157926480 160114288 160940960 160339872 158443056 155580416 
923.736 152268272 149090592 146656848 145519200 146050752 148430432 
926.628 152582624 158196816 164714912 171397024 177472224 182160944 
929.521 184845936 185170528 183032992 178586720 172151696 164161056 
932.414 155066992 145297696 135270096 125343736 115830376 107004792 99066376 
935.789 92155192 86353344 81682544 78127456 75647032 74189112 73690840 
939.163 74071368 75226744 77000904 79180872 81518408 83719792 85500736 
942.538 86634536 86964160 86443816 85132152 83183376 80805080 78220000 
945.913 75645696 73246824 71134104 69365280 67949176 66862912 66065616 
949.288 65513336 65163328 64977580 64925284 64977808 65109396 65298132 
952.663 65525936 65781040 66058516 66358560 66683808 67036480 67416832 
956.037 67822888 68252080 68702344 69173912 69668232 70186992 70729776 
959.412 71293688 71873976 72466000 73067384 73678784 74303352 74944848 
962.787 75605704 76285144 76980848 77689504 78409880 79143064 79892704 
966.162 80662224 81453696 82266400 83097512 83944248 84805928 85684336 
969.537 86583648 87508064 88459592 89437624 90439944 91464016 92509816 
972.912 93580616 94681592 95817960 96992776 98206032 99455816 100740880 
976.286 102062360 103424320 104833168 106294976 107813648 109390856 
979.179 111028056 112729648 114504992 116369448 118340744 120435520 
982.072 122666128 125036824 127544952 130180376 132926672 135757360 
984.964 138629072 141482144 144231024 146770128 148992704 150794880 
987.857 152099792 152871472 153117344 152888864 152270064 151376928 
990.750 150337360 149279216 148329952 147593472 147146032 147035808 
993.643 147277600 147861312 148760416 149944448 151385056 153060352 
996.535 154956352 157061088 159360896 161840608 164481616 167265552 
999.428 170176208 173195520 176300016 179456224 182612512 185704816 
1002.321 188665216 191427936 193946496 196200464 198197376 199969840 
1005.213 201570720 203071424 204549408 206089216 207776096 209680576 
1008.106 211856224 214330704 217103328 220149792 223430480 226904496 
1010.999 230530816 234273536 238100000 241970544 245840016 249660992 
1013.891 253387040 256983936 260431200 263714816 266815968 269695808 
1016.784 272284096 274488128 276202528 277331488 277819040 277660352 
1019.677 276913184 275686336 274140000 272469120 270870816 269548960 
1022.570 268681920 268397568 268775744 269832256 271529312 273783456 
1025.462 276488672 279535040 282806816 286195552 289590464 292862944 
1028.355 295879072 298498336 300584384 302032448 302768992 302755040 
1031.249 301980576 300453440 298194304 295236096 291629824 287446560 
1034.142 282768384 277686688 272284576 266627312 260767552 254748320 
1037.035 248612720 242416992 236228352 230121168 224176544 218466208 
1039.928 213053904 207994624 203326496 199067552 195204592 191683792 
1042.821 188399408 185194336 181891376 178302336 174272352 169719456 
1045.714 164641472 159125008 153317824 147416448 141622864 136112000 
1048.607 131033032 126482832 122510496 119126808 116309288 114014712 
1051.500 112186832 110769016 109707976 108955440 108472400 108221816 
1054.393 108163880 108254384 108436800 108643304 108804128 108846104 
1057.286 108704368 108331208 107696024 106792584 105638584 104279232 
1060.179 102783168 101235384 99738200 98392680 97290104 96509976 96106384 
1063.554 96109816 96527688 97346192 98531096 100026904 101763504 103649184 
1066.930 105574736 107430952 109106168 110504960 111562264 112239984 
1069.823 112531072 112451056 112031128 111308648 110319752 109099096 
1072.716 107676368 106076848 104326920 102455160 100497264 98501992 96527200 
1076.091 94641296 92920248 91432352 90239024 89385600 88895696 88772632 
1079.466 88997272 89532328 90318288 91275824 92314488 93326640 94205064 
1082.842 94859600 95224824 95280600 95055656 94630296 94120160 93659664 
1086.217 93394056 93447960 93920944 94879424 96346848 98304624 100688688 
1089.592 103401024 106306272 109244544 112061712 114608344 116764880 
1092.485 118455592 119641104 120319504 120514544 120269064 119634032 
1095.378 118664208 117420304 115964944 114363640 112690176 111017056 
1098.271 109412680 107934624 106613224 105444664 104381744 103341464 
1101.164 102208360 100854176 99172240 97089176 94589632 91718168 88576952 
1104.540 85307488 82058296 78982520 76207464 73823328 71890280 70433520 
1107.915 69451624 68924264 68819584 69098616 69715112 70621072 71763504 
1111.290 73080864 74508832 75972800 77389216 78676880 79754760 80552920 
1114.665 81025320 81148360 80925304 80381400 79560160 78515112 77300848 
1118.041 75973232 74581256 73163872 71752984 70368832 69023176 67722184 
1121.416 66468948 65266864 64121900 63041972 62035992 61110712 60268020 
1124.791 59504240 58811264 58180528 57607500 57095528 56657316 56314292 
1128.166 56092396 56014588 56098016 56347600 56754764 57296464 57937912 
1131.542 58635752 59337568 59991400 60550412 60977092 61253952 61385448 
1134.917 61400140 61343240 61272192 61246588 61313744 61505760 61832280 
1138.292 62279760 62812360 63376048 63909180 64341904 64608620 64656452 
1141.667 64444548 63950984 63171820 62118100 60812560 59286596 57579540 
1145.042 55733280 53793116 51807036 49818996 47870500 45997668 44226896 
1148.418 42576704 41057548 39672620 38420832 37298852 36302616 35427532 
1151.793 34668820 34020992 33477914 33033672 32683294 32423410 32252752 
1155.168 32170962 32177846 32272772 32454618 32721952 33074718 33514060 
1158.543 34043032 34665408 35384036 36200468 37113848 38121244 39217248 
1161.919 40394276 41639920 42935816 44258004 45573784 46845796 48036232 
1165.294 49105968 50021424 50755656 51287536 51604708 51703228 51588700 
1168.669 51275120 50785452 50149376 49398532 48565788 47682644 46775824 
1172.044 45870272 44988612 44150740 43376684 42684856 42090388 41606004 
1175.420 41240120 40997604 40881532 40894564 41039776 41321960 41746708 
1178.795 42319672 43046696 43933284 44985492 46211148 47619192 49219436 
1182.170 51022540 53036960 55269272 57722300 60393616 63271584 66329456 
1185.545 69523984 72784336 76013736 79100048 81911384 84318104 86209424 
1188.921 87494200 88120144 88075216 87389328 86127968 84384408 82274720 
1192.296 79914560 77416656 74884848 72399768 70026648 67812464 65785052 
1195.671 63958936 62336136 60909300 59663412 58578152 57629932 56790900 
1199.046 56031244 55321280 54628664 53923724 53180448 52377320 51502328 
1202.422 50553744 49542196 48488168 47420020 46370756 45370544 44444828 
1205.797 43611776 42880292 42252576 41725408 41293536 40949940 40687248 
1209.172 40497888 40372860 40303412 40281892 40303340 40366860 40475848 
1212.547 40637288 40859908 41151300 41517912 41963112 42487828 43090564 
1215.923 43767572 44512260 45314344 46161248 47038020 47929624 48824024 
1219.298 49712656 50591156 51458868 52317628 53171384 54025324 54888460 
1222.673 55773364 56695408 57673676 58726060 59866868 61104344 62438348 
1226.048 63860208 65352356 66890888 68445368 69978880 71454312 72833512 
1229.424 74082096 75176000 76101960 76860480 77464656 77941912 78332336 
1232.799 78685496 79065824 79547464 80207400 81129464 82391304 84058384 
1236.174 86185664 88810032 91952816 95621064 99809000 104496864 109645952 
1239.549 115200856 121082760 127188128 133405192 139609120 145671344 
1242.442 151473456 156896368 161825536 166159280 169802576 172678032 
1245.335 174731408 175927600 176252528 175709344 174318240 172116784 
1248.229 169159904 165521648 161282880 156522064 151307872 145687744 
1251.122 139694624 133356080 126707088 119803840 112733080 105601272 
1254.015 98538288 91682080 85154920 79068048 73503288 68505032 64086376 
1257.390 60227060 56882752 53988852 51471848 49257444 47269928 45443824 
1260.765 43726160 42075276 40466900 38890332 37346152 35842204 34390172 
1264.140 33001888 31687174 30453896 29307724 28252184 27289094 26417040 
1267.516 25632132 24927064 24292968 23721978 23208426 22749702 22346574 
1270.891 22001154 21715746 21491480 21329202 21230272 21197704 21236952 
1274.266 21354156 21554116 21837574 22199006 22624720 23092398 23574640 
1277.641 24036934 24441424 24753010 24939452 24979564 24866990 24611320 
1281.017 24237188 23776712 23266416 22736818 22208770 21693974 21196314 
1284.392 20716944 20259108 19829812 19439780 19101198 18824122 18614868 
1287.767 18476306 18409168 18414666 18495704 18655852 18898418 19223612 
1291.142 19628114 20103572 20638446 21218232 21824090 22433514 23020628 
1294.518 23555330 24009796 24363510 24607324 24748030 24807138 24818540 
1297.893 24819242 24845728 24929908 25094518 25355216 25719942 26187516 
1301.268 26745198 27365666 28008968 28620520 29140268 29514360 29697924 
1304.643 29666066 29415922 28964800 28345690 27600860 26779804 25929836 
1308.019 25094272 24310874 23606546 22997188 22487806 22074150 21746992 
1311.394 21495622 21312426 21192938 21135642 21139502 21201984 21318518 
1314.769 21483960 21694358 21948492 22247902 22594492 22988210 23424978 
1318.144 23896668 24393720 24908186 25435662 25976266 26531352 27100514 
1321.520 27678014 28250910 28799530 29302230 29737804 30090002 30351692 
1324.895 30527152 30632632 30695606 30754320 30852564 31030466 31321534 
1328.270 31741816 32287192 32932970 33641032 34369656 35080860 35750920 
1331.645 36371572 36948588 37496032 38030784 38569020 39121920 39698144 
1335.021 40303084 40939636 41607680 42303088 43018048 43740928 44458520 
1338.396 45158472 45830060 46464852 47056744 47601332 48096116 48541296 
1341.771 48940720 49301720 49633860 49947112 50248724 50541908 50825268 
1345.146 51095140 51347164 51578584 51787808 51970916 52116776 52204840 
1348.521 52202260 52067916 51763472 51258228 50540976 49624348 48546704 
1351.897 47366436 46152888 44984240 43932660 43058476 42409092 42009352 
1355.272 41860680 41939024 42200360 42585072 43025548 43462848 43847396 
1358.647 44145716 44342472 44437412 44444496 44389264 44311540 44262516 
1362.022 44297556 44474192 44834992 45396224 46143824 47032884 47997892 
1365.398 48954624 49817508 50503344 50934048 51053696 50832272 50274316 
1368.773 49417576 48328112 47088940 45778512 44468208 43213196 42048628 
1372.148 41000336 40088492 39332768 38755440 38376564 38206624 38240960 
1375.523 38459172 38832428 39330340 39932120 40631032 41433992 42359708 
1378.899 43435676 44698640 46189556 47955008 50038340 52461436 55203912 
1382.274 58176892 61226332 64121588 66588744 68365896 69211408 68960848 
1385.649 67559416 65093116 61797900 58016144 54155020 50564276 47474056 
1389.024 44987184 43089576 41700424 40709664 40013680 39522204 39160100 
1392.400 38871020 38607984 38334616 38029408 37685352 37311524 36927052 
1395.775 36552616 36203060 35883188 35590564 35319876 35069688 34845888 
1399.150 34662900 34539320 34494048 34539608 34680484 34913928 35232404 
1402.525 35625772 36082320 36592264 37147088 37740032 38365960 39020484 
1405.901 39699560 40400060 41121032 41864184 42634124 43436812 44277156 
1409.276 45157076 46074480 47024728 48002256 49001844 50017596 51039608 
1412.651 52048380 53015024 53903240 54676912 55314392 55816124 56209628 
1416.026 56541848 56874328 57270564 57781984 58443824 59265364 60226640 
1419.402 61282376 62372856 63440576 64436212 65327288 66099568 66757328 
1422.777 67328032 67859952 68420072 69072936 69863592 70806368 71882344 
1426.152 73052840 74273160 75509376 76739128 77951264 79142584 80314424 
1429.527 81473720 82635480 83829128 85096360 86480488 88020880 89739400 
1432.903 91640096 93712824 95947584 98346512 100924768 103708584 106717888 
1436.278 109947592 113352928 116862440 120405136 123925664 127384408 
1439.171 130736128 133917552 136821952 139300816 141196912 142346496 
1442.064 142616160 141926816 140252128 137629408 134152960 129980672 
1444.957 125311360 120356048 115338672 110456552 105875384 101734232 
1447.850 98123672 95079944 92576232 90537360 88861784 87453960 86258400 
1451.225 85269224 84527120 84089752 84005680 84282648 84881904 85717552 
1454.601 86674664 87635224 88481400 89132848 89574152 89875776 90168560 
1457.976 90587928 91244104 92194968 93463704 95055368 96958760 99145600 
1461.351 101558992 104119640 106708992 109167848 111325000 113004512 
1464.244 114081496 114527080 114426080 113949104 113281136 112587792 
1467.137 111977912 111504744 111187288 111016336 110960544 110956816 
1470.030 110907368 110678376 110106096 109047768 107434432 105321040 
1472.923 102879232 100339888 97911320 95719192 93819728 92228808 90951496 
1476.299 90003232 89402656 89153880 89233912 89587960 90144048 90822784 
1479.674 91560840 92323104 93103328 93923416 94821592 95846184 97045512 
1483.049 98469360 100177280 102235152 104713936 107673688 111140424 
1485.942 115077664 119358560 123775832 128021880 131714792 134460736 
1488.835 135866336 135629280 133621928 129932896 124872824 118878496 
1491.728 112422848 105884848 99500152 93398664 87616544 82156288 77042760 
1495.104 72335296 68136472 64569288 61730900 59659760 58323756 57647416 
1498.479 57534900 57896532 58662720 59775564 61183760 62839008 64686216 
1501.854 66664608 68712864 70749816 72675080 74360016 75613048 76188512 
1505.229 75807184 74226616 71380928 67479144 62969184 58330840 53900164 
1508.604 49814200 46067624 42605428 39382904 36382632 33622092 31133506 
1511.980 28939936 27049168 25447326 24107330 22997606 22087852 21349804 
1515.355 20752150 20261850 19849510 19494948 19196252 18966290 18823362 
1518.730 18777378 18822082 18932128 19072704 19211144 19336012 19463688 
1522.105 19631648 19875420 20209154 20624860 21100162 21613418 22151306 
1525.481 22715974 23321162 23985318 24720564 25527508 26397602 27320638 
1528.856 28291366 29313006 30396500 31555854 32802236 34142096 35573660 
1532.231 37085956 38661332 40275308 41902132 43518552 45110276 46669708 
1535.606 48192812 49670936 51089808 52432648 53672560 54779592 55721376 
1538.982 56463660 56973748 57227244 57221384 56978928 56545740 55976852 
1542.357 55314392 54576660 53754788 52825564 51770416 50596928 49345220 
1545.732 48080312 46865136 45732236 44678992 43670356 42661976 41621028 
1549.107 40548376 39479020 38472092 37579588 36824864 36198992 35671092 
1552.483 35208148 34790640 34421336 34119980 33909460 33798344 33772592 
1555.858 33794728 33813316 33762204 33563528 33139658 32433302 31451962 
1559.233 30291078 29101896 28016494 27099456 26353238 25743918 25224566 
1562.608 24748204 24276640 23786546 23275260 22760352 22272524 21843706 
1565.984 21489808 21206892 20972732 20757018 20530606 20275320 19990036 
1569.359 19689510 19397888 19137658 18923684 18761740 18651874 18591246 
1572.734 18575198 18595084 18635272 18673286 18683352 18643192 18547430 
1576.109 18413110 18275962 18171194 18118924 18119164 18158930 18221432 
1579.485 18294070 18372492 18458984 18558876 18675878 18809208 18953622 
1582.860 19102514 19250418 19394284 19532410 19661220 19772624 19855128 
1586.235 19895746 19886416 19828110 19733336 19623432 19524612 19463378 
1589.610 19459392 19526970 19673840 19902580 20209536 20581466 20994536 
1592.986 21410610 21781654 22060414 22205946 22195416 22029634 21731630 
1596.361 21341000 20901488 20456898 20042046 19682402 19398200 19204320 
1599.736 19111068 19124086 19242798 19460708 19767804 20154486 20612212 
1603.111 21133102 21707594 22319332 22942342 23543578 24082742 24518230 
1606.487 24815522 24947382 24900500 24674900 24282702 23743954 23083416 
1609.862 22330948 21519958 20687094 19873200 19113386 18432952 17843198 
1613.237 17339892 16906854 16520711 16157882 15796663 15422628 15034063 
1616.612 14642314 14270505 13944893 13687637 13510407 13413275 13386860 
1619.988 13415018 13479132 13560348 13645442 13729733 13818110 13922073 
1623.363 14053506 14219900 14421054 14651841 14906310 15181033 15474678 
1626.738 15785048 16107298 16430750 16741943 17029960 17291032 17531042 
1630.113 17762352 17999584 18252220 18521634 18800146 19073326 19324164 
1633.489 19533658 19684934 19763748 19761422 19678102 19526588 19329742 
1636.864 19113282 18897658 18693590 18500404 18309276 18106418 17879416 
1640.239 17621268 17335030 17032096 16730027 16444204 16182300 15942242 
1643.614 15712623 15476498 15214970 14913374 14565796 14177277 13764411 
1646.990 13352724 12970922 12643792 12388055 12212138 12114649 12086201 
1650.365 12106778 12146302 12158433 12085383 11877543 11523710 11076340 
1653.740 10626106 10250355 9975748 9787283 9654390 9548464 9451198 9354563 
1657.597 9258661 9167146 9083432 9007819 8936481 8863125 8781430 8685485 
1661.455 8571246 8436494 8281487 8110635 7932290 7758843 7603774 7477480 
1665.312 7385429 7325949 7290871 7265904 7234705 7182151 7097572 6978126 
1669.170 6829326 6662981 6493033 6332128 6190003 6072688 5981505 5913013 
1673.027 5858436 5802321 5725564 5612301 5456554 5269067 5073515 4897418 
1676.885 4759313 4662879 4600355 4557795 4523242 4491101 4465055 4454979 
1680.742 4471383 4517650 4586224 4655244 4693693 4668339 4557628 4367985 
1684.599 4136174 3911039 3727560 3598245 3516766 3468902 3440012 3418638 
1688.457 3396998 3369482 3332953 3286945 3234632 3184262 3146347 3132229 
1692.314 3148416 3194543 3260938 3331183 3384208 3401406 3376762 3322168 
1696.172 3264810 3231227 3236502 3277530 3336993 3386913 3395295 3337928 
1700.029 3208562 3029283 2839839 2678548 2564744 2497722 2465964 2453701 
1703.886 2445338 2426445 2387496 2324732 2241560 2146517 2050428 1962416 
1707.744 1887534 1826938 1778627 1739736 1708633 1685481 1673108 1674571 
1711.601 1692367 1726097 1772772 1827603 1885703 1943778 2000395 2055156 
1715.459 2105029 2143953 2161534 2146983 2094841 2010681 1910530 1814727 
1719.316 1740501 1696924 1684117 1695926 1723768 1759797 1798357 1836488 
1723.174 1873923 1911228 1949735 1990709 2035748 2087083 2146517 2214583 
1727.031 2289156 2364608 2432742 2485658 2519150 2534681 2539380 2543179 
1730.888 2553912 2572543 2589809 2586009 2537147 2422280 2237730 2004323 
1734.746 1762026 1550422 1391869 1290165 1234936 1210747 1201244 1193137 
1738.603 1177189 1148917 1109451 1063844 1019902 984998 964110 959959 971648 
1742.943 996090 1028504 1064641 1101578 1139183 1179150 1223439 1272719 
1746.800 1325094 1375947 1418994 1448481 1459884 1450675 1419792 1367239 
1750.658 1294652 1205730 1108122 1011699 927218 863801 825025 809157 808394 
1754.997 811746 807066 786120 747185 696439 645068 603524 577711 567094 
1759.337 565303 562317 548416 516800 464721 395004 314589 232464 158044 
1763.677 98286 58286 39895 41386 57657 80987 102230 114625 116249 111079 
1768.498 107732 113962 133484 162619 191457 205976 194043 151117 83373 5135 
1773.320 -67720 -123605 -159842 -179615 -188889 -191770 -189915 -181900 
1777.177 -166367 -143281 -116251 -90844 -72988 -66528 -71033 -82462 -94488 
1781.517 -102239 -103465 -99788 -94587 -91473 -92931 -98926 -108069 -117974 
1785.857 -126719 -132416 -132880 -125526 -106910 -74280 -26904 32141 96165 
1790.196 154697 196164 211048 194838 149791 83969 9012 -64540 -129932 
1794.536 -183490 -224491 -253335 -270985 -278336 -277309 -270521 -261117 
1798.393 -251811 -245056 -241910 -243367 -249527 -260785 -277508 -299130 
1802.251 -323764 -348529 -369585 -384019 -390077 -388124 -379980 -367996 
1806.108 -353561 -336842 -316513 -291216 -260918 -228001 -196440 -171236 
1809.966 -156232 -153118 -160571 -175044 -192664 -209456 -223299 -232902 
1813.823 -237605 -236777 -229458 -214920 -193393 -165903 -134470 -101444 
1817.680 -68018 -34226 762 37906 77474 119298 162188 205313 248012 290450 
1822.502 332030 371193 404921 429961 444156 448899 449861 454837 471255 
1826.842 503233 549378 602828 653497 691925 712103 714692 705698 695111 
1831.181 691195 697965 715223 740148 769457 801688 837441 878808 927716 
1835.521 984467 1047801 1115397 1185429 1257998 1335165 1420291 1517303 
1839.378 1629038 1756703 1900180 2058086 2227872 2405454 2584976 2759203 
1843.236 2919823 3061282 3182026 3286511 3382205 3476149 3572253 3668879 
1847.093 3759710 3835752 3889541 3916188 3915118 3889040 3842806 3780266 
1850.951 3703398 3612110 3505910 3385678 3253360 3113073 2968561 2822530 
1854.808 2676081 2529048 2381499 2235132 2093076 1959121 1836022 1723902 
1858.666 1620391 1521559 1424114 1327022 1231447 1140445 1057002 982341 
1862.523 915463 854737 799099 749973 710643 685354 676626 683363 700654 
1866.863 720401 734340 736929 726441 705532 678717 651008 624860 601135 
1871.202 579470 559994 543141 530070 520980 514810 508607 499484 484889 
1875.542 464389 439015 411089 381871 350865 316445 276260 229712 178662 
1879.881 126822 78634 36780 927 -32105 -66925 -106844 -152389 -200315 
1884.221 -245652 -283104 -309692 -325486 -332935 -335617 -336180 -336345 
1888.078 -336842 -338597 -343530 -353131 -368161 -386833 -404676 -416460 
1891.936 -417288 -405305 -382893 -355581 -329359 -309030 -295422 -285852 
1895.793 -276283 -263037 -245652 -225981 -207767 -193161 -182099 -171799 
1899.651 -159080 -141359 -119464 -96144 -75804 -60995 -52017 -46120 -39659 
1903.990 -29653 -16169 -1192 11895 20874 25381 27038 27999 29291 29291 24751 
1909.294 12988 -6726 -31178 -55131 -72690 -79613 -75837 -63579 -46650 -27069 
1914.116 -5632 19516 48676 80026 107897 124668 123276 101435 62660 16269 
1918.938 -27268 -59902 -79514 -89187 -95051 -102637 -114959 -131157 -148415 
1923.277 -164048 -177628 -190876 -206210 -224325 -244029 -261746 -273799 
1927.135 -279130 -279726 -279726 -283733 -292739 -304428 -313401 -314361 
1930.992 -304428 -286117 -265057 -248235 -239791 -239493 -242473 -243632 
1934.850 -239625 -230750 -221643 -217271 -220649 -230518 -241347 -247076 
1938.707 -243996 -232803 -218066 -205779 -200050 -200812 -204455 -205183 
1942.564 -200348 -189949 -178357 -169480 -164181 -158815 -146394 -119663 
1946.422 -75638 -17129 47284 107400 155691 189700 212308 228817 243537 
1950.761 257627 268999 274038 271983 265153 258787 258456 266446 279840 
1955.101 292672 297314 289721 272049 249935 231469 221491 219402 220330 
1959.441 217082 205181 185325 162784 145482 138058 141240 151316 163580 
1963.780 174386 183999 195866 213203 235945 260810 280470 289688 286836 
1968.120 276293 266280 262965 269231 281233 291644 294562 287963 277851 
1972.459 273044 282625 309880 352125 400908 449530 495338 542278 598780 
1976.799 670421 755516 843948 919747 969456 986725 976197 948536 916858 
1981.139 889897 868084 845508 814269 768527 709249 641916 574791 515175 
1985.478 466413 427573 396530 372221 356436 353916 367048 395668 433609 
1989.818 472151 501043 514909 513616 502337 488935 479880 477657 482368 
1994.157 491788 504659 521279 543274 571308 603624 636241 663419 682334 
1998.497 693352 699757 707059 718111 730922 739451 734904 710444 665874 
2002.837 607772 548051 499351 471388 467607 485784 520051 564639 614673 
2007.176 667235 718476 763515 796443 812377 810352 796145 779182 771482 
2011.516 781672 812145 858721 912010 963014 1006153 1039797 1066003 1086630 
2015.855 1101312 1106860 1100083 1078857 1047403 1013592 986924 973873 
2019.713 977393 993632 1016980 1042122 1067331 1095532 1130811 1175329 
2023.570 1227659 1281558 1329681 1367272 1394994 1417000 1441101 1473349 
2027.428 1514677 1562060 1610314 1655013 1696059 1736077 1779692 1829134 
2031.285 1883740 1938919 1989977 2034582 2074465 2114685 2159736 2210620 
2035.143 2263309 2310908 2346418 2367307 2377234 2383565 2395092 2416382 
2039.000 2446304 2477294 2501254 2510585 2503787 2484558 2459533 2435375 
2042.857 2415849 2401156 2389595 2380033 2373003 2372237 2381166 2402289 
2046.715 2435008 2476061 2520350 2564277 2605108 2641343 2671414 2693018 
2050.572 2703086 2700352 2686183 2666513 2649977 2646277 2661079 2694018 
2054.430 2738396 2783512 2818795 2838272 2842174 2837004 2831101 2831501 
2058.287 2840740 2857182 2875893 2892070 2902611 2907014 2905913 2900476 
2062.145 2890436 2875293 2854614 2830534 2806756 2788114 2777910 2777043 
2066.002 2782478 2789848 2794250 2793683 2789314 2784312 2780978 2780377 
2069.859 2779777 2775009 2762804 2742631 2717490 2692784 2673847 2662712 
2073.717 2657945 2654978 2648711 2636710 2620175 2603142 2590809 2587176 
2077.574 2592675 2604842 2619842 2634476 2647511 2659379 2671414 2683982 
2081.432 2696285 2706287 2712455 2715023 2716089 2718790 2725759 2736995 
2085.289 2750266 2761904 2768373 2768473 2763171 2755435 2747432 2739930 
2089.146 2730794 2716790 2695751 2667946 2637677 2611409 2596109 2595542 
2093.004 2610108 2635576 2666480 2696985 2723025 2743331 2757902 2767172 
2096.861 2771641 2771507 2768640 2765538 2766839 2776709 2797285 2828099 
2100.719 2865320 2904012 2939871 2971597 3001323 3032753 3069991 3114007 
2104.576 3163101 3213836 3262273 3306876 3348479 3390186 3435136 3484232 
2108.434 3536408 3588356 3637470 3682312 3724218 3765426 3808576 3853303 
2112.291 3897699 3937419 3968649 3990151 4003527 4012857 4023123 4037805 
2116.148 4057938 4082521 4109547 4137645 4166682 4197895 4232022 4268995 
2120.006 4307477 4344992 4379866 4411831 4442694 4475199 4511858 4553208 
2123.863 4598547 4645464 4692554 4739951 4789061 4842265 4900367 4962198 
2127.721 5023501 5079381 5125847 5161992 5189856 5213799 5238179 5265981 
2131.578 5297341 5331386 5366977 5404785 5447126 5496383 5553902 5616765 
2135.436 5679772 5736073 5780259 5811522 5833383 5852223 5874489 5902836 
2139.293 5936022 5970050 5999411 6020475 6031999 6035292 6031092 6019266 
2143.150 5997127 5962458 5914525 5857059 5797149 5743795 5704447 5682323 
2147.008 5674502 5673192 5670775 5661712 5644088 5620223 5593002 5563568 
2150.865 5530007 5488363 5434577 5366574 5285971 5196630 5101943 5004998 
2154.723 4904891 4802395 4699186 4603034 4526121 4484338 4488925 4544168 
2158.580 4641747 4763902 4890850 5004462 5094735 5159108 5198910 5215878 
2162.438 5210714 5183116 5132251 5060474 4973325 4876676 4776230 4676310 
2166.295 4575877 4474362 4370160 4264243 4160794 4065363 3981188 3910370 
2170.152 3850127 3796476 3745373 3695344 3648195 3607934 3577932 3558623 
2174.010 3547098 3538479 3525852 3505309 3475181 3436205 3390419 3340165 
2177.867 3286544 3231428 3177153 3127290 3085542 3055209 3034989 3021008 
2181.725 3006361 2983607 2949379 2904379 2853813 2805088 2764138 2733728 
2185.582 2713689 2702020 2696985 2698819 2709388 2730560 2761537 2798585 
2189.439 2834570 2862819 2879129 2883865 2881497 2879162 2882297 2892671 
2193.297 2908148 2923959 2936269 2942807 2945576 2948511 2955817 2969462 
2197.154 2988312 3009297 3028916 3044465 3055810 3062884 3067055 3067822 
2201.012 3065086 3058112 3047268 3034722 3023878 3017438 3016604 3019807 
2204.869 3023044 3022977 3017538 3006962 2994684 2984008 2977269 2974299 
2208.727 2973098 2970596 2965759 2959887 2955484 2955851 2962356 2973232 
2212.584 2984708 2991881 2992482 2986276 2977335 2969929 2967961 2972198 
2216.441 2980371 2988378 2992482 2991014 2984575 2975500 2966026 2957185 
2220.299 2949012 2940038 2929964 2919856 2911817 2908215 2910283 2916454 
2224.156 2923626 2927595 2925060 2914886 2898975 2879829 2861051 2844208 
2228.014 2829800 2817394 2806289 2797018 2790048 2786813 2787180 2789348 
2231.871 2791082 2789715 2783579 2773375 2761437 2750900 2745165 2746198 
2235.729 2754701 2770840 2794217 2824864 2862552 2906413 2954750 3003792 
2239.586 3050104 3090614 3123619 3149384 3169142 3184062 3194943 3201853 
2243.443 3205191 3206326 3208428 3216339 3234499 3266179 3310649 3364540 
2247.301 3420976 3472976 3514829 3543523 3558623 3562064 3556151 3543390 
2251.158 3526019 3506912 3488675 3475181 3469269 3472409 3483965 3500900 
2255.016 3519171 3534771 3545628 3551374 3553144 3552910 3550772 3546463 
2258.873 3538078 3524215 3504106 3479156 3451401 3423581 3397666 3374858 
2262.730 3355725 3341200 3332585 3332085 3341667 3361334 3389117 3420942 
2266.588 3451501 3476149 3492650 3501301 3504374 3505142 3505643 3507013 
2270.445 3508282 3508415 3506979 3504574 3502637 3502937 3506344 3512290 
2274.303 3519472 3526186 3531564 3535673 3539648 3544225 3549937 3555884 
2278.160 3560293 3561997 3560126 3555416 3549837 3545828 3545294 3549102 
2282.018 3557253 3569213 3583946 3601218 3620764 3642014 3663933 3684818 
2285.875 3703064 3717434 3727727 3735046 3741496 3749082 3759477 3773581 
2289.732 3791229 3811919 3835352 3860858 3888773 3918996 3951596 3986505 
2293.590 4023659 4063256 4105701 4151294 4200204 4251562 4303662 4354196 
2297.447 4401288 4443631 4481526 4515943 4548855 4581804 4615558 4650153 
2301.305 4685119 4719752 4753852 4787956 4823334 4861028 4902713 4949495 
2305.162 5002350 5062586 5131078 5208366 5294121 5386870 5484270 5583369 
2309.020 5681652 5777942 5872239 5966019 6060491 6156597 6254102 6351460 
2312.877 6446891 6538877 6627452 6714093 6801592 6893182 6992133 7100031 
2316.734 7217119 7341989 7472592 7605595 7737896 7866493 7988985 8104051 
2320.592 8210875 8308944 8397711 8475786 8540730 8590103 8622142 8636812 
2324.449 8636507 8626300 8613490 8605075 8607610 8625084 8658883 8707290 
2328.307 8766385 8831541 8897620 8960056 9015431 9061170 9096391 9121667 
2332.164 9139398 9153881 9169752 9191817 9223563 9266278 9319085 9379685 
2336.021 9444933 9511919 9578643 9644260 9707989 9769661 9827985 9881674 
2339.879 9929133 9969442 10001855 10026132 10041866 10047087 10037933 
2343.254 10007381 9946558 9846288 9698774 9502267 9262960 8997467 8730007 
2347.112 8489673 8307121 8206080 8202940 8303676 8503053 8786569 9130803 
2350.969 9510801 9900793 10279769 10635239 10961708 11259823 11532045 
2354.344 11781150 12008223 12213092 12396442 12559507 12704415 12833501 
2357.719 12947571 13045589 13126211 13188302 13233013 13263758 13285110 
2361.095 13300620 13311758 13316609 13311655 13292762 13258839 13210571 
2364.470 13151928 13086769 13018103 12946035 12868893 12783575 12688004 
2367.845 12581813 12465726 12341521 12210365 12071892 11925084 11768452 
2371.220 11601668 11425558 11242651 11055778 10867115 10677618 10487253 
2374.596 10295885 10104229 9914386 9729268 9552494 9387438 9235950 9098759 
2378.453 8975717 8866169 8769360 8685012 8612781 8552118 8502242 8462745 
2382.311 8433319 8414603 8407678 8413387 8431899 8461427 8498458 8538364 
2386.168 8576517 8609097 8634682 8653745 8667672 8678455 8687683 8695458 
2390.025 8701779 8706140 8708507 8708980 8708371 8707053 8705160 8702523 
2393.883 8698838 8694274 8689846 8686973 8687007 8691198 8700089 8713611 
2397.740 8731698 8754923 8784101 8820483 8865120 8917946 8977950 9043442 
2401.598 9112192 9182882 9255277 9330256 9409582 9494680 9586739 9685762 
2405.455 9791587 9903233 10020469 10142587 10269591 10400807 10535761 
2408.830 10673645 10814595 10958616 11106321 11258021 11413584 11571619 
2412.206 11729848 11885307 12035441 12178299 12312444 12437390 12552209 
2415.581 12655561 12745801 12821386 12881556 12926987 12959997 12984099 
2418.956 13002501 13017933 13031453 13043267 13052623 13059076 13062662 
2422.331 13064198 13064846 13066076 13068807 13074579 13084959 13102101 
2425.707 13128704 13167262 13220102 13288048 13371142 13468537 13579389 
2429.082 13703573 13841405 13993756 14161050 14342348 14535713 14738419 
2432.457 14947152 15160344 15376969 15597687 15823912 16056892 16297666 
2435.832 16546974 16804552 17070866 17345824 17629998 17922990 18224576 
2439.208 18533566 18848586 19168720 19493422 19823048 20158582 20500698 
2442.583 20849966 21205846 21567870 21935110 22307124 22683472 23063920 
2445.958 23447744 23833588 24219494 24603326 24982688 25356164 25722860 
2449.333 26082864 26436266 26783858 27125838 27462898 27795098 28122568 
2452.708 28444414 28759382 29065296 29359728 29639884 29904354 30151762 
2456.084 30381790 30594268 30787860 30960934 31110192 31231870 31322424 
2459.459 31379052 31400420 31386246 31337418 31254944 31140768 30996554 
2462.834 30825136 30630358 30417042 30191222 29959164 29726698 29499428 
2466.209 29281918 29078794 28894358 28732690 28598012 28494016 28423366 
2469.585 28387426 28386436 28419510 28485418 28582476 28709220 28863796 
2472.960 29043758 29246404 29467868 29703780 29950148 30202232 30456242 
2476.335 30708338 30954708 31191960 31416982 31626836 31819280 31992198 
2479.710 32143488 32271382 32374110 32449796 32497928 32518674 32512926 
2483.086 32482930 32431014 32359832 32271664 32169678 32056652 31936024 
2486.461 31811900 31687494 31565294 31445730 31327554 31207234 31080506 
2489.836 30943570 30793692 30629468 30451124 30259602 30055878 29840256 
2493.211 29612890 29372526 29117840 28847650 28561138 28257982 27938926 
2496.587 27604780 27257658 26899500 26532690 26159116 25780096 25396034 
2499.962 25007256 24613600 24216272 23817102 23419488 23027198 22643606 
2503.337 22271548 21911864 21564248 21227522 20900514 20582960 20275876 
2506.712 19981050 19700952 19437178 19190536 18960336 18745202 18543004 
2510.088 18351476 18168948 17993748 17824416 17660260 17500650 17346066 
2513.463 17198048 17058458 16930212 16815608 16716322 16633309 16566044 
2516.838 16513862 16475488 16449573 16435258 16431060 16435327 16446270 
2520.213 16461894 16480993 16502814 16528215 16558332 16594959 16639093 
2523.589 16691254 16750759 16816298 16885600 16956086 17024998 17089682 
2526.964 17147136 17195188 17231902 17256036 17267518 17266380 17253208 
2530.339 17228352 17192292 17145276 17087992 17022240 16950124 16874750 
2533.714 16798800 16724518 16652623 16583152 16515411 16449057 16384296 
2537.090 16321816 16262751 16207889 16157607 16111355 16068444 16028149 
2540.465 15990676 15957091 15928149 15905155 15887490 15873810 15861405 
2543.840 15847383 15829548 15807005 15779585 15748972 15716642 15684728 
2547.215 15654292 15626367 15601362 15579072 15559016 15540574 15522545 
2550.591 15503934 15484327 15463484 15442541 15422663 15405119 15390838 
2553.966 15379612 15370481 15362071 15353627 15344393 15335022 15325720 
2557.341 15316487 15306705 15294452 15277600 15254023 15222760 15184121 
2560.716 15139483 15090732 15039551 14987244 14933846 14879392 14823916 
2564.092 14767898 14712506 14659073 14609073 14563398 14522180 14485283 
2567.467 14452499 14423520 14398688 14378412 14363342 14353923 14350328 
2570.842 14352588 14360431 14373377 14390673 14411531 14435132 14460960 
2574.217 14488469 14517829 14549555 14584539 14623261 14665687 14710895 
2577.593 14757718 14804752 14850899 14896022 14940361 14985015 15030701 
2580.968 15078245 15127989 15180004 15234839 15293113 15355755 15423624 
2584.343 15496997 15575329 15656903 15740108 15822778 15903987 15982976 
2587.718 16060535 16137181 16213702 16290648 16368400 16446855 16526768 
2591.094 16608557 16692804 16779652 16869064 16960014 17050842 17139932 
2594.469 17225628 17306858 17383000 17454324 17521350 17585312 17647458 
2597.844 17709266 17772154 17837398 17905864 17978138 18054052 18133500 
2601.219 18216352 18302400 18392058 18485642 18583256 18684734 18789868 
2604.594 18898004 19009038 19122944 19240166 19361648 19488154 19619930 
2607.970 19756916 19898556 20044060 20192598 20343720 20497120 20652100 
2611.345 20808148 20964004 21118632 21270634 21418930 21562576 21700836 
2614.720 21832764 21957484 22074150 22182234 22281870 22373820 22459438 
2618.095 22540220 22617110 22690594 22760246 22825162 22884744 22938954 
2621.471 22988488 23034814 23079818 23124966 23170888 23218142 23266136 
2624.846 23314626 23363258 23412108 23461208 23510908 23561314 23612530 
2628.221 23664800 23718442 23773842 23831454 23891558 23953876 24017918 
2631.596 24083092 24148522 24213854 24278742 24343008 24405778 24466592 
2634.972 24524120 24577448 24625768 24669850 24710744 24750484 24791106 
2638.347 24834608 24881938 24933346 24988970 25048532 25111720 25178286 
2641.722 25248058 25320652 25395262 25471112 25547432 25623942 25700924 
2645.097 25779360 25860342 25945032 26034206 26128148 26226970 26330356 
2648.473 26437638 26548294 26661444 26776280 26891604 27006712 27120828 
2651.848 27233916 27346364 27459120 27573214 27689740 27809548 27933026 
2655.223 28060674 28192604 28328890 28469320 28613336 28760020 28908770 
2658.598 29058354 29208306 29358594 29509678 29662270 29816654 29973152 
2661.974 30131516 30291184 30451302 30611298 30771036 30930334 31089618 
2665.349 31248998 31408612 31567824 31726704 31884424 32040886 32195762 
2668.724 32348904 32500140 32649894 32798804 32948054 33099212 33254142 
2672.099 33414248 33580388 33752392 33929448 34109624 34291624 34473924 
2675.475 34655864 34837412 35019008 35200712 35382956 35565496 35748292 
2678.850 35931380 36115196 36300492 36488464 36680408 36877632 37081444 
2682.225 37293004 37513156 37742848 37982468 38232496 38492548 38762216 
2685.600 39040604 39326712 39619944 39919696 40226052 40538920 40858672 
2688.976 41185580 41519848 41861264 42210108 42566032 42928868 43298264 
2692.351 43673912 44055604 44442992 44836164 45235316 45640764 46052632 
2695.726 46471048 46895920 47327088 47764228 48207136 48655656 49109160 
2699.101 49567560 50029868 50495936 50965044 51437048 51911728 52389060 
2702.477 52868712 53349608 53830096 54308416 54782148 55249476 55708680 
2705.852 56158496 56597220 57023808 57436144 57832364 58210684 58569812 
2709.227 58909044 59228452 59528484 59809788 60072632 60317088 60542944 
2712.602 60750436 60939688 61110904 61264524 61400448 61517744 61615372 
2715.978 61691480 61744764 61773716 61777652 61756336 61710272 61640728 
2719.353 61549628 61440104 61316416 61183452 61047404 60913684 60787824 
2722.728 60674108 60576048 60496096 60436456 60398640 60384440 60394760 
2726.103 60430324 60490688 60575172 60682648 60811984 60962296 61132988 
2729.479 61323092 61531988 61757520 61997736 62249896 62511384 62780192 
2732.854 63054688 63333756 63616848 63902700 64190000 64476648 64760672 
2736.229 65039808 65312108 65576032 65830664 66075496 66310772 66536792 
2739.604 66754936 66966736 67173952 67378912 67583528 67789616 67998896 
2742.979 68213160 68433768 68662568 68900848 69149784 69409752 69680800 
2746.355 69961912 70251736 70548248 70849040 71150848 71450016 71741696 
2749.730 72021168 72283520 72524184 72740304 72930272 73093848 73232232 
2753.105 73347400 73441128 73515256 73570992 73608712 73628456 73629008 
2756.480 73609336 73567064 73499912 73405456 73281776 73126704 72939048 
2759.856 72717736 72462440 72173336 71851696 71499744 71120632 70718736 
2763.231 70298512 69864016 69419624 68968456 68513568 68058344 67606880 
2766.606 67163624 66734344 66324012 65937324 65577992 65248148 64948788 
2769.981 64680488 64442896 64235828 64058460 63909948 63787936 63690432 
2773.357 63614204 63556552 63514480 63485600 63467076 63456452 63450164 
2776.732 63443988 63433176 63412888 63377888 63323908 63247284 63145144 
2780.107 63016036 62859184 62675564 62467576 62239188 61995824 61743120 
2783.482 61486940 61232360 60983456 60742588 60511028 60288576 60073692 
2786.858 59863712 59655200 59443368 59224048 58993068 58747796 58487232 
2790.233 58212316 57925608 57630500 57330680 57029480 56729880 56434112 
2793.608 56144768 55863944 55594560 55339308 55101320 54883200 54687548 
2796.983 54515956 54370108 54250932 54158928 54094184 54056244 54044272 
2800.359 54056544 54090956 54145416 54217296 54304024 54403496 54513208 
2803.734 54631520 54756892 54888124 55024172 55164064 55306604 55449708 
2807.109 55591660 55729400 55860212 55981152 56089416 56182288 56257036 
2810.484 56311012 56341716 56346996 56325608 56277176 56202428 56102916 
2813.860 55980624 55837488 55675496 55496732 55304192 55101808 54895384 
2817.235 54692172 54500252 54327864 54182908 54071140 53997332 53964276 
2820.610 53973732 54026260 54121392 54258068 54433616 54644560 54885868 
2823.985 55151728 55435292 55730264 56029176 56325532 56612924 56884788 
2827.361 57135924 57361720 57558844 57725748 57862460 57970512 58052084 
2830.736 58110376 58148900 58170944 58179848 58179204 58172232 58162420 
2834.111 58153444 58148672 58151776 58166208 58195004 58241184 58307384 
2837.486 58396296 58510776 58654792 58833572 59054140 59324920 59655692 
2840.862 60057484 60541152 61117692 61799388 62598064 63528092 64605928 
2844.237 65848516 67273792 68895448 70719096 72735792 74916888 77212368 
2847.612 79542368 81807008 83892152 85671584 87032784 87883984 88165360 
2850.987 87860296 86993552 85629648 83855616 81778128 79509704 77150832 
2854.363 74794696 72517880 70374248 68403208 66625512 65046540 63659744 
2857.738 62449636 61395716 60473740 59660444 58934772 58277296 57672576 
2861.113 57107696 56571516 56055560 55553176 55059116 54570912 54087580 
2864.488 53610964 53144796 52695252 52270088 51877860 51527620 51227952 
2867.864 50984828 50802808 50683008 50623992 50620864 50666324 50751152 
2871.239 50863524 50990944 51120928 51241040 51342240 51418436 51467484 
2874.614 51491468 51495052 51484720 51467040 51447268 51430000 51417952 
2877.989 51412876 51416456 51430000 51454764 51491696 51540904 51602060 
2881.365 51674416 51757052 51849484 51951684 52063660 52185448 52316432 
2884.740 52455680 52601516 52752076 52905988 53061932 53220072 53381004 
2888.115 53546340 53718228 53899152 54092120 54299964 54525984 54773616 
2891.490 55046628 55349772 55689284 56073092 56511204 57015080 57596336 
2894.865 58265548 59029432 59888700 60835808 61853636 62914988 63981012 
2898.241 65008096 65947892 66752656 67385720 67821840 68054152 68094272 
2901.616 67971688 67728968 67412728 67072628 66753192 66489184 66309264 
2904.991 66233000 66273644 66441296 66742300 67182072 67765336 68496768 
2908.366 69381688 70426344 71637384 73020536 74579488 76312480 78210208 
2911.742 80252880 82411616 84644472 86898704 89116576 91231512 93176616 
2915.117 94892288 96325840 97441104 98221536 98670048 98807352 98665640 
2918.492 98285384 97704464 96954496 96058888 95029512 93870560 92581360 
2921.867 91160960 89611984 87945000 86178192 84339424 82463896 80587936 
2925.243 78749520 76982504 75311976 73756840 72326536 71022760 69841136 
2928.618 68772640 67805808 66926836 66122560 65381088 64691752 64047092 
2931.993 63442184 62874088 62342068 61845576 61384304 60957492 60563476 
2935.368 60200268 59865268 59555428 59266920 58995572 58735996 58483064 
2938.744 58232508 57981724 57730964 57483120 57243760 57019388 56816768 
2942.119 56641236 56495696 56380124 56291172 56222340 56164452 56105140 
2945.494 56031848 55931816 55794764 55615464 55395164 55142248 54870828 
2948.869 54599696 54348744 54134300 53969040 53858864 53803204 53796080 
2952.245 53828036 53888124 53964728 54047240 54126760 54195524 54247740 
2955.620 54279168 54286788 54269104 54226120 54159488 54071628 53966568 
2958.995 53849412 53724980 53598328 53473596 53353764 53241124 53136932 
2962.370 53042240 52958160 52885816 52826164 52779392 52745268 52722672 
2965.746 52710028 52705952 52709392 52720504 52739920 52768616 52807344 
2969.121 52856212 52914784 52982340 53058416 53143336 53238272 53344736 
2972.496 53464264 53597544 53743804 53900424 54062884 54225292 54379800 
2975.871 54517528 54629304 54705024 54736220 54716148 54640952 54510804 
2979.247 54329740 54105744 53848700 53570256 53282436 52995560 52718668 
2982.622 52458596 52219452 52002212 51804984 51623064 51448944 51273668 
2985.997 51088356 50885168 50658876 50407776 50133272 49838768 49528452 
2989.372 49205484 48870188 48520584 48151828 47758604 47336840 46885552 
2992.748 46407776 45910780 45404868 44900644 44407284 43930536 43471748 
2996.123 43028292 42594796 42165268 41734528 41299076 40858452 40413912 
2999.498 39968228 39524708 39086392 38655864 38234776 37824540 37425276 
3002.873 37037348 36660184 36293432 35936272 35588548 35250228 34921864 
3006.249 34604156 34298080 34004368 33723316 33454828 33198274 32952520 
3009.624 32716378 32488358 32267098 32051482 31840424 31633284 31429450 
3012.999 31229022 31031998 30838656 30649238 30463704 30282340 30105344 
3016.374 29933144 29766370 29605900 29452372 29305916 29166242 29032564 
3019.750 28903530 28778182 28655806 28536332 28420288 28308518 28201940 
3023.125 28101326 28007376 27920410 27841518 27771856 27713472 27668480 
3026.500 27638536 27624660 27626178 27640618 27663326 27688258 27707962 
3029.875 27714638 27701852 27664348 27599448 27507126 27390016 27252260 
3033.250 27098822 26934718 26764228 26590352 26415490 26241084 26068754 
3036.626 25899660 25735128 25576248 25423752 25277664 25137770 25003676 
3040.001 24875062 24751676 24633868 24521562 24415170 24314308 24218548 
3043.376 24126910 24038614 23952896 23869258 23787770 23708960 23633450 
3046.751 23562502 23497022 23438128 23386092 23340776 23301166 23265682 
3050.127 23232264 23199304 23165190 23129474 23092152 23053578 23014340 
3053.502 22974760 22934972 22894872 22854812 22815420 22777880 22743660 
3056.877 22714090 22689896 22671324 22657882 22648806 22643640 22641860 
3060.252 22643710 22649714 22659978 22674604 22693176 22715346 22740974 
3063.628 22770130 22803336 22841506 22884778 22933084 22985414 23039986 
3067.003 23094634 23147298 23195982 23239046 23275296 23303648 23323120 
3070.378 23333330 23334344 23326966 23312878 23294452 23274386 23255020 
3073.753 23238278 23225168 23216080 23210488 23207658 23206748 23206712 
3077.129 23206958 23206784 23205488 23202694 23197870 23190706 23181302 
3080.504 23169980 23157432 23144292 23131536 23119864 23109660 23101028 
3083.879 23093760 23087330 23081460 23076498 23073004 23072586 23077022 
3087.254 23087644 23105502 23130138 23160544 23194374 23229642 23264424 
3090.630 23298160 23330568 23362700 23395708 23430154 23466208 23503562 
3094.005 23541480 23579364 23617286 23655948 23696468 23740700 23789872 
3097.380 23844718 23905106 23970018 24037774 24106418 24174478 24240970 
3100.755 24305792 24369328 24432696 24496810 24562440 24629696 24698046 
3104.131 24766656 24834642 24901132 24965666 25028244 25089146 25148688 
3107.506 25207394 25265828 25324412 25383738 25444374 25506846 25571646 
3110.881 25638844 25708692 25781046 25855768 25933178 26013202 26095778 
3114.256 26180232 26265514 26350070 26431758 26509058 26581370 26648760 
3117.632 26712462 26774024 26835348 26897138 26960208 27023918 27087818 
3121.007 27151198 27214020 27276676 27339586 27403286 27468194 27533886 
3124.382 27600048 27666256 27732262 27798736 27865894 27934756 28005786 
3127.757 28079162 28154244 28230296 28306326 28381554 28455240 28527168 
3131.133 28597800 28667522 28737186 28807602 28879378 28953112 29029268 
3134.508 29107846 29189064 29272598 29358062 29445068 29532696 29620232 
3137.883 29706830 29791954 29875072 29956466 30036490 30115856 30195414 
3141.258 30275802 30357130 30439716 30523348 30608242 30694362 30782204 
3144.634 30871882 30963816 31057764 31153228 31249852 31346962 31444200 
3148.009 31541672 31639524 31738284 31838108 31939126 32040850 32142882 
3151.384 32244328 32344766 32444082 32542102 32639250 32735992 32833002 
3154.759 32930788 33029598 33129536 33230498 33332132 33434178 33536538 
3158.135 33639352 33742868 33847556 33953668 34060916 34168692 34276172 
3161.510 34381992 34485724 34587328 34687660 34788200 34890408 34995448 
3164.885 35104068 35216088 35330480 35446192 35561648 35675444 35786536 
3168.260 35893912 35997140 36096256 36191824 36285000 36377048 36469108 
3171.635 36562092 36655928 36750072 36843044 36933908 37021508 37105404 
3175.011 37185568 37262276 37336256 37407832 37477900 37547112 37616660 
3178.386 37688024 37761896 37838712 37918032 37998816 38079756 38159812 
3181.761 38238572 38316736 38395312 38475388 38557032 38639600 38721460 
3185.136 38801160 38877324 38949840 39019760 39088996 39159340 39232480 
3188.512 39308900 39389000 39472272 39558024 39646044 39735612 39826500 
3191.887 39917992 40009392 40100156 40189632 40278000 40365368 40451772 
3195.262 40537352 40621280 40703076 40782452 40859288 40934576 41009184 
3198.637 41084024 41158952 41233560 41306436 41376552 41443804 41509200 
3202.013 41574900 41643312 41716544 41795084 41878124 41963220 42047900 
3205.388 42130108 42208208 42282236 42352436 42419800 42485124 42549180 
3208.763 42612740 42676852 42742256 42809824 42879380 42950592 43021816 
3212.138 43091884 43159288 43223916 43286584 43348672 43411724 43476908 
3215.514 43544556 43614300 43685488 43757532 43830172 43903188 43976696 
3218.889 44050212 44122792 44194024 44263324 44330840 44397736 44465348 
3222.264 44535024 44607716 44683400 44761632 44841344 44921664 45002104 
3225.639 45082376 45162224 45241532 45319604 45396000 45470092 45541660 
3229.015 45611172 45678968 45745676 45811316 45876164 45939876 46002900 
3232.390 46065600 46128788 46193088 46258916 46325924 46393356 46460240 
3235.765 46525920 46590320 46654364 46719036 46785680 46855064 46927188 
3239.140 47001948 47079264 47159184 47241852 47327232 47414920 47503256 
3242.516 47590280 47673656 47752056 47825108 47894212 47961332 48028980 
3245.891 48098748 48171264 48246240 48322852 48400372 48478644 48558116 
3249.266 48639272 48722336 48807080 48892732 48978472 49063788 49148788 
3252.641 49234208 49320464 49408296 49497076 49585984 49673868 49759952 
3256.017 49843708 49925400 50005736 50085080 50163732 50241320 50317432 
3259.392 50391924 50464936 50536992 50608952 50681292 50754240 50827464 
3262.767 50900368 50972420 51043336 51112916 51181132 51247940 51313416 
3266.142 51377968 51441896 51506580 51573512 51644412 51720172 51801360 
3269.518 51887120 51975472 52064180 52151112 52234848 52315124 52392312 
3272.893 52467344 52541492 52615652 52690612 52766632 52844164 52922980 
3276.268 53003044 53084248 53166704 53250860 53337428 53427616 53522804 
3279.643 53624124 53732064 53846036 53964952 54086900 54209900 54333084 
3283.019 54455740 54578768 54703520 54831504 54964004 55101844 55245528 
3286.394 55394712 55548996 55707892 55870992 56038260 56209400 56384760 
3289.769 56564456 56748648 56937332 57130524 57328032 57529300 57734484 
3293.144 57943632 58157460 58376508 58601964 58834556 59074752 59322832 
3296.520 59578840 59842796 60114828 60394680 60682264 60976480 61276424 
3299.895 61580780 61888824 62200300 62515632 62836132 63163044 63497372 
3303.270 63839668 64190500 64549528 64917124 65294200 65680856 66077612 
3306.645 66483812 66897964 67317968 67742016 68169272 68599928 69035496 
3310.021 69477672 69927808 70385976 70851648 71323560 71800944 72283872 
3313.396 72773608 73271456 73778240 74293800 74816864 75345000 75876432 
3316.771 76410640 76948176 77490720 78039848 78596312 79159128 79726336 
3320.146 80295128 80863552 81430712 81996736 82562184 83127880 83694152 
3323.521 84261008 84828040 85394880 85961496 86527560 87091688 87651928 
3326.897 88205016 88748040 89278560 89795584 90299928 90792600 91274440 
3330.272 91744976 92202216 92642960 93064368 93464520 93843008 94199800 
3333.647 94535008 94847520 95134968 95394088 95621976 95817680 95981928 
3337.022 96117504 96227368 96314016 96377672 96416720 96428144 96409192 
3340.398 96357400 96271200 96150456 95994856 95804288 95578616 95317864 
3343.773 95022456 94692680 94328608 93929872 93494976 93021840 92508784 
3347.148 91955472 91363864 90738216 90083496 89405424 88708336 87994504 
3350.523 87264712 86518952 85757112 84979968 84188920 83386232 82574168 
3353.899 81754808 80930568 80103832 79277704 78455960 77642592 76841336 
3357.274 76054432 75283600 74529208 73791160 73069656 72365048 71678136 
3360.649 71009184 70358312 69724528 69106576 68503280 67913376 67336768 
3364.024 66773908 66225512 65692380 65175340 64675136 64192460 63727960 
3367.400 63282124 62854864 62445040 62050324 61668224 61295504 60930192 
3370.775 60570864 60217580 59870788 59530956 59197880 58870564 58546984 
3374.150 58224856 57901984 57576776 57247696 56913420 56572536 56223920 
3377.525 55866128 55499256 55123664 54740164 54350172 53954820 53553840 
3380.901 53146668 52731988 52308508 51875172 51432160 50979836 50519424 
3384.276 50052136 49579296 49102556 48623932 48145572 47669772 47198780 
3387.651 46733796 46275096 45822696 45375072 44931620 44491668 44054908 
3391.026 43622032 43193760 42770516 42353020 41941324 41535596 41135784 
3394.402 40742016 40353696 39970624 39591816 39216088 38843264 38473216 
3397.777 38106632 37744656 37387968 37036840 36690576 36347684 36006324 
3401.152 35665052 35323648 34982732 34643736 34308732 33978928 33654816 
3404.527 33335816 33020660 32707662 32395850 32084726 31774432 31465788 
3407.903 31159494 30856370 30556408 30259708 29966124 29675396 29388126 
3411.278 29104800 28826298 28553318 28286272 28025154 27769066 27517118 
3414.653 27268208 27021698 26777830 26537410 26301698 26072202 25849686 
3418.028 25634452 25425368 25220844 25018944 24817908 24617036 24416082 
3421.404 24216236 24018690 23824872 23635830 23452256 23274178 23101064 
3424.779 22932142 22766672 22603674 22442096 22281382 22120658 21959852 
3428.154 21798308 21635950 21472436 21307800 21142216 20975862 20809850 
3431.529 20645394 20484162 20328060 20178088 20034934 19898070 19766486 
3434.905 19638476 19512136 19385970 19258904 19130630 19001494 18871944 
3438.280 18742918 18615144 18489098 18364680 18241302 18117748 17992988 
3441.655 17866400 17737602 17607362 17476712 17346996 17219146 17092920 
3445.030 16967318 16840924 16712673 16582118 16450400 16319752 16192721 
3448.406 16071400 15956851 15848517 15744986 15644159 15544180 15443777 
3451.781 15342333 15239746 15135846 15030187 14922050 14811025 14697013 
3455.156 14580427 14462330 14344232 14227329 14112581 14000565 13891555 
3458.531 13785788 13683294 13584039 13487438 13392430 13297682 13201452 
3461.906 13102785 13001613 12899133 12797259 12698104 12603234 12513160 
3465.282 12427127 12343498 12260226 12176288 12090595 12002773 11913232 
3468.657 11822041 11729677 11636449 11542968 11450187 11359298 11271589 
3472.032 11187230 11105981 11026140 10946043 10863684 10778113 10689266 
3475.407 10598637 10507823 10419064 10334193 10254358 10179898 10110639 
3478.783 10045630 9983749 9923200 9862490 9800296 9736080 9669737 9602524 
3482.640 9536067 9471957 9411343 9354530 9300534 9248135 9195777 9142308 
3486.498 9087357 9031364 8974770 8918183 8862111 8806417 8750934 8695695 
3490.355 8641374 8588616 8538331 8491497 8448352 8408589 8371937 8337755 
3494.212 8305769 8276252 8250113 8227792 8210200 8197504 8189265 8184910 
3498.070 8183424 8184437 8187442 8192709 8200881 8212328 8227725 8246838 
3501.927 8268653 8292192 8316104 8339578 8362986 8387713 8416291 8451291 
3505.785 8494978 8547692 8608961 8676122 8745897 8815479 8883111 8948623 
3509.642 9013603 9080082 9150395 9225559 9305781 9390317 9478120 9568617 
3513.500 9661268 9756716 9855033 9956355 10059533 10162734 10263586 10360049 
3517.357 10450765 10534879 10612422 10683900 10749582 10809296 10862800 
3520.732 10908904 10946484 10973670 10988859 10990423 10977237 10948863 
3524.107 10905609 10848328 10778555 10696805 10603560 10498386 10380376 
3527.483 10248998 10104330 9947643 9781454 9608216 9430711 9250809 9070169 
3531.340 8889774 8710569 8533398 8359338 8188185 8019664 7852727 7685787 
3535.198 7517900 7349335 7180904 7014458 6851778 6693937 6540929 6392011 
3539.055 6246370 6104038 5966053 5834491 5711799 5599446 5497490 5404013 
3542.912 5315587 5228286 5137482 5040327 4934582 4819783 4696842 4567773 
3546.770 4435932 4305469 4180900 4066099 3963199 3872124 3790560 3713925 
3550.627 3636835 3554614 3464627 3366644 3263442 3159129 3058079 2963490 
3554.485 2877327 2799285 2728660 2664146 2604508 2548512 2495489 2444138 
3558.342 2393326 2341521 2287591 2230903 2172057 2112387 2054656 2002159 
3562.199 1958056 1924940 1904073 1894489 1892825 1892625 1886036 1863774 
3566.057 1817954 1743928 1641976 1518268 1382130 1245071 1116327 1001902 
3569.914 904108 822071 753325 694647 643210 596291 552132 509071 465617 
3574.254 420343 372984 323541 273375 224375 178562 137693 102528 72503 46489 
3579.076 22465 -1557 -27169 -54402 -82628 -109891 -133774 -151462 -160471 
3583.415 -159279 -148083 -128839 -105850 -85742 -75804 -83357 -113535 
3587.273 -167294 -240817 -325784 -412488 -491397 -556361 -604904 -638454 
3591.130 -660819 -676500 -690659 -706571 -726419 -751128 -780168 -812845 
3594.988 -848032 -884341 -920878 -955990 -988554 -1017314 -1042172 -1063690 
3598.845 -1083621 -1104707 -1129064 -1158211 -1191653 -1227371 -1261500 
3602.220 -1290011 -1309237 -1316934 -1312343 -1296618 -1272304 -1242966 
3605.595 -1212767 -1186993 -1170273 -1166869 -1179724 -1209000 -1252580 
3608.971 -1304646 -1359315 -1410311 -1453904 -1488940 -1517634 -1542793 
3612.346 -1568017 -1594956 -1622950 -1648895 -1667875 -1675532 -1668964 
3615.721 -1648400 -1616975 -1580629 -1547746 -1526846 -1525195 -1547151 
3619.096 -1592414 -1656124 -1729924 -1804700 -1872635 -1928156 -1969026 
3622.472 -1994786 -2005933 -2002174 -1982681 -1945276 -1888834 -1813148 
3625.847 -1721838 -1622653 -1528761 -1457503 -1426857 -1450568 -1530742 
3629.222 -1654837 -1798299 -1935315 -2047653 -2127881 -2178820 -2209018 
3632.597 -2229456 -2248674 -2272407 -2301478 -2333282 -2363733 -2388612 
3635.973 -2406670 -2418202 -2425715 -2431119 -2436127 -2441168 -2445550 
3639.348 -2449043 -2451909 -2455533 -2461661 -2471018 -2482351 -2491807 
3642.723 -2494047 -2482450 -2452140 -2400541 -2328569 -2240137 -2141993 
3646.098 -2042211 -1950125 -1873988 -1822221 -1801401 -1815655 -1866136 
3649.474 -1949499 -2057975 -2179414 -2299731 -2405846 -2487326 -2538915 
3652.849 -2560029 -2554627 -2530054 -2495628 -2462617 -2441728 -2440180 
3656.224 -2460607 -2498923 -2546755 -2593264 -2630975 -2655938 -2669473 
3659.599 -2675763 -2680373 -2688210 -2700592 -2715738 -2728942 -2734770 
3662.975 -2728547 -2708165 -2672931 -2623532 -2559930 -2480605 -2383439 
3666.350 -2266771 -2131146 -1980735 -1822254 -1662924 -1506573 -1348216 
3669.725 -1173412 -957180 -675111 -304825 168022 749409 1440004 2233100 
3673.583 3110003 4022220 4883780 5577697 5974854 5989433 5612402 4906701 
3677.440 3973765 2918055 1835423 799564 -130959 -913075 -1528200 -1979185 
3681.297 -2289876 -2493421 -2624388 -2710108 -2765522 -2796338 -2802362 
3684.673 -2783267 -2741289 -2683172 -2617900 -2556637 -2508608 -2480078 
3688.048 -2473588 -2487919 -2519347 -2563060 -2615562 -2673754 -2735527 
3691.423 -2798708 -2860134 -2916221 -2963941 -3000929 -3026331 -3040809 
3694.798 -3046468 -3046172 -3041894 -3035775 -3027713 -3017184 -3002508 
3698.174 -2982764 -2958313 -2931492 -2906939 -2889758 -2884722 -2894333 
3701.549 -2917570 -2950086 -2985397 -3017842 -3042322 -3056799 -3061175 
3704.924 -3055977 -3041993 -3019487 -2988128 -2947585 -2898546 -2842853 
3708.299 -2783696 -2725748 -2674676 -2635981 -2615496 -2617768 -2645795 
3711.675 -2698846 -2772205 -2857764 -2944360 -3021955 -3082725 -3122762 
3715.050 -3142203 -3144769 -3135559 -3119538 -3100392 -3080093 -3057687 
3718.425 -3031464 -2999382 -2961111 -2918031 -2873202 -2830179 -2792222 
3721.800 -2761308 -2737404 -2719525 -2706058 -2696278 -2690318 -2689857 
3725.176 -2696838 -2712446 -2736054 -2763942 -2790016 -2807037 -2808419 
3728.551 -2790115 -2751727 -2696838 -2632424 -2566452 -2507225 -2460376 
3731.926 -2427198 -2405220 -2389568 -2376716 -2366929 -2365578 -2380111 
3735.301 -2418466 -2482615 -2568034 -2663183 -2755250 -2833010 -2890252 
3738.677 -2925502 -2939687 -2934190 -2909507 -2865631 -2803448 -2726571 
3742.052 -2644115 -2570603 -2523729 -2521060 -2570043 -2661405 -2768353 
3745.427 -2859081 -2911514 -2917372 -2882484 -2820106 -2746591 -2676619 
3748.802 -2622610 -2592638 -2589575 -2612367 -2657683 -2721698 -2799234 
3752.177 -2883570 -2966475 -3038045 -3090423 -3119538 -3125887 -3113814 
3755.553 -3089963 -3061701 -3035149 -3014387 -3001488 -2997210 -3001653 
3758.928 -3014650 -3035873 -3063182 -3092628 -3118814 -3136118 -3140592 
3762.303 -3132203 -3114110 -3092331 -3073513 -3063116 -3063083 -3071210 
3765.678 -3081475 -3087429 -3084107 -3070289 -3049001 -3025706 -3007608 
3769.054 -3000764 -3008003 -3028799 -3059333 -3094239 -3128256 -3158124 
3772.429 -3182235 -3201082 -3215257 -3225848 -3232425 -3233971 -3228775 
3775.804 -3215323 -3193221 -3164736 -3133979 -3106379 -3088318 -3084370 
3779.179 -3096016 -3120755 -3152664 -3184833 -3210949 -3227722 -3234859 
3782.555 -3234859 -3230880 -3226111 -3222559 -3220816 -3220355 -3220618 
3785.930 -3221441 -3223842 -3228939 -3237589 -3249593 -3264260 -3279157 
3789.305 -3292245 -3301551 -3305925 -3304741 -3298164 -3285570 -3266694 
3792.680 -3241437 -3210127 -3174308 -3136447 -3100293 -3069236 -3045448 
3796.056 -3028569 -3015539 -3001488 -2980987 -2950843 -2911152 -2865994 
3799.431 -2823859 -2794790 -2789490 -2813950 -2866388 -2935375 -3003890 
3802.806 -3055878 -3080751 -3076342 -3048310 -3007806 -2968383 -2942879 
3806.181 -2941497 -2966935 -3013893 -3070025 -3122762 -3162236 -3184439 
3809.557 -3190589 -3184176 -3168617 -3145625 -3114176 -3072032 -3016822 
3812.932 -2949099 -2872939 -2796338 -2730819 -2687782 -2674314 -2689066 
3816.307 -2721139 -2754064 -2770526 -2761209 -2724727 -2668913 -2607723 
3819.682 -2558876 -2539936 -2561907 -2624915 -2716660 -2817538 -2907696 
3823.058 -2974241 -3013827 -3030444 -3032682 -3029391 -3027878 -3031629 
3826.433 -3039163 -3045744 -3045020 -3032089 -3004680 -2964401 -2915760 
3829.808 -2864743 -2817012 -2776848 -2745504 -2722093 -2703061 -2684390 
3833.183 -2662360 -2635256 -2603244 -2568462 -2534435 -2505874 -2486601 
3836.559 -2480540 -2489402 -2512858 -2548237 -2591452 -2637627 -2682810 
3839.934 -2724234 -2761374 -2794428 -2824517 -2853321 -2882451 -2912929 
3843.309 -2945610 -2979737 -3014025 -3046073 -3073052 -3091871 -3100096 
3846.684 -3095819 -3077888 -3045152 -2996289 -2930373 -2846276 -2744088 
3850.060 -2626035 -2498132 -2370785 -2259025 -2182381 -2159402 -2201897 
3853.435 -2305729 -2451085 -2607887 -2748862 -2858686 -2934223 -2979375 
3856.810 -3001126 -3005799 -2998263 -2980987 -2955483 -2923330 -2886203 
3860.185 -2846342 -2806049 -2767431 -2731873 -2700855 -2676586 -2661767 
3863.561 -2659791 -2672568 -2699044 -2733486 -2766246 -2786461 -2785276 
3866.936 -2760090 -2714915 -2660022 -2610028 -2580847 -2582032 -2615298 
3870.311 -2670592 -2732498 -2785342 -2820402 -2837323 -2842754 -2846276 
3873.686 -2856316 -2877415 -2908223 -2942319 -2970226 -2984113 -2979177 
3877.062 -2955154 -2915398 -2866191 -2816189 -2773555 -2745636 -2736449 
3880.437 -2745405 -2767069 -2792387 -2812534 -2820402 -2814082 -2796239 
3883.812 -2774181 -2758312 -2757653 -2777275 -2814905 -2861714 -2904010 
3887.187 -2930340 -2934124 -2915661 -2880707 -2838376 -2799794 -2774082 
3890.563 -2767596 -2781490 -2811942 -2851938 -2892885 -2927509 -2950218 
3893.938 -2957425 -2947815 -2921322 -2879259 -2824781 -2762230 -2697200 
3897.313 -2635092 -2580912 -2538157 -2507817 -2488941 -2479354 -2475861 
3900.688 -2476421 -2480638 -2489566 -2504622 -2528308 -2561512 -2603803 
3904.063 -2652809 -2704609 -2754887 -2800255 -2838211 -2868133 -2890482 
3907.439 -2906577 -2917636 -2924679 -2928332 -2929089 -2926818 -2921947 
3910.814 -2914180 -2903516 -2889594 -2871787 -2849897 -2823563 -2793868 
3914.189 -2762756 -2732827 -2707177 -2688408 -2677804 -2675598 -2680439 
3917.564 -2690318 -2703292 -2718010 -2733321 -2748401 -2761736 -2771086 
3920.940 -2774543 -2770461 -2759036 -2742376 -2724793 -2711260 -2705992 
3924.315 -2711622 -2727296 -2749949 -2774115 -2794955 -2808387 -2812403 
3927.690 -2806839 -2792650 -2771843 -2746755 -2719788 -2694269 -2673490 
3931.065 -2661141 -2659758 -2670494 -2692228 -2721336 -2753537 -2783959 
3934.441 -2808880 -2826888 -2838211 -2844038 -2846178 -2846046 -2844170 
3937.816 -2840680 -2834623 -2825406 -2813259 -2798675 -2782708 -2767497 
3941.191 -2754920 -2747018 -2744746 -2748698 -2757752 -2769835 -2782214 
3944.566 -2792288 -2797786 -2798543 -2794955 -2789193 -2783498 -2780140 
3947.942 -2780403 -2784321 -2790774 -2798411 -2805917 -2812238 -2817077 
3951.317 -2819941 -2820830 -2819546 -2815596 -2808946 -2799992 -2789292 
3954.692 -2778197 -2767530 -2758114 -2750212 -2743199 -2736713 -2730325 
3958.067 -2724069 -2718241 -2713532 -2710272 -2709054 -2709811 -2712478 
3961.443 -2717055 -2723246 -2730687 -2738820 -2746294 -2751529 -2752978 
3964.818 -2749422 -2740466 -2726637 -2709647 -2691668 -2674577 -2659956 
3968.193 -2648429 -2639900 -2633544 -2628472 -2624092 -2619876 -2615957 
3971.568 -2612400 -2609831 -2608382 -2608349 -2609831 -2612301 -2614936 
3974.944 -2616484 -2615693 -2612004 -2605055 -2595569 -2584733 -2574391 
3978.319 -2565827 -2559930 -2556406 -2554726 -2553639 -2552091 -2549093 
3981.694 -2544416 -2538025 -2530383 -2521884 -2513681 -2507060 -2503205 
3985.069 -2503436 -2508707 -2518952 -2532985 -2548995 -2564641 -2577783 
3988.445 -2587138 -2592342 -2594186 -2593659 -2592012 -2589509 -2586512 
3991.820 -2582263 -2576795 -2570109 -2563224 -2557098 -2553013 -2551893 
3995.195 -2553376 -2557131 -2562170 -2567737 -2573106 -2578047 -2582922 
3998.570 -2587500 -2592276 -2596821 -2600971 -2604594 
##END=
