
##TITLE=Z357a_1_e
##JCAMP-DX=5.01  $$ Nicolet v. 1
##DATATYPE=INFRARED SPECTRUM
##ORIGIN=UniL
##OWNER=Nicolet
##LONGDATE=2011/09/22
##TIME=09:06:05
##SPECTROMETER/DATA SYSTEM=Nicolet iS5
##DATA PROCESSING=
Ratio against background
%Transmittance->Absorbance
Truncated
ElementMultiply or ElementDivide
##COMMENTS=
Number of sample scans: 32
Collection length: 51.22 sec
Sample gain: 2.0
Background collected on: Jeu Sep 22 08:56:13 2011 (GMT+02:00);
Number of background scans: 32
Background gain: 2.0
Sample spacing:  1.000
Number of scan points: 12415
Resolution points: 8192
Number of FFT points: 65536
Apodization: N-B fort;
Phase correction: Mertz;
Laser frequency: 15798.0 cm-1
Number of rejected sample scans: 0
Number of rejected background scans: 0
Bench serial number: ASB1000141;
##RESOLUTION=4.000
##XUNITS=1/CM
##YUNITS=ABSORBANCE
##FIRSTX=649.893372
##LASTX=4000.122314
##FIRSTY=0.102964
##MAXX=4000.122314
##MINX=649.893372
##MAXY=0.314787
##MINY=-0.003836
##XFACTOR=1.000000
##YFACTOR=1.000000E-009
##NPOINTS=6950
##DELTAX=0.482117
##ZPD=6100
##XYDATA=(X++(Y..Y))
649.893 102963928 102458688 102000160 101637072 101394752 101272528 
652.786 101254960 101324456 101475440 101713920 102051416 102490192 
655.679 103017736 103609136 104239760 104899480 105603344 106386056 
658.571 107289960 108343456 109555072 110912200 112396064 113997776 
661.464 115728152 117613256 119683136 121953312 124419416 127063480 
664.357 129869224 132834568 135956096 139206432 142480992 145533648 
667.250 148001472 149492288 149771472 148893712 147152912 144909232 
670.142 142427024 139849360 137216112 134517280 131747696 128934432 
673.035 126132976 123418248 120852400 118465816 116260264 114217248 
675.928 112314568 110538256 108885056 107356992 105952464 104661488 
678.820 103463888 102335832 101257520 100215336 99203136 98218616 97257400 
682.195 96311568 95371600 94430064 93487656 92553560 91644712 90778680 
685.570 89967072 89213488 88512520 87855104 87231648 86637168 86070432 
688.945 85531720 85018168 84521488 84026256 83515448 82972632 82387424 
692.320 81757848 81089888 80396072 79691344 78994240 78325112 77704088 
695.694 77152096 76687208 76320736 76056408 75889336 75807304 75795152 
699.069 75839184 75931168 76068448 76253200 76487888 76772056 77100016 
702.444 77461968 77845176 78240272 78640864 79044560 79450576 79856504 
705.819 80256864 80644512 81013496 81362456 81697376 82030960 82379136 
709.194 82757896 83183248 83671944 84244272 84930120 85763376 86775360 
712.569 87982248 89369072 90880744 92417736 93859376 95079040 95972336 
715.943 96486272 96622920 96441008 96035368 95530272 95060440 94749632 
719.318 94718680 95066176 95855144 97101528 98751360 100675488 102657912 
722.693 104436352 105746232 106356896 106145816 105118024 103415152 
725.586 101269808 98961832 96761808 94858648 93356920 92272408 91557736 
728.961 91132880 90914888 90841200 90866736 90963016 91110360 91289400 
732.335 91481688 91673728 91858400 92038528 92221840 92416872 92626064 
735.710 92844992 93063960 93274680 93474832 93670144 93872088 94092176 
739.085 94336920 94604344 94885776 95169664 95448368 95719112 95985272 
742.460 96252216 96523392 96798856 97075384 97349880 97622152 97895584 
745.835 98174888 98462712 98755016 99040864 99305904 99536688 99725736 
749.209 99874552 99991200 100086480 100168016 100239000 100298976 100346736 
752.584 100385560 100423016 100470240 100536472 100625776 100734440 
755.477 100853000 100971344 101083608 101191136 101301696 101425848 
758.370 101572896 101747168 101948288 102173104 102418248 102682384 
761.262 102965024 103265464 103581128 103907416 104240520 104581680 
764.155 104941968 105343928 105825488 106436856 107230960 108261264 
767.048 109562072 111133448 112922376 114814040 116641640 118194088 
769.940 119277448 119761184 119623432 118974184 118037048 117105224 
772.833 116433256 116180160 116348264 116786472 117221432 117338112 
775.726 116892144 115754192 113954400 111646064 109060768 106426280 
778.619 103902824 101574400 99441320 97451888 95532824 93623032 91689568 
781.993 89727792 87756824 85808912 83922296 82132024 80469720 78962328 
785.368 77628960 76482240 75527872 74764792 74188728 73794616 73579896 
788.743 73545120 73694960 74035728 74575240 75322624 76288384 77488184 
792.118 78942728 80676464 82715800 85081080 87779136 90795016 94089336 
795.493 97594936 101216144 104845824 108367008 111669592 114676776 117356648 
798.867 119745208 121943168 124118368 126470192 129174056 132346032 
801.760 135975680 139902464 143783904 147144832 149467056 150247952 
804.653 149164656 146147504 141416288 135424432 128760128 122031672 
807.546 115689968 109989256 104959136 100450616 96214672 91999048 87643824 
810.920 83104168 78457032 73847360 69448896 65405436 61799312 58659116 
814.295 55964492 53670464 51722264 50070060 48672184 47491540 46496896 
817.670 45660676 44959144 44376048 43901096 43528768 43255948 43078564 
821.045 42991344 42989256 43069196 43232048 43482620 43828340 44276424 
824.420 44831720 45495000 46263448 47130044 48082052 49099812 50156220 
827.794 51214496 52235408 53184528 54040932 54808952 55523540 56254204 
831.169 57091708 58145264 59528028 61330112 63606836 66349492 69471064 
834.544 72780776 75986576 78743688 80662944 81405776 80765840 78702136 
837.919 75371488 71078448 66238404 61266356 56510564 52234700 48576128 
841.294 45571316 43182196 41330012 39920276 38859640 38072884 37496032 
844.669 37078264 36783388 36584548 36465292 36417328 36435308 36512932 
848.043 36640748 36805100 36991992 37191956 37402088 37627248 37877104 
851.418 38162560 38490340 38862504 39276732 39729764 40219980 40749512 
854.793 41323344 41948108 42630904 43378072 44198244 45103332 46109072 
858.168 47237124 48512692 49962204 51615788 53507400 55673388 58154768 
861.543 60986088 64181588 67715560 71505096 75401128 79177456 82571440 
864.917 85310992 87150000 87933200 87612528 86266208 84075232 81307112 
868.292 78273248 75259648 72523480 70255352 68564584 67500536 67056776 
871.667 67189072 67824392 68870248 70222280 71751816 73318128 74775448 
875.042 75972328 76785232 77131432 76981752 76367384 75372592 74121040 
878.417 72742296 71360112 70070448 68924144 67930616 67059828 66259748 
881.792 65467604 64631612 63725352 62752248 61745260 60754320 59837776 
885.166 59043588 58401524 57922920 57603376 57431112 57394812 57490188 
888.541 57719728 58089884 58605644 59266884 60066808 60994896 62039548 
891.916 63192248 64450196 65814240 67287712 68872856 70569224 72371424 
895.291 74268360 76237240 78239520 80217560 82084472 83734536 85054848 
898.666 85933480 86290736 86090880 85350400 84134184 82545912 80716128 
902.040 78772760 76839952 75025056 73405696 72038688 70957056 70173368 
905.415 69687064 69489064 69568200 69913216 70517152 71376000 72488480 
908.790 73854352 75472952 77343760 79466376 81840896 84465496 87333856 
912.165 90429744 93721168 97164432 100705024 104286776 107869376 111434840 
915.540 114997000 118598200 122306392 126199888 130345720 134786448 
918.432 139514080 144456320 149450512 154248816 158541408 161962816 
921.325 164181888 164967008 164245488 162155792 159045808 155460384 
924.218 152015088 149351232 148048816 148498816 150888256 155136944 
927.110 160919280 167649376 174551376 180818224 185636528 188368016 
930.003 188652016 186399280 181787584 175164000 166985840 157720848 
932.896 147802128 137644320 127600480 117975128 109037936 100986728 93962456 
936.271 88050416 83275568 79625352 77060688 75530312 74971744 75304408 
939.646 76424592 78176128 80346080 82685384 84898704 86699216 87857256 
943.020 88212856 87716648 86425104 84490816 82121016 79539104 76964144 
946.395 74562840 72448032 70679168 69266088 68186208 67397984 66856996 
949.770 66518836 66344276 66301352 66360028 66493696 66680252 66901980 
953.145 67148192 67415208 67704880 68021480 68368376 68746328 69153592 
956.520 69587096 70044048 70523544 71025768 71550960 72097360 72661720 
959.894 73239176 73826544 74423640 75034200 75663880 76318560 77000864 
963.269 77709672 78440248 79187080 79947024 80719320 81506904 82312888 
966.644 83139312 83985208 84848064 85725304 86616776 87526016 88458816 
970.019 89420688 90414688 91440416 92494352 93572976 94675208 95803256 
973.394 96962240 98157888 99393872 100670728 101987088 103341840 104736464 
976.768 106175848 107666816 109216552 110829616 112508024 114253616 
979.661 116070848 117969216 119965144 122077752 124325488 126722304 
982.554 129274128 131979184 134826992 137800064 140869024 143985664 
985.447 147083680 150067680 152820368 155222528 157157664 158537920 
988.339 159320832 159511616 159164768 158372288 157262528 155978592 
991.232 154664304 153463680 152494032 151842560 151564160 151676768 
994.125 152170144 153015056 154177680 155625728 157333456 159284096 
997.017 161463152 163855504 166444976 169212496 172139696 175210272 
999.910 178405552 181699552 185054384 188411584 191698368 194837424 
1002.803 197753680 200394224 202734336 204780432 206566192 208147984 
1005.695 209602416 211012752 212471584 214072688 215895424 218002208 
1008.588 220428176 223178080 226231088 229549072 233090640 236813888 
1011.481 240681008 244657536 248701648 252765632 256799792 260755296 
1014.374 264596080 268300688 271852928 275230272 278387200 281241568 
1017.266 283685920 285597408 286863488 287415904 287244896 286411936 
1020.159 285037536 283300512 281419232 279613696 278111040 277108832 
1023.052 276749024 277120704 278244000 280080096 282540128 285509120 
1025.945 288866208 292482144 296234272 299997504 303627872 306977344 
1028.838 309892544 312226208 313865600 314732992 314787360 314019264 
1031.731 312437856 310066976 306943040 303122624 298683648 293716224 
1034.624 288320288 282586720 276586912 270378848 264009712 257527328 
1037.517 250993584 244481808 238073232 231855200 225905024 220289296 
1040.410 215064480 210267360 205913056 201982384 198413936 195092064 
1043.303 191847392 188490832 184822064 180677568 175971264 170703104 
1046.196 164967664 158924928 152786640 146770352 141064432 135828592 
1049.089 131166608 127129464 123726712 120931624 118695128 116954216 
1051.982 115645856 114711120 114096616 113759488 113659400 113752728 
1054.875 113992136 114316904 114654640 114931160 115068896 114998896 
1057.768 114670480 114050856 113132872 111935376 110506160 108918952 
1060.661 107265064 105655400 104199616 102997704 102138432 101683224 
1063.554 101669400 102109504 102992160 104282728 105921344 107830472 
1066.448 109907264 112029328 114074856 115920112 117460856 118626280 
1069.341 119376360 119704216 119627048 119178432 118398272 117325128 
1072.234 115996488 114444312 112696144 110780864 108728704 106577984 
1075.127 104381312 102202152 100116152 98208360 96556200 95229392 94280192 
1078.502 93735352 93598536 93847856 94440360 95308536 96363392 97504104 
1081.877 98611504 99567568 100273600 100657616 100697096 100422680 99920760 
1085.252 99315648 98752776 98389232 98360264 98774904 99706896 101183856 
1088.628 103188016 105652952 108475592 111512960 114596272 117562312 
1091.521 120252888 122541072 124344896 125620336 126361640 126589072 
1094.414 126343008 125673744 124635376 123290384 121703904 119945448 
1097.307 118094056 116228392 114423792 112745672 111231680 109883792 
1100.200 108659040 107475504 106216136 104748768 102961968 100777904 
1103.093 98178080 95206704 91967808 88606288 85275720 82133744 79311944 
1106.468 76903912 74972488 73544216 72618056 72173368 72176576 72586136 
1109.844 73352384 74423448 75741856 77241584 78853128 80496800 82083184 
1113.219 83525128 84735600 85639496 86186800 86351648 86137176 85569520 
1116.594 84695496 83572520 82259992 80819528 79305664 77762416 76225032 
1119.969 74716296 73248312 71826592 70453000 69129856 67862864 66660472 
1123.344 65533488 64491136 63538372 62674612 61894900 61193600 60568124 
1126.720 60023320 59572076 59235360 59037476 58999328 59135800 59449788 
1130.095 59931068 60554752 61284132 62073296 62866084 63606420 64242928 
1133.470 64734444 65061048 65227048 65262744 65216572 65150544 65129064 
1136.845 65203792 65410360 65760456 66240684 66813172 67420120 67994472 
1140.221 68459840 68744344 68790272 68553256 68010320 67157744 66008524 
1143.596 64587512 62928624 61073756 59067768 56958748 54798084 52633232 
1146.971 50509004 48464604 46528652 44721632 43055072 41533044 40154816 
1150.346 38917112 37816120 36847044 36005168 35285264 34681380 34187548 
1153.722 33798740 33511378 33323258 33233180 33240228 33343184 33540406 
1157.097 33830976 34215152 34694980 35274016 35955856 36743328 37637148 
1160.472 38635980 39736264 40932064 42215000 43571772 44982184 46420048 
1163.847 47849452 49229236 50517936 51672548 52656120 53439496 53999884 
1167.223 54324672 54410708 54265200 53904776 53354440 52646136 51812972 
1170.598 50888444 49904924 48889800 47869388 46868348 45908976 45013644 
1173.973 44203012 43493392 42898544 42427688 42086080 41877644 41805736 
1177.348 41874144 42088016 42452716 42973380 43654968 44502424 45521864 
1180.724 46721804 48112404 49705444 51512960 53544804 55808404 58306964 
1184.099 61038288 63990072 67134656 70426696 73791712 77127440 80315416 
1187.474 83215800 85691968 87626920 88926152 89536856 89449672 88700208 
1190.849 87360960 85532848 83339024 80900792 78334552 75746272 73218032 
1194.225 70815224 68585816 66557840 64746596 63154348 61773144 60586444 
1197.600 59570936 58699888 57941248 57261000 56625304 55998040 55345444 
1200.975 54638132 53851400 52971112 51995156 50934940 49814092 48664844 
1204.350 47525472 46430780 45410420 44486048 43668780 42962224 42364268 
1207.726 41870096 41473072 41166020 40941532 40790748 40704460 40674768 
1211.101 40695436 40764400 40883532 41058240 41295540 41602252 41984096 
1214.476 42444644 42985456 43605328 44300824 45065100 45886696 46751840 
1217.851 47644036 48546556 49446276 50333172 51202156 52051556 52882896 
1221.227 53699856 54508440 55318604 56144504 57002956 57914364 58897508 
1224.602 59967132 61132148 62393436 63744040 65168568 66645368 68146048 
1227.977 69634704 71073800 72424272 73650128 74726376 75639304 76390776 
1231.352 76995920 77484816 77900320 78293640 78730064 79283552 80029848 
1234.728 81051264 82423752 84211528 86468608 89231432 92521216 96345320 
1238.103 100698176 105560200 110892056 116637568 122716280 129022984 
1240.996 135444848 141856208 148128688 154144752 159786112 164938944 
1243.889 169500976 173375472 176481792 178760864 180171808 180693488 
1246.782 180321792 179069120 176965904 174061616 170426960 166142352 
1249.675 161288448 155938304 150146096 143952064 137392928 130512864 
1252.568 123377840 116083832 108744800 101495952 94478544 87814984 81615288 
1255.943 75958832 70887064 66410832 62507600 59131624 56216192 53685536 
1259.319 51462300 49467072 47630428 45896012 44219776 42576120 40954020 
1262.694 39355188 37789152 36269980 34812288 33428560 32128930 30920976 
1266.069 29809378 28796096 27880132 27056924 26318774 25656878 25062924 
1269.444 24530642 24057108 23641882 23286202 22991354 22758082 22587198 
1272.820 22480478 22441434 22476048 22590306 22788740 23071712 23433092 
1276.195 23859352 24328500 24813206 25278856 25687318 26002228 26190684 
1279.570 26230032 26113264 25849440 25462784 24985354 24453446 23897754 
1282.945 23338958 22789788 22255154 21738144 21243876 20781034 20361674 
1286.321 19998848 19702788 19480390 19334766 19267252 19279514 19374744 
1289.696 19556602 19828078 20189196 20635804 21159576 21748140 22386100 
1293.071 23052982 23723516 24368382 24953910 25448872 25830240 26088248 
1296.446 26229750 26277620 26268258 26241260 26236122 26288040 26422672 
1299.822 26658484 27004986 27461628 28014764 28634818 29279402 29891400 
1303.197 30408618 30776620 30950366 30905750 30640170 30171438 29532446 
1306.572 28765400 27919668 27043208 26180548 25371094 24642882 24013226 
1309.947 23487650 23062312 22727390 22471616 22286684 22167274 22111488 
1313.323 22117972 22184360 22306774 22480932 22704036 22975598 23297600 
1316.698 23671902 24097838 24570786 25082230 25622818 26185052 26765356 
1320.073 27364078 27982532 28618822 29265224 29906024 30518266 31077056 
1323.448 31557884 31941802 32219954 32395922 32487142 32523460 32547460 
1326.823 32607712 32749460 33010792 33411312 33948904 34600136 35326956 
1330.199 36087004 36840480 37561600 38239188 38875116 39480256 40068868 
1333.574 40655992 41253784 41873160 42522724 43207852 43930168 44685052 
1336.949 45462516 46246936 47020628 47766780 48470568 49121184 49711244 
1340.324 50236744 50697080 51095212 51438428 51737080 52003632 52250356 
1343.700 52486116 52715564 52938776 53153448 53357172 53548892 53728168 
1347.075 53891612 54027572 54113924 54115160 53987240 53688868 53186664 
1350.450 52468276 51545680 50458276 49267016 48044520 46873700 45831128 
1353.825 44980860 44372712 44031624 43956896 44120008 44471400 44945144 
1357.201 45467588 45974756 46412752 46745052 46954724 47041416 47020960 
1360.576 46921984 46789296 46679856 46654396 46775052 47087500 47609468 
1363.951 48326852 49193872 50143132 51087944 51939360 52609704 53016072 
1367.326 53097988 52822756 52194940 51255504 50077196 48751284 47363812 
1370.702 45992768 44696692 43511924 42462508 41565164 40835228 40290724 
1374.077 39947596 39813900 39883376 40135696 40542704 41075284 41713844 
1377.452 42451400 43294272 44259436 45372240 46667276 48185184 49973396 
1380.827 52077252 54521924 57289620 60293864 63380652 66317992 68828784 
1384.203 70647344 71527472 71300448 69908472 67435328 64116904 60297368 
1387.578 56387704 52742724 49597500 47059436 45117076 43690656 42670236 
1390.953 41951176 41441976 41066288 40766108 40492288 40205768 39882320 
1394.328 39512476 39104296 38677052 38253736 37851544 37477140 37128860 
1397.704 36801348 36492280 36207164 35960896 35773800 35667600 35657604 
1401.079 35751028 35946928 36238608 36615876 37066536 37579336 38143640 
1404.454 38750188 39391104 40059856 40751512 41462900 42194188 42948764 
1407.829 43732796 44552788 45413328 46314944 47253564 48222724 49216544 
1411.205 50230272 51260092 52298868 53329936 54326212 55252448 56072112 
1414.580 56762544 57322552 57778240 58175832 58575420 59039828 59618860 
1417.955 60345336 61224808 62233948 63324676 64436592 65512956 66506788 
1421.330 67387768 68143880 68781104 69327496 69832424 70362720 70983160 
1424.706 71739112 72644920 73682672 74813984 75995024 77192584 78385200 
1428.081 79562784 80724024 81872296 83017312 84176216 85380440 86671952 
1431.456 88092944 89680496 91454072 93416040 95556360 97866776 100352368 
1434.831 103030672 105927936 109059272 112410616 115926208 119526864 
1437.724 123139840 126714064 130217312 133611872 136839248 139793968 
1440.617 142325808 144273152 145466160 145765600 145086432 143397616 
1443.510 140733616 137188432 132922856 128142432 123066816 117930000 
1446.404 112937808 108260712 104038208 100357088 97247200 94675704 92563688 
1449.779 90808776 89317384 88037512 86966792 86148848 85643816 85501664 
1453.154 85731072 86294008 87104280 88044944 88994016 89825936 90449904 
1456.529 90840312 91062544 91250848 91551592 92088744 92931416 94109376 
1459.905 95631016 97485440 99643624 102047728 104617680 107234232 109736728 
1463.280 111950944 113696328 114839856 115344424 115287600 114836360 
1466.173 114176080 113476272 112850368 112355680 112014448 111819632 
1469.066 111741456 111718784 111655792 111421312 110853560 109810616 
1471.959 108222240 106139768 103731096 101224216 98827560 96668616 94806264 
1475.334 93257680 92027672 91129240 90578376 90376704 90500016 90893448 
1478.709 91484792 92194352 92956656 93733872 94516304 95323392 96193128 
1482.085 97176200 98325360 99696600 101355960 103375384 105831024 108787104 
1485.460 112271864 116249648 120592568 125090304 129430248 133224040 
1488.353 136069664 137563856 137393616 135420592 131725656 126616256 
1491.246 120532560 113956512 107279360 100748896 94506424 88596376 83026816 
1494.621 77825960 73053272 68809328 65212996 62356828 60275444 58934772 
1497.997 58259260 58154316 58531968 59324308 60474004 61929288 63640484 
1501.372 65549596 67592904 69705304 71802080 73779624 75506696 76789576 
1504.747 77380616 76998640 75399440 72515496 68554616 63966000 59233008 
1508.122 54698820 50508332 46662624 43112044 39814516 36753928 33947112 
1511.498 31424358 29205648 27295482 25677546 24323068 23200108 22277720 
1514.873 21527758 20918246 20415396 19989482 19620658 19308264 19067338 
1518.248 18918422 18872948 18924998 19047500 19202068 19351116 19477376 
1521.623 19594072 19738434 19949446 20245464 20622914 21062666 21544644 
1524.999 22056544 22600216 23188958 23839750 24562582 25355708 26208036 
1528.374 27107568 28048586 29034972 30079420 31198726 32406990 33712356 
1531.749 35113836 36599580 38150152 39738552 41337992 42925680 44489940 
1535.124 46026584 47535304 49011152 50442868 51815884 53104320 54276800 
1538.500 55296252 56120412 56706660 57021920 57059324 56843052 56423852 
1541.875 55862472 55205416 54473356 53657340 52733372 51680832 50504872 
1545.250 49245268 47966808 46735236 45585816 44519160 43502948 42494116 
1548.625 41459476 40397728 39341476 38346560 37463056 36714116 36091572 
1552.000 35565856 35105000 34689528 34322036 34022140 33812852 33704408 
1555.376 33684964 33720560 33762888 33748528 33600720 33240088 32602030 
1558.751 31682328 30564834 29395288 28309050 27378300 26614588 25989176 
1562.126 25457654 24973808 24498492 24006574 23493106 22974270 22479850 
1565.501 22042428 21679974 21390910 21155226 20944010 20727926 20486908 
1568.877 20216654 19928110 19642706 19382054 19162418 18992492 18875164 
1572.252 18810454 18795232 18821944 18875406 18932890 18967502 18954176 
1575.627 18883816 18768694 18641222 18535536 18473058 18456912 18476652 
1579.002 18517278 18567072 18621576 18682452 18754854 18842878 18946942 
1582.378 19063806 19188840 19317860 19448198 19577642 19700882 19808446 
1585.753 19887976 19926446 19916526 19860470 19771652 19671100 19583188 
1589.128 19531094 19531404 19594836 19727512 19932378 20208080 20545718 
1592.503 20926034 21315908 21670812 21946016 22100714 22110966 21975502 
1595.879 21714560 21364144 20965326 20559544 20179754 19850516 19592062 
1599.254 19419474 19344326 19373634 19508184 19742732 20067968 20474542 
1602.629 20953886 21497884 22096532 22733116 23381162 24006924 24568612 
1606.004 25023190 25334212 25473676 25427862 25198124 24799034 24253794 
1609.380 23589264 22836652 22028588 21200070 20389314 19629362 18945108 
1612.755 18349162 17839470 17403174 17019898 16667498 16324122 15972560 
1616.130 15606239 15231305 14866808 14538728 14271635 14081776 13973327 
1619.505 13940582 13969426 14041767 14137397 14240750 14343581 14446710 
1622.881 14558463 14689782 14848945 15038796 15257832 15503315 15773539 
1626.256 16067721 16382715 16711570 17041642 17357410 17647320 17907762 
1629.631 18145698 18375604 18613588 18871080 19150402 19444420 19739092 
1633.006 20017342 20259526 20447486 20564408 20597030 20541132 20405080 
1636.382 20210300 19983826 19749252 19520730 19300782 19082642 18854400 
1639.757 18604872 18328216 18028216 17717032 17412384 17129350 16874474 
1643.132 16644636 16427033 16203349 15953619 15662640 15323729 14941460 
1646.507 14531670 14118741 13730793 13392669 13122557 12931323 12820737 
1649.883 12785076 12808657 12865582 12912685 12891898 12747985 12455258 
1653.258 12049067 11609937 11216437 10904998 10671709 10494076 10348309 
1656.633 10218432 10096869 9983342 9880454 9790163 9710734 9637248 9562587 
1660.490 9479576 9382394 9266379 9129044 8969966 8793163 8606731 8423960 
1664.348 8259738 8126164 8030499 7972179 7943494 7929995 7913866 7878403 
1668.205 7810252 7703898 7562200 7394697 7214491 7034124 6864939 6714934 
1672.063 6588494 6485197 6398501 6315184 6216892 6087472 5919261 5720730 
1675.920 5513967 5325684 5174532 5064999 4989479 4934113 4886192 4839752 
1679.778 4798576 4774019 4779111 4820252 4892459 4975235 5037043 5040361 
1683.635 4956600 4783902 4552840 4312129 4100382 3936015 3816899 3731603 
1687.492 3666506 3610673 3556652 3499263 3436038 3366844 3295525 3229892 
1691.350 3180657 3159096 3172146 3219945 3293021 3373923 3439945 3468501 
1695.207 3449597 3392056 3323303 3273357 3263008 3294924 3355725 3419206 
1699.065 3452603 3426954 3328245 3170377 2988145 2820762 2691651 2604975 
1702.922 2552678 2520517 2493189 2456134 2399557 2320335 2222876 2117415 
1706.780 2015774 1927902 1858117 1806209 1767914 1737940 1712259 1689839 
1710.637 1673008 1666123 1673241 1696624 1735345 1786080 1844507 1907068 
1714.494 1971170 2034948 2094408 2141888 2166163 2154775 2101466 2010215 
1718.352 1897184 1783119 1687144 1620756 1585571 1577324 1588431 1611744 
1722.209 1641909 1675902 1712691 1752178 1794165 1838451 1885171 1935424 
1726.067 1990775 2052526 2120145 2190672 2258446 2317470 2364108 2399124 
1729.924 2427378 2456700 2492923 2536381 2577509 2597109 2570576 2474961 
1733.781 2303446 2073400 1824010 1596845 1418629 1297610 1227194 1194134 
1737.639 1182671 1179116 1172903 1157388 1131376 1098522 1065339 1038136 
1741.496 1021397 1016216 1020932 1031593 1043915 1055341 1065837 1078725 
1745.354 1097791 1126725 1166026 1212541 1259626 1299205 1324363 1329947 
1749.211 1313362 1273217 1209119 1121543 1013559 892619 769590 657545 567957 
1753.551 506483 472682 458850 453178 441802 414207 367313 306332 242708 
1757.890 187645 148631 125894 113730 102628 82445 45959 -10238 -84119 
1762.230 -170076 -259759 -344622 -417189 -471638 -504934 -517311 -512877 
1766.087 -498679 -483851 -476040 -477795 -485241 -489379 -481071 -455056 
1769.945 -413978 -367731 -332770 -324393 -351707 -412256 -493516 -578797 
1773.802 -654103 -713253 -757379 -790818 -816979 -836491 -847404 -846742 
1777.660 -833514 -810199 -782384 -757280 -740642 -734490 -736871 -742594 
1781.517 -747159 -747622 -744976 -741734 -741734 -747291 -758868 -774645 
1785.375 -791843 -807454 -818533 -822535 -816714 -797797 -763465 -713088 
1789.232 -649769 -579856 -513737 -462801 -437314 -443239 -479813 -540576 
1793.089 -614466 -690825 -761679 -822402 -870849 -906925 -931061 -944485 
1796.947 -949543 -949014 -946501 -944948 -946072 -950899 -959065 -970636 
1800.804 -985281 -1003695 -1025215 -1048981 -1072846 -1093172 -1107483 
1804.179 -1114093 -1113069 -1106095 -1095717 -1083389 -1069904 -1053973 
1807.555 -1034140 -1010339 -983595 -957147 -935029 -920812 -916447 -921440 
1811.412 -933640 -950105 -967892 -984984 -999397 -1009678 -1013843 -1009976 
1815.270 -996488 -973413 -942005 -905569 -867543 -830703 -796408 -764821 
1819.127 -735118 -706075 -676798 -646162 -612481 -573932 -528729 -476802 
1822.984 -420300 -364718 -317241 -283667 -265620 -259097 -254990 -242705 
1826.842 -214390 -168420 -110222 -50890 -2849 23426 24553 4970 -24286 -50791 
1831.664 -65368 -63347 -44728 -11961 31544 83207 141207 203789 269231 335379 
1836.485 400941 465650 531231 601169 679149 768826 872665 991308 1124599 
1840.825 1271622 1431061 1600037 1774069 1946840 2110656 2259112 2389761 
1844.682 2505586 2612908 2718457 2825532 2932366 3032286 3115643 3173982 
1848.540 3201953 3198748 3167740 3114308 3043497 2957185 2855414 2736862 
1852.397 2601575 2452002 2293153 2130767 1970371 1814960 1665524 1521692 
1856.255 1383194 1250853 1125928 1009241 900024 795647 692954 589025 483296 
1860.594 377925 277155 185291 105611 38768 -16003 -60001 -93593 -115788 
1864.934 -125526 -122843 -110256 -93527 -79878 -76731 -88193 -114926 -153217 
1869.273 -197301 -241148 -280819 -313765 -339226 -356773 -366142 -367897 
1873.131 -364321 -359918 -360646 -372035 -397525 -436619 -485903 -539550 
1876.988 -592430 -641928 -688443 -734291 -781789 -831861 -882853 -932086 
1880.846 -976917 -1016422 -1052320 -1087455 -1124371 -1163829 -1204110 
1884.221 -1242107 -1275046 -1301606 -1322451 -1339859 -1355813 -1371305 
1887.596 -1385738 -1398124 -1409023 -1419954 -1434453 -1455158 -1482270 
1890.971 -1512582 -1540548 -1559268 -1564716 -1556165 -1537246 -1513507 
1894.347 -1490393 -1471340 -1456347 -1443732 -1431348 -1418501 -1406380 
1897.722 -1396902 -1391122 -1388149 -1385012 -1378571 -1366912 -1350660 
1901.097 -1333253 -1318850 -1310493 -1308213 -1309568 -1310592 -1309006 
1904.472 -1304348 -1298567 -1294702 -1294008 -1295891 -1297081 -1293678 
1907.848 -1283965 -1269396 -1254728 -1246005 -1247657 -1260972 -1283305 
1911.223 -1309667 -1334706 -1354988 -1369224 -1377019 -1378208 -1371965 
1914.598 -1357135 -1334244 -1306628 -1280926 -1264705 -1264903 -1283305 
1917.973 -1315547 -1352510 -1384979 -1406380 -1417015 -1422332 -1430225 
1921.349 -1447299 -1476095 -1514134 -1555868 -1595418 -1629321 -1657841 
1924.724 -1683091 -1706756 -1728538 -1745567 -1754312 -1752761 -1742134 
1928.099 -1726524 -1711013 -1699098 -1691111 -1684609 -1676853 -1666918 
1931.474 -1657412 -1653913 -1661736 -1683091 -1715270 -1750847 -1782328 
1934.850 -1803546 -1814599 -1819582 -1825455 -1836904 -1854127 -1872173 
1938.225 -1884710 -1886491 -1877782 -1863365 -1851916 -1851025 -1864387 
1941.600 -1889428 -1919547 -1946860 -1965101 -1971334 -1966651 -1952236 
1944.975 -1928684 -1896290 -1855677 -1809584 -1763090 -1723488 -1696062 
1948.351 -1682068 -1677546 -1675268 -1668469 -1654639 -1637408 -1625327 
1951.726 -1628727 -1653451 -1698867 -1757348 -1816909 -1867126 -1902426 
1955.101 -1923670 -1936766 -1949499 -1966189 -1988618 -2014475 -2041156 
1958.476 -2066945 -2093259 -2121287 -2152412 -2184721 -2215150 -2239609 
1961.852 -2256717 -2267232 -2273956 -2279724 -2283943 -2282922 -2272275 
1965.227 -2248542 -2214128 -2176018 -2145026 -2129893 -2132926 -2149511 
1968.602 -2169919 -2184590 -2188843 -2185315 -2181260 -2185414 -2202491 
1971.977 -2230149 -2262024 -2289678 -2308630 -2319045 -2324845 -2328800 
1975.353 -2328932 -2316968 -2281273 -2212743 -2111560 -1989014 -1865047 
1978.728 -1758437 -1682629 -1640049 -1624006 -1623115 -1628595 -1635791 
1982.103 -1647146 -1666126 -1696359 -1736623 -1782097 -1826247 -1863727 
1985.478 -1893156 -1916083 -1935578 -1953424 -1968564 -1977107 -1976150 
1988.854 -1965200 -1947618 -1929278 -1916776 -1912520 -1916446 -1924231 
1992.229 -1931092 -1934325 -1933830 -1931818 -1929641 -1927035 -1921229 
1995.604 -1909353 -1890945 -1868973 -1849607 -1840203 -1843932 -1858779 
1998.979 -1877188 -1889494 -1889956 -1879135 -1865509 -1862573 -1882994 
2002.354 -1932445 -2007780 -2097678 -2187656 -2263408 -2316507 -2344157 
2005.730 -2348211 -2331898 -2298577 -2251509 -2196854 -2142686 -2100118 
2009.105 -2078618 -2082443 -2107076 -2142059 -2171930 -2183667 -2172358 
2012.480 -2141433 -2101140 -2063317 -2035385 -2018796 -2009363 -2000063 
2015.855 -1986639 -1968399 -1948311 -1929806 -1913576 -1896850 -1874450 
2019.231 -1843041 -1802688 -1758767 -1719462 -1692134 -1679757 -1679856 
2022.606 -1685731 -1690154 -1688933 -1681969 -1672001 -1662528 -1654078 
2025.981 -1644637 -1630278 -1609713 -1582477 -1553226 -1527077 -1506639 
2029.356 -1490591 -1474014 -1450799 -1416949 -1373451 -1324598 -1275971 
2032.732 -1229816 -1183193 -1128304 -1056947 -965049 -855671 -737897 -624392 
2036.589 -525221 -445027 -382463 -332141 -289660 -253401 -225551 -210184 
2040.447 -209621 -221643 -240254 -256779 -264163 -260388 -248500 -234823 
2044.304 -225551 -224127 -228001 -230617 -223199 -198195 -150667 -80176 
2048.161 10337 113730 220032 318269 396663 445483 461935 449098 418353 
2052.501 384690 365556 372321 409033 469763 541747 610492 664812 700222 
2056.841 719670 731121 741708 757010 777755 802053 827083 850422 872367 
2061.180 892885 912110 927948 936814 935818 924063 903576 879106 855468 
2065.520 836379 822104 810352 797838 782269 764212 745924 730557 719173 
2069.859 710013 699625 683795 660631 631762 602562 579071 566663 567227 
2074.199 579304 598680 621508 644869 668894 694945 724450 757707 793323 
2078.539 828312 860016 886411 906631 921008 929741 933327 932364 928446 
2082.878 923797 921706 925225 935552 951723 970286 987057 997817 1001038 
2087.218 996887 987356 974205 958332 938939 914832 885647 853177 821008 
2091.557 794086 776129 768660 770253 777855 789008 802551 820344 844778 
2095.897 877612 917422 960822 1001071 1033287 1054145 1064575 1068162 
2099.754 1069291 1071550 1076233 1083475 1093141 1106362 1126393 1157754 
2103.612 1203670 1264876 1338920 1420623 1504569 1586369 1664094 1737740 
2107.469 1807773 1874123 1935357 1989577 2035781 2075298 2111455 2148514 
2111.327 2189840 2235532 2282827 2326264 2360910 2384098 2396791 2402888 
2115.184 2407220 2413717 2423746 2436208 2448936 2460466 2471895 2485525 
2119.042 2505020 2532681 2568677 2610775 2655678 2699852 2741864 2781745 
2122.899 2820996 2861351 2903878 2948545 2994917 3042563 3091682 3142809 
2126.756 3196078 3250723 3304372 3354055 3396764 3430126 3453405 3467232 
2130.614 3472643 3471941 3467365 3462021 3460619 3467633 3487172 3521576 
2134.471 3568812 3623603 3678369 3726925 3766161 3798482 3829268 3865571 
2138.329 3910838 3963700 4016669 4060848 4086735 4090114 4071751 4037470 
2142.186 3994498 3949322 3904987 3862863 3822047 3782739 3745607 3712220 
2146.043 3682479 3652673 3617723 3570583 3505743 3422980 3326241 3222949 
2149.901 3120348 3023277 2931465 2841306 2746765 2643210 2528215 2402089 
2153.758 2265840 2121277 1969739 1814228 1661233 1523820 1418396 1364247 
2157.616 1375648 1455961 1594184 1768114 1951067 2118214 2254316 2353148 
2161.473 2416849 2450702 2460699 2452568 2430310 2398724 2361476 2322300 
2165.331 2282428 2241494 2196400 2143786 2081124 2007885 1925872 1837752 
2169.188 1745525 1650856 1553381 1454233 1355605 1262118 1179648 1113504 
2173.045 1066069 1036044 1019404 1010105 1003961 998846 994197 989647 982640 
2177.385 968759 941728 898264 839101 770486 703408 648419 612682 596988 
2181.725 595827 599609 600771 594997 583285 569815 558999 553160 551866 
2186.064 552331 552098 550440 548482 548051 550207 553293 554686 551999 
2190.404 545894 540387 542013 557108 587499 630235 677356 718542 747517 
2194.743 762354 767266 769689 777390 793323 816759 842089 863801 878575 
2199.083 886344 890661 895375 903078 912873 921706 926188 924428 917522 
2203.423 908158 900422 896338 896537 899260 902447 905203 908225 913537 
2207.762 923366 938042 956406 975268 991308 1001636 1006186 1005987 1003363 
2212.102 1000706 1000507 1004127 1013692 1030065 1053680 1083641 1116294 
2215.959 1146325 1168485 1178452 1175794 1163534 1147654 1134000 1127256 
2219.817 1128419 1135229 1143634 1149282 1150345 1146491 1139282 1129848 
2223.674 1118320 1103770 1084737 1060987 1034051 1007415 984965 969788 
2227.531 962715 962217 965538 969755 973176 975799 978622 982574 988086 
2231.871 994894 1002267 1010470 1020400 1033885 1052949 1078027 1108587 
2235.729 1142405 1176923 1210082 1241316 1271389 1300700 1329814 1357699 
2239.586 1382462 1402340 1416966 1426806 1434585 1443328 1455263 1472185 
2243.443 1494095 1520529 1550920 1584873 1621954 1661433 1701514 1740501 
2247.301 1775699 1805543 1829633 1848700 1864073 1876386 1885337 1889996 
2251.158 1889297 1884272 1877850 1874622 1880678 1899880 1933294 1978160 
2255.016 2028357 2076796 2116316 2143087 2155108 2153309 2139757 2117248 
2258.873 2088448 2056621 2024862 1996434 1973633 1958156 1949103 1944876 
2262.730 1942979 1941648 1941182 1943545 1951233 1966411 1989444 2017771 
2266.588 2047665 2074698 2095906 2110589 2120312 2127504 2134729 2143320 
2270.445 2153176 2163399 2172989 2181914 2190639 2199997 2210687 2222543 
2274.303 2234966 2246789 2257713 2267972 2278597 2290322 2304079 2318636 
2278.160 2332460 2343620 2350350 2352015 2349850 2345386 2341621 2340788 
2282.018 2345086 2355280 2371971 2394193 2420381 2448936 2477727 2505253 
2285.875 2531181 2556478 2582709 2611575 2644677 2681449 2720591 2759270 
2289.732 2794684 2825965 2853146 2878762 2905913 2937870 2976735 3022777 
2293.590 3074863 3131228 3189736 3248920 3308045 3366877 3425250 3482896 
2297.447 3539682 3595539 3650267 3704601 3758942 3813991 3870519 3928726 
2301.305 3989248 4052453 4119047 4189732 4265113 4345193 4429873 4518454 
2305.162 4610803 4706957 4807521 4913269 5025378 5144053 5269335 5400927 
2309.020 5537760 5679571 5825827 5975828 6128703 6282809 6435861 6585467 
2312.877 6730010 6868710 7002739 7134723 7267993 7406157 7552658 7709261 
2316.734 7876750 8054396 8240523 8432474 8627348 8822749 9016378 9206844 
2320.592 9392686 9572140 9742043 9897844 10033287 10142519 10221384 10269456 
2324.449 10290796 10294053 10290932 10293782 10312748 10355231 10422831 
2327.824 10512609 10617481 10728966 10837423 10934694 11015435 11076783 
2331.200 11119205 11145652 11161528 11173053 11186108 11206304 11236565 
2334.575 11278390 11331476 11394162 11464884 11541743 11623686 11709424 
2337.950 11797527 11886363 11973412 12056220 12132230 12199188 12254738 
2341.325 12296764 12321886 12325397 12300446 12236948 12122724 11945415 
2344.701 11694650 11368039 10974213 10536848 10091749 9682442 9356054 
2348.076 9151445 9096324 9203662 9469586 9874930 10386553 10966771 11574478 
2351.933 12173426 12738910 13256277 13721115 14134830 14501795 14826521 
2355.309 15113031 15365710 15589650 15789550 15969604 16130956 16272588 
2358.684 16391592 16485158 16552515 16595131 16616439 16619710 16606869 
2362.059 16577506 16529763 16461927 16374180 16269011 16150730 16023748 
2365.434 15890788 15752133 15605723 15448137 15276399 15089325 14887004 
2368.810 14670828 14442360 14203021 13953310 13694031 13425885 13150185 
2372.185 12868074 12580551 12287493 11988501 11683111 11371678 11056186 
2375.560 10739971 10427176 10122102 9827816 9546329 9278598 9025410 8787720 
2379.417 8567663 8367377 8189265 8034718 7903710 7795240 7707102 7637157 
2383.275 7583610 7544871 7519551 7505730 7501313 7503909 7511090 7520900 
2387.132 7532194 7544432 7557514 7571236 7585330 7599626 7613586 7627277 
2390.990 7640867 7653884 7666024 7675804 7681706 7682482 7677895 7668857 
2394.847 7657829 7647544 7640833 7639417 7644003 7654895 7672128 7695972 
2398.705 7727575 7767647 7816358 7872836 7935057 8000730 8067695 8135043 
2402.562 8203177 8273550 8347786 8427305 8512920 8604940 8703571 8809460 
2406.419 8923290 9045471 9175302 9310994 9449674 9588432 9725642 9861168 
2410.277 9996904 10135635 10279837 10430706 10587296 10746695 10905337 
2413.652 11059347 11205181 11340217 11462401 11569509 11660205 11733524 
2417.027 11789764 11830928 11860040 11880676 11895591 11906318 11912824 
2420.403 11914492 11911495 11905058 11898145 11895047 11899678 11914220 
2423.778 11938944 11971812 12010301 12052030 12096217 12144360 12199257 
2427.153 12264554 12343464 12437969 12549037 12676166 12818314 12974232 
2430.528 13142296 13320948 13508459 13703914 13906711 14116825 14334472 
2433.904 14560314 14793884 15034714 15281307 15532332 15787248 16046301 
2437.279 16310807 16582841 16863864 17154926 17455636 17765216 18082410 
2440.654 18406126 18735758 19070834 19410708 19754662 20101316 20449674 
2444.029 20798692 21148166 21498582 21850292 22203924 22559450 22916598 
2447.405 23275120 23634606 23994878 24355800 24716354 25075140 25429898 
2450.780 25777918 26117242 26446724 26766376 27076886 27379182 27673212 
2454.155 27958078 28232170 28493590 28740692 28972344 29187928 29386636 
2457.530 29567060 29726946 29863288 29972974 30053464 30102788 30120224 
2460.906 30105522 30058932 29981316 29873900 29739152 29581214 29404896 
2464.281 29216634 29022432 28828566 28640164 28462068 28298616 28154350 
2467.656 28034168 27942708 27883946 27860736 27873842 27922532 28004938 
2471.031 28118540 28260954 28430052 28623246 28838266 29071744 29320060 
2474.406 29579264 29846074 30116956 30389288 30660332 30926954 31185518 
2477.782 31432622 31664468 31878042 32070850 32241150 32387282 32507784 
2481.157 32601424 32667148 32704766 32715556 32701586 32666076 32612424 
2484.532 32543458 32461758 32368790 32265812 32154050 32034714 31909314 
2487.907 31778496 31642944 31502232 31355296 31201288 31039044 30867754 
2491.283 30687142 30496406 30294454 30080274 29851860 29607638 29346506 
2494.658 29067848 28771914 28459308 28130594 27786552 27427320 27053786 
2498.033 26666800 26268610 25861642 25449258 25034458 24620474 24209160 
2501.408 23802086 23400184 23003930 22613796 22230672 21855030 21487858 
2504.784 21129658 20781416 20443908 20118286 19805534 19506936 19223438 
2508.159 18955526 18703172 18466142 18243616 18034778 17838296 17653116 
2511.534 17477918 17311926 17154582 17005632 16865932 16736571 16618678 
2514.909 16513931 16422732 16345279 16280914 16228972 16188422 16158743 
2518.285 16139176 16128996 16127689 16134430 16148288 16169129 16197020 
2521.660 16232206 16275236 16325876 16383402 16446339 16512383 16579468 
2525.035 16645497 16709298 16769664 16825976 16877194 16921736 16957808 
2528.410 16983960 16998706 17001980 16993882 16975380 16947506 16911092 
2531.786 16866276 16813540 16752686 16684368 16609177 16528662 16444858 
2535.161 16360108 16277060 16198086 16124938 16058747 15999408 15945921 
2538.536 15896734 15849961 15804153 15758798 15714237 15671708 15632411 
2541.911 15597378 15567120 15540986 15517738 15495898 15474061 15450987 
2545.287 15425855 15398253 15368043 15335400 15301419 15267201 15234256 
2548.662 15203920 15177053 15153241 15131660 15110630 15088913 15066204 
2552.037 15042706 15019793 14999008 14981276 14966598 14954525 14943757 
2555.412 14933263 14922564 14911625 14900515 14889233 14877472 14864168 
2558.788 14847848 14827447 14802283 14772287 14737973 14699961 14658559 
2562.163 14613905 14565967 14514917 14461542 14406874 14352074 14298481 
2565.538 14246777 14197406 14150644 14107001 14067196 14032630 14004501 
2568.913 13983524 13969974 13963199 13962138 13965731 13973395 13984927 
2572.289 14000565 14020618 14044779 14072364 14102620 14134385 14167281 
2575.664 14200967 14235272 14269991 14304884 14339061 14372212 14404304 
2579.039 14436126 14469387 14506146 14548082 14596326 14651088 14711546 
2582.414 14776537 14844761 14915157 14987312 15060956 15135777 15211469 
2585.790 15287897 15364885 15442781 15521892 15602805 15685689 15770651 
2589.165 15857177 15944991 16033581 16122876 16212773 16303446 16394343 
2592.540 16484676 16572859 16657410 16736984 16811164 16880468 16945922 
2595.915 17009216 17071692 17134314 17197602 17261414 17325616 17390104 
2599.291 17454738 17520004 17586106 17654014 17724452 17798976 17878794 
2602.666 17965048 18058612 18159516 18267392 18381238 18500336 18623858 
2606.041 18751844 18884542 19022366 19165466 19313218 19464868 19618892 
2609.416 19774150 19929220 20083618 20236926 20388898 20539568 20688484 
2612.792 20835192 20979098 21119710 21256262 21388160 21514980 21636160 
2616.167 21751276 21860152 21963060 22060276 22152456 22240122 22323588 
2619.542 22403194 22478978 22551074 22620114 22686438 22750820 22813848 
2622.917 22875836 22936996 22997256 23056338 23114342 23171064 23226602 
2626.292 23280750 23333890 23385882 23437392 23489154 23542528 23598360 
2629.668 23657732 23721068 23787702 23856586 23926006 23994528 24060784 
2633.043 24124248 24184252 24241322 24295490 24347528 24397786 24447244 
2636.418 24496564 24546768 24598486 24652034 24707412 24764234 24822188 
2639.793 24881236 24941734 25004236 25069594 25138154 25210028 25284758 
2643.169 25361574 25439948 25519180 25599516 25681378 25765154 25851514 
2646.544 25940950 26033572 26129698 26229258 26332468 26439152 26549174 
2649.919 26661796 26776244 26891816 27007840 27124250 27240902 27358254 
2653.294 27476768 27596942 27719158 27843778 27971402 28102244 28237122 
2656.670 28375896 28518676 28664832 28813694 28964518 29116776 29269974 
2660.045 29424076 29578944 29734256 29889554 30044482 30198398 30351196 
2663.420 30503372 30655352 30807958 30961502 31116208 31271714 31427172 
2666.795 31582362 31736292 31889274 32040886 32191624 32341268 32490178 
2670.171 32638784 32787584 32937794 33090416 33246704 33407450 33572908 
2673.546 33742656 33915836 34091164 34267744 34444436 34620732 34796344 
2676.921 34971312 35145776 35320380 35495592 35672316 35851488 36033824 
2680.296 36220132 36411276 36607944 36811232 37022332 37242496 37472624 
2683.672 37713504 37965112 38226780 38497508 38776272 39061844 39353920 
2687.047 39651820 39955404 40264804 40579732 40900316 41226784 41559292 
2690.422 41898480 42244616 42597756 42957728 43324368 43697028 44075884 
2693.797 44461124 44853136 45252160 45658244 46070868 46489080 46912308 
2697.173 47339868 47771884 48209140 48652136 49101592 49557272 50018416 
2700.548 50483992 50953012 51424440 51898284 52374216 52851832 53330272 
2703.923 53807928 54282320 54751288 55212336 55663480 56102800 56528904 
2707.298 56939936 57334116 57709852 58066512 58403460 58721244 59020736 
2710.674 59302700 59568084 59817392 60050672 60268668 60471568 60660012 
2714.049 60834016 60992836 61135276 61258952 61361444 61440640 61495336 
2717.424 61525192 61531260 61514960 61478428 61423804 61353700 61271236 
2720.799 61179944 61084740 60990244 60901868 60824372 60761752 60717472 
2724.175 60693848 60692476 60714120 60758932 60826776 60917116 61029176 
2727.550 61162624 61317180 61493088 61690608 61909496 62148724 62406176 
2730.925 62678820 62963052 63255100 63551948 63851064 64150976 64450508 
2734.300 64748592 65044620 65337448 65625936 65909216 66186032 66455820 
2737.676 66717460 66970484 67214136 67448560 67674216 67892072 68103920 
2741.051 68311760 68517680 68724008 68933000 69146912 69368464 69600208 
2744.426 69844568 70103584 70377992 70667544 70970752 71285448 71608192 
2747.801 71935016 72261920 72583896 72895544 73191952 73467776 73718872 
2751.177 73942464 74137192 74303040 74441456 74554544 74644832 74714248 
2754.552 74764744 74797136 74811000 74804848 74775760 74720272 74634208 
2757.927 74514496 74359032 74167224 73939904 73678864 73385808 73062640 
2761.302 72710488 72330448 71924024 71493216 71041528 70572576 70091240 
2764.677 69602424 69111328 68622792 68142488 67675328 67226784 66801688 
2768.053 66403696 66035604 65698972 65393992 65120444 64878076 64666608 
2771.428 64485676 64334916 64213352 64119212 64049744 64001932 63971600 
2774.803 63955060 63948148 63946880 63947684 63946500 63939356 63922392 
2778.178 63891568 63842624 63771932 63675432 63550876 63396788 63214244 
2781.554 63006304 62778436 62537788 62291504 62046044 61806644 61575776 
2784.929 61354268 61141228 60934540 60731532 60529232 60324704 60114372 
2788.304 59895356 59664780 59420760 59162452 58890636 58606860 58313368 
2791.679 58012964 57708604 57403164 57099724 56802308 56514448 56240248 
2795.055 55983752 55747860 55535024 55346908 55184232 55047716 54937832 
2798.430 54855192 54800004 54772188 54771360 54796356 54845528 54917228 
2801.805 55009020 55118584 55243572 55381196 55528700 55683860 55844384 
2805.180 56008892 56176068 56345148 56514940 56684044 56849964 57010132 
2808.556 57160796 57298804 57420564 57522988 57603032 57658048 57685744 
2811.931 57684460 57653432 57592968 57504336 57389476 57250796 57091216 
2815.306 56913612 56721612 56519016 56310976 56104084 55905208 55722320 
2818.681 55563568 55436232 55346532 55299300 55297644 55342768 55434500 
2822.057 55570684 55748008 55961776 56207212 56477808 56767376 57069036 
2825.432 57375260 57678632 57971648 58247172 58499440 58724204 58918832 
2828.807 59082876 59217020 59323592 59404844 59464036 59504352 59528904 
2832.182 59541216 59544824 59542812 59538516 59534944 59535060 59542392 
2835.558 59560368 59592636 59643112 59715152 59811840 59936548 60092984 
2838.933 60285868 60522300 60810500 61160868 61584868 62093520 62698340 
2842.308 63410976 64242972 65207868 66321692 67600992 69063152 70721664 
2845.683 72581312 74632840 76847080 79173520 81533000 83826392 85940784 
2849.059 87751760 89148104 90038944 90364296 90106944 89289912 87975920 
2852.434 86249432 84214992 81983216 79652888 77316320 75049440 72906832 
2855.809 70928304 69136072 67536384 66124372 64885424 63800336 62846056 
2859.184 62000524 61243384 60555440 59921140 59326896 58760996 58214476 
2862.560 57680940 57156144 56639044 56130588 55633728 55152744 54693184 
2865.935 54261556 53864828 53510732 53207152 52960220 52774860 52653352 
2869.310 52594520 52594184 52644864 52737372 52859580 52998776 53141988 
2872.685 53276708 53392428 53482100 53542332 53573628 53580000 53568228 
2876.061 53544840 53516620 53488624 53464412 53446352 53436272 53435560 
2879.436 53445488 53467148 53501104 53547656 53606840 53678748 53763824 
2882.811 53862388 53974632 54099964 54236892 54382616 54533608 54686796 
2886.186 54840152 54992808 55145896 55301520 55462620 55631920 55811868 
2889.562 56004748 56212644 56438716 56687028 56962492 57271964 57623652 
2892.937 58026824 58492540 59032656 59658356 60380328 61205312 62134464 
2896.312 63159824 64264140 65418028 66579624 67700696 68727392 69605848 
2899.687 70293800 70761360 70999232 71018584 70851184 70543928 70148640 
2903.063 69721184 69311752 68959448 68696176 68543520 68515544 68622208 
2906.438 68870056 69263952 69808064 70506472 71363736 72385400 73577944 
2909.813 74947568 76498760 78230800 80135632 82193480 84374952 86636440 
2913.188 88923224 91175840 93327016 95309768 97065688 98543528 99708144 
2916.563 100543280 101051072 101250784 101172768 100855672 100336472 
2919.457 99646040 98807680 97833400 96727152 95488080 94114320 92608144 
2922.832 90978752 89243760 87430168 85573080 83708696 81876136 80110600 
2926.207 78439656 76883776 75454424 74153816 72977344 71914328 70951824 
2929.582 70074184 69267528 68519272 67819048 67159792 66536172 65945000 
2932.958 65384172 64852184 64348364 63871720 63421784 62998184 62599824 
2936.333 62225156 61871132 61533896 61208708 60890812 60577192 60266684 
2939.708 59960968 59663828 59381404 59119816 58884568 58679520 58506188 
2943.083 58363548 58247968 58152876 58069544 57986456 57891384 57771992 
2946.458 57618128 57424420 57191600 56927060 56643760 56359256 56092244 
2949.834 55858704 55671316 55536908 55456336 55425164 55435368 55476552 
2953.209 55537248 55606272 55673876 55731660 55773480 55795176 55794424 
2956.584 55770276 55723072 55654064 55565224 55460024 55342920 55218772 
2959.959 55093156 54971260 54856956 54752868 54660304 54579328 54509452 
2963.335 54450328 54401768 54363612 54335864 54318216 54310028 54310592 
2966.710 54319192 54335560 54360008 54393316 54436096 54489056 54552692 
2970.085 54627348 54713968 54813312 54926892 55055804 55200784 55361324 
2973.460 55535248 55718476 55905432 56089152 56261260 56412832 56534944 
2976.836 56618020 56653956 56636400 56561928 56430640 56246740 56018616 
2980.211 55756560 55473200 55181748 54893652 54618932 54365000 54135544 
2983.586 53931112 53748524 53581576 53421280 53257152 53079756 52880424 
2986.961 52653916 52398780 52116852 51812036 51488860 51150640 50798448 
2990.337 50430400 50042468 49630036 49189492 48720516 48226316 47714664 
2993.712 47195936 46680848 46179380 45697852 45237964 44797152 44369520 
2997.087 43947804 43524812 43095540 42657700 42212188 41762108 41311392 
3000.462 40864348 40424712 39994316 39574360 39164884 38765544 38375984 
3003.838 37995920 37625512 37265492 36915904 36577700 36251644 35938504 
3007.213 35639260 35354704 35085280 34830560 34589264 34359148 34137040 
3010.588 33919632 33704156 33488612 33272638 33056948 32843724 32634858 
3013.963 32432444 32237406 32049946 31869412 31694692 31524856 31359140 
3017.339 31197408 31039970 30887250 30739704 30597718 30461396 30330728 
3020.714 30205678 30086060 29971626 29861940 29756612 29655564 29559010 
3024.089 29468366 29385536 29313324 29255160 29213764 29190976 29187042 
3027.464 29200510 29227372 29261998 29297444 29326156 29340548 29334664 
3030.840 29303860 29245872 29160750 29050948 28919784 28771738 28611212 
3034.215 28442150 28267814 28091180 27914580 27740244 27570108 27405544 
3037.590 27247394 27095928 26950758 26811488 26677546 26548892 26425420 
3040.965 26307472 26195118 26088108 25986080 25888090 25793598 25702224 
3044.341 25613820 25528914 25448028 25371900 25300948 25235558 25176038 
3047.716 25122252 25073948 25030422 24990408 24952682 24915660 24878218 
3051.091 24839942 24800788 24761814 24723862 24688088 24654770 24624154 
3054.466 24595960 24570014 24546418 24525348 24507608 24493270 24482262 
3057.842 24473604 24466486 24460178 24454220 24449696 24447662 24449836 
3061.217 24457478 24471744 24492534 24519774 24553080 24592070 24636744 
3064.592 24686790 24741576 24800086 24860502 24920924 24979598 25035228 
3067.967 25087004 25134364 25176988 25213926 25244126 25266566 25280158 
3071.343 25285004 25281842 25272466 25259262 25244372 25229588 25216280 
3074.718 25204760 25195490 25188434 25183692 25181164 25180534 25181164 
3078.093 25182078 25182148 25180674 25177198 25172142 25166278 25160730 
3081.468 25156516 25154692 25155254 25158098 25162416 25167366 25172318 
3084.844 25176670 25180604 25184818 25190294 25198722 25211188 25228780 
3088.219 25251500 25278928 25309588 25342324 25375940 25410016 25444586 
3091.594 25480598 25519040 25560646 25605596 25653644 25703946 25755766 
3094.969 25808614 25862732 25918758 25978060 26041700 26110624 26185158 
3098.344 26264526 26347570 26431934 26515890 26597116 26674234 26746712 
3101.720 26814942 26880288 26944412 27009216 27076074 27145940 27218816 
3105.095 27294176 27370712 27447296 27522942 27596764 27668692 27738832 
3108.470 27807534 27875574 27943484 28012008 28081388 28152124 28224744 
3111.845 28299322 28376354 28455982 28538174 28622574 28708406 28794644 
3115.221 28879980 28963278 29044396 29123260 29201004 29278730 29357388 
3118.596 29437480 29518722 29599872 29679476 29756078 29828684 29897398 
3121.971 29963142 30027224 30091530 30157090 30225144 30296016 30369744 
3125.346 30446148 30524840 30605540 30687712 30770752 30854200 30937274 
3128.722 31019472 31100298 31179500 31257010 31333144 31408258 31483278 
3132.097 31559236 31637560 31719286 31805448 31896442 31991984 32090790 
3135.472 32191514 32292436 32392566 32491214 32588530 32684974 32781192 
3138.847 32877746 32974936 33072144 33168982 33264230 33357464 33447958 
3142.223 33536036 33621808 33706236 33790608 33876356 33964916 34057368 
3145.598 34154604 34256560 34362520 34471264 34581116 34690496 34798140 
3148.973 34903732 35007228 35109560 35211740 35314556 35418472 35523316 
3152.348 35628504 35733180 35836912 35939584 36041424 36143496 36246460 
3155.724 36351284 36458044 36566416 36675828 36785408 36894548 37003068 
3159.099 37111324 37219608 37328676 37438708 37549784 37661752 37774332 
3162.474 37887444 38001096 38115204 38229744 38344532 38459204 38573076 
3165.849 38685636 38796560 38905592 39013016 39118876 39223412 39326712 
3169.225 39428908 39530296 39630836 39730708 39830096 39929032 40027120 
3172.600 40124176 40220020 40314720 40408352 40501416 40594104 40686448 
3175.975 40778048 40868392 40956824 41043016 41127116 41209624 41291060 
3179.350 41371884 41452476 41532712 41612496 41692032 41771736 41852652 
3182.726 41935560 42020812 42107732 42195464 42282344 42367156 42448844 
3186.101 42528024 42605320 42682152 42759476 42838092 42918220 42999464 
3189.476 43081784 43164812 43248916 43334248 43421248 43510384 43601772 
3192.851 43695860 43792420 43891236 43991104 44090296 44186320 44276720 
3196.227 44359756 44435064 44504000 44569528 44635148 44703708 44777204 
3199.602 44855560 44937536 45020992 45104540 45187480 45270068 45352784 
3202.977 45436432 45520868 45605248 45688616 45769972 45848800 45925400 
3206.352 46000244 46073704 46145776 46216124 46284532 46351144 46416328 
3209.728 46481188 46546908 46613632 46681036 46748152 46813576 46877060 
3213.103 46939332 47001872 47067004 47136804 47211672 47291320 47373828 
3216.478 47456832 47538524 47617344 47693180 47766336 47837392 47907164 
3219.853 47976320 48045488 48115476 48187256 48261712 48339108 48419376 
3223.229 48501392 48584128 48666364 48746836 48825544 48902524 48977920 
3226.604 49052216 49125708 49198284 49270464 49342552 49415016 49488124 
3229.979 49561916 49636236 49710316 49783584 49855712 49926668 49996780 
3233.354 50066156 50134764 50202304 50268140 50332464 50395640 50459240 
3236.729 50525004 50594432 50668040 50745380 50824896 50905208 50984940 
3240.105 51063944 51142888 51222548 51303232 51384792 51465732 51545004 
3243.480 51621796 51696508 51770416 51845752 51924012 52005760 52090068 
3246.855 52175400 52259884 52342592 52423524 52504248 52585880 52669512 
3250.230 52755108 52841732 52927956 53012592 53095520 53176664 53257152 
3253.606 53337692 53418696 53500316 53582024 53664052 53746688 53830544 
3256.981 53916184 54003484 54091256 54177956 54261408 54340444 54414536 
3260.356 54484396 54551568 54617920 54684616 54752380 54820980 54889816 
3263.731 54958472 55026580 55094512 55162560 55231452 55301668 55372952 
3267.107 55445380 55518684 55592716 55667512 55742996 55819100 55895448 
3270.482 55971764 56047304 56121768 56194996 56266992 56338284 56409740 
3273.857 56482524 56557624 56635876 56717460 56802456 56890416 56980852 
3277.232 57073420 57168316 57265840 57366712 57471204 57579084 57690136 
3280.608 57803180 57918036 58034324 58153216 58275820 58403800 58537616 
3283.983 58677016 58820748 58966992 59114348 59261908 59409896 59559456 
3287.358 59712260 59869452 60031996 60200188 60374196 60553992 60739724 
3290.733 60932024 61131040 61336792 61548784 61766652 61990088 62219076 
3294.109 62454644 62697620 62948844 63208500 63475892 63750288 64030424 
3297.484 64315736 64606040 64901924 65204100 65512916 65828464 66150492 
3300.859 66478676 66813284 67155080 67504992 67863984 68232352 68609400 
3304.234 68994480 69386192 69783976 70187584 70597800 71014840 71439672 
3307.610 71872536 72313072 72761728 73218312 73683384 74157360 74640432 
3310.985 75132192 75631776 76138120 76650808 77169904 77696480 78231472 
3314.360 78775744 79329128 79890704 80458920 81032464 81610728 82193840 
3317.735 82782352 83376400 83975600 84578568 85183664 85789088 86394336 
3321.111 86999216 87604336 88209728 88815152 89419432 90021080 90619080 
3324.486 91213768 91806128 92397656 92989240 93580048 94167448 94747776 
3327.861 95317280 95872704 96412624 96936560 97444752 97936928 98412544 
3331.236 98870624 99309992 99730248 100130624 100510920 100869424 101203344 
3334.612 101508888 101782608 102022160 102227688 102401968 102548600 
3337.505 102670504 102769016 102842072 102886120 102896568 102869696 
3340.398 102804408 102701520 102563192 102391568 102188064 101952432 
3343.291 101683096 101377512 101033968 100650384 100225312 99757504 99246528 
3346.666 98692264 98096376 97461752 96792776 96094352 95371096 94626544 
3350.041 93863160 93082512 92285520 91473344 90647776 89810088 88961888 
3353.417 88104072 87237968 86365032 85488672 84613232 83744136 82886760 
3356.792 82045288 81221336 80414776 79623960 78846896 78082720 77331920 
3360.167 76596296 75877936 75178520 74498768 73838176 73195800 72570392 
3363.542 71961608 71369168 70793304 70234168 69691960 69166416 68657952 
3366.917 68166792 67693688 67239080 66803044 66384464 65981144 65590596 
3370.293 65209724 64836220 64468608 64105844 63747488 63392764 63040436 
3373.668 62689460 62338048 61984704 61628052 61266772 60899044 60523860 
3377.043 60139488 59745452 59341708 58928968 58508536 58082120 57650820 
3380.418 57214656 56773188 56325384 55870160 55406416 54934148 54452812 
3383.794 53962624 53464116 52957712 52445060 51928532 51411012 50895932 
3387.169 50386788 49885668 49393444 48909936 48433784 47963108 47496308 
3390.544 47031852 46569332 46108672 45650664 45196708 44748520 44307832 
3393.919 43875620 43452044 43035720 42623708 42213432 41802048 41388980 
3397.295 40975284 40564128 40159320 39764296 39380692 39007868 38643696 
3400.670 38284240 37926240 37567416 37206576 36844520 36482228 36121496 
3404.045 35763260 35408804 35058912 34714436 34375824 34043212 33715764 
3407.420 33392240 33070822 32750066 32429658 32109630 31791616 31477578 
3410.796 31169176 30867362 30572192 30283084 29998714 29718254 29440884 
3414.171 29166454 28894746 28625900 28360012 28097648 27839502 27587126 
3417.546 27341918 27105028 26876622 26656336 26442534 26233130 26026466 
3420.921 25821166 25616772 25413528 25211890 25012170 24814398 24618228 
3424.297 24423162 24229516 24037634 23848500 23663016 23481738 23304626 
3427.672 23130906 22959562 22789612 22620114 22450192 22279568 22108142 
3431.047 21936014 21763504 21591410 21421088 21254280 21092856 20938238 
3434.422 20790802 20650016 20514000 20380388 20247132 20112666 19976160 
3437.798 19838134 19699080 19559756 19420270 19279998 19138456 18994916 
3441.173 18849452 18703760 18559638 18419746 18286294 18159654 18038888 
3444.548 17921506 17804016 17683278 17557574 17426558 17291514 17155202 
3447.923 17020242 16888390 16760264 16635273 16511969 16389046 16265571 
3451.299 16141478 16017113 15893366 15770514 15648728 15527731 15407213 
3454.674 15286799 15166725 15047097 14928291 14810408 14693791 14578543 
3458.049 14465002 14353684 14245167 14139622 14036703 13935416 13834119 
3461.424 13731443 13626843 13520558 13413788 13308342 13205346 13105141 
3464.800 13006836 12909100 12810636 12710829 12610431 12510943 12414580 
3468.175 12322466 12234631 12149914 12066202 11981076 11893344 11802906 
3471.550 11711057 11619261 11529119 11441546 11355964 11271453 11186584 
3474.925 11100168 11011391 10920253 10827436 10733891 10640910 10549782 
3478.301 10461660 10377186 10296564 10219077 10143740 10069232 9995006 
3481.676 9921200 9849033 9780573 9717545 9660759 9609875 9563265 9518049 
3485.533 9471957 9423262 9371594 9317392 9261776 9205692 9149583 9093278 
3489.391 9036473 8979133 8922343 8867352 8816494 8771524 8733320 8701779 
3493.248 8675683 8653103 8632451 8612409 8592570 8572834 8553808 8536134 
3497.105 8520725 8508055 8499336 8495113 8496296 8503323 8516232 8534444 
3500.963 8556984 8582330 8609671 8637927 8667368 8698433 8732306 8770577 
3504.820 8814702 8866135 8925522 8992461 9065737 9142985 9221431 9299044 
3508.678 9374471 9448252 9522384 9600085 9684171 9776642 9877912 9986394 
3512.535 10099617 10214768 10329612 10443365 10555791 10667158 10777637 
3515.910 10886548 10992598 11094321 11190732 11281417 11367290 11449337 
3519.286 11528303 11604118 11675317 11739072 11791296 11828101 11845944 
3522.661 11842913 11818363 11773457 11710274 11631854 11540109 11437294 
3526.036 11324062 11200421 11066314 10921782 10767584 10604646 10434745 
3529.411 10258972 10078183 9892895 9703144 9509920 9314312 9117944 8922681 
3533.269 8729804 8539074 8349779 8160060 7968263 7773482 7576091 7377779 
3537.126 7180601 6986880 6798025 6615306 6439459 6271851 6114018 5967833 
3540.984 5834760 5714720 5606058 5505175 5407636 5308409 5203940 5092288 
3544.841 4973056 4847659 4718144 4586994 4456552 4328627 4204888 4086769 
3548.698 3974969 3869048 3767899 3668879 3569380 3467232 3361668 3254161 
3552.556 3147548 3045899 2952248 2868389 2794050 2726759 2663746 2601575 
3556.413 2538080 2472529 2404988 2336358 2267473 2198865 2130500 2062480 
3560.271 1995569 1931097 1871294 1818919 1776431 1745591 1726696 1717781 
3564.128 1715086 1712392 1702080 1675802 1625978 1548160 1441666 1311535 
3567.986 1166624 1018474 877978 752628 646395 559430 488438 428933 375703 
3572.325 324536 272314 217877 161591 104583 48941 -4042 -52845 -96906 
3576.665 -136358 -171964 -204653 -235750 -266945 -298368 -330220 -361639 
3580.522 -391103 -417122 -438274 -453633 -462801 -465846 -462900 -454427 
3584.380 -441584 -426225 -412422 -405404 -411760 -437513 -485970 -556030 
3588.237 -641431 -732671 -819294 -892210 -946898 -982604 -1002604 -1011463 
3592.094 -1015827 -1020884 -1031165 -1049345 -1076283 -1111317 -1152561 
3595.470 -1196873 -1240950 -1280926 -1313961 -1338769 -1355813 -1367308 
3598.845 -1377580 -1391056 -1411136 -1439670 -1475533 -1515983 -1556693 
3602.220 -1593504 -1622917 -1642756 -1652460 -1652196 -1643383 -1628397 
3605.595 -1610175 -1593041 -1581949 -1581553 -1595682 -1625756 -1669393 
3608.971 -1721739 -1776289 -1826742 -1868709 -1901337 -1925583 -1944650 
3612.346 -1961901 -1979844 -1998710 -2017048 -2031592 -2038584 -2035385 
3615.721 -2021236 -1998150 -1970675 -1945870 -1932181 -1937162 -1965991 
3619.096 -2019027 -2091676 -2174765 -2257541 -2331140 -2388843 -2428186 
3622.472 -2449570 -2454611 -2445122 -2422058 -2385548 -2334831 -2269836 
3625.847 -2192601 -2108065 -2025392 -1958042 -1920767 -1927530 -1983901 
3629.222 -2083795 -2210106 -2341884 -2461793 -2559338 -2632424 -2684390 
3632.597 -2721599 -2750410 -2776090 -2801243 -2826163 -2849469 -2869318 
3635.973 -2884755 -2896440 -2905886 -2914838 -2924909 -2936494 -2949658 
3639.348 -2963941 -2979177 -2995664 -3013762 -3032912 -3051568 -3065386 
3642.723 -3069598 -3058872 -3029556 -2980658 -2914081 -2834623 -2748303 
3646.098 -2662129 -2582724 -2515921 -2467361 -2443112 -2448153 -2486601 
3649.474 -2559140 -2661075 -2781786 -2906149 -3018697 -3106017 -3160657 
3652.849 -3181446 -3172630 -3142499 -3102102 -3064169 -3039591 -3036202 
3656.224 -3055582 -3093253 -3139374 -3182728 -3214797 -3232129 -3235780 
3659.599 -3231044 -3224927 -3223809 -3230847 -3245383 -3263011 -3277809 
3662.975 -3283630 -3276625 -3255512 -3220257 -3171446 -3108156 -3028634 
3666.350 -2930076 -2810954 -2672305 -2517041 -2349101 -2170644 -1978723 
3669.725 -1762760 -1505516 -1188249 -793596 -308302 275663 962914 1750881 
3673.583 2624976 3539682 4410760 5120953 5537860 5571455 5207964 4507439 
3677.440 3570382 2502720 1402174 344332 -610231 -1416850 -2055502 -2527748 
3681.297 -2856020 -3072328 -3210784 -3298427 -3350544 -3374513 -3372639 
3684.673 -3346796 -3301946 -3246107 -3188748 -3139736 -3105787 -3090851 
3688.048 -3094536 -3113913 -3145164 -3185162 -3231834 -3284287 -3341042 
3691.423 -3399072 -3454234 -3501763 -3537818 -3560067 -3569367 -3568086 
3694.798 -3560461 -3551654 -3545081 -3542748 -3544194 -3546560 -3545837 
3698.174 -3538640 -3523291 -3500810 -3474876 -3450716 -3434247 -3429678 
3701.549 -3438356 -3458375 -3485658 -3514351 -3539527 -3557077 -3564898 
3704.924 -3561644 -3546987 -3521352 -3485658 -3441019 -3390064 -3335518 
3708.299 -3280571 -3229104 -3184636 -3151644 -3134670 -3138585 -3166808 
3711.675 -3220355 -3295139 -3383554 -3474153 -3555203 -3617837 -3657004 
3715.050 -3671625 -3665513 -3644321 -3613993 -3580442 -3547842 -3517901 
3718.425 -3490325 -3463832 -3436713 -3408047 -3377538 -3345514 -3313422 
3721.800 -3282347 -3253079 -3226473 -3203285 -3184143 -3170196 -3163355 
3725.176 -3165262 -3177038 -3198122 -3225387 -3253671 -3276263 -3286556 
3728.551 -3280111 -3255545 -3215422 -3165229 -3111445 -3060879 -3017579 
3731.926 -2982040 -2951600 -2922408 -2893346 -2867639 -2853386 -2860859 
3735.301 -2898941 -2970062 -3068314 -3180327 -3290864 -3387072 -3461761 
3738.677 -3512511 -3539921 -3544654 -3526643 -3484770 -3419586 -3334006 
3742.052 -3236964 -3143124 -3071045 -3040249 -3062261 -3132631 -3228841 
3745.427 -3320853 -3384606 -3408310 -3393647 -3349624 -3289319 -3226078 
3748.802 -3171446 -3134736 -3121874 -3135131 -3173683 -3235122 -3313915 
3752.177 -3402096 -3490128 -3567264 -3624869 -3659008 -3669719 -3661275 
3755.553 -3639918 -3612547 -3585273 -3562630 -3547283 -3540644 -3543569 
3758.928 -3556616 -3579325 -3610181 -3645044 -3678097 -3703164 -3715320 
3762.303 -3712429 -3696429 -3671953 -3645241 -3622701 -3608571 -3603182 
3765.678 -3603609 -3604431 -3600422 -3588986 -3571043 -3550865 -3535419 
3769.054 -3531508 -3543832 -3573147 -3616293 -3666762 -3716995 -3761145 
3772.429 -3795536 -3818889 -3831961 -3836329 -3833504 -3824374 -3809134 
3775.804 -3787883 -3761145 -3730825 -3700372 -3673957 -3656807 -3652535 
3779.179 -3662589 -3684931 -3714761 -3745772 -3771361 -3787160 -3791431 
3782.555 -3784598 -3769719 -3750634 -3731844 -3717061 -3708946 -3708388 
3785.930 -3714695 -3726259 -3740418 -3754674 -3767157 -3776387 -3781839 
3789.305 -3783942 -3783646 -3781938 -3780033 -3778095 -3775204 -3770179 
3792.680 -3761310 -3747447 -3728460 -3706088 -3682467 -3661209 -3644847 
3796.056 -3633938 -3625986 -3616457 -3598680 -3567560 -3520465 -3459920 
3799.431 -3393055 -3331046 -3287477 -3273994 -3294909 -3343837 -3405482 
3802.806 -3462221 -3499364 -3510144 -3496143 -3465607 -3430598 -3404595 
3806.181 -3399368 -3420539 -3465936 -3525723 -3587277 -3639458 -3675074 
3809.557 -3692356 -3692684 -3678885 -3653291 -3617640 -3572194 -3516784 
3812.932 -3452327 -3381647 -3309969 -3245679 -3197793 -3173091 -3172861 
3816.307 -3190951 -3214961 -3230650 -3227492 -3202167 -3158026 -3105228 
3819.682 -3057589 -3031201 -3037420 -3079172 -3148355 -3229597 -3305563 
3823.058 -3363367 -3398348 -3412452 -3412550 -3406699 -3402852 -3406140 
3826.433 -3418106 -3436811 -3457159 -3474350 -3483554 -3482272 -3470078 
3829.808 -3448711 -3420769 -3389866 -3359356 -3331244 -3306484 -3284024 
3833.183 -3261991 -3237885 -3209370 -3175656 -3137368 -3096542 -3056668 
3836.559 -3022054 -2997079 -2984376 -2985430 -2999908 -3025278 -3058543 
3839.934 -3097069 -3138124 -3179867 -3221506 -3262912 -3304478 -3347256 
3843.309 -3392069 -3439277 -3487597 -3535057 -3578076 -3612744 -3635548 
3846.684 -3643401 -3634990 -3609097 -3565292 -3502815 -3421492 -3321478 
3850.060 -3204568 -3076507 -2946301 -2828171 -2740993 -2704049 -2730391 
3853.435 -2819579 -2954035 -3106149 -3248508 -3364781 -3449895 -3507022 
3856.810 -3541630 -3560067 -3566180 -3561447 -3546363 -3520991 -3485395 
3860.185 -3441446 -3391444 -3338905 -3287313 -3240976 -3203516 -3179538 
3863.561 -3172466 -3184011 -3212297 -3250974 -3289976 -3317664 -3324832 
3866.936 -3307207 -3267549 -3214337 -3160887 -3122334 -3108945 -3124209 
3870.311 -3161151 -3206805 -3247291 -3274225 -3287017 -3291423 -3296553 
3873.686 -3310989 -3339300 -3379905 -3425766 -3466955 -3494039 -3501665 
3877.062 -3488320 -3456732 -3413142 -3366030 -3323845 -3295007 -3284550 
3880.437 -3292969 -3315625 -3343673 -3367313 -3377998 -3371324 -3348243 
3883.812 -3315165 -3282742 -3261892 -3261268 -3283202 -3321215 -3363038 
3887.187 -3395916 -3410709 -3404135 -3379444 -3343935 -3307503 -3278993 
3890.563 -3264918 -3266924 -3282808 -3306484 -3331408 -3352550 -3366589 
3893.938 -3372244 -3369252 -3358106 -3339300 -3313521 -3281821 -3245548 
3897.313 -3206443 -3166348 -3127071 -3090325 -3057227 -3028634 -3005535 
3900.688 -2988687 -2978749 -2977367 -2985956 -3005667 -3037782 -3082166 
3904.063 -3136940 -3198977 -3263307 -3324865 -3378754 -3421558 -3451505 
3907.439 -3468598 -3474449 -3471031 -3461663 -3448974 -3435562 -3423465 
3910.814 -3413537 -3405680 -3398480 -3389801 -3377176 -3358205 -3332427 
3914.189 -3300466 -3265773 -3232327 -3204930 -3187202 -3180689 -3184340 
3917.564 -3195194 -3209929 -3225124 -3238872 -3250612 -3259788 -3265674 
3920.940 -3267220 -3263208 -3253145 -3237984 -3220553 -3204897 -3194964 
3924.315 -3193681 -3200917 -3214501 -3229762 -3242720 -3250152 -3251435 
3927.690 -3247554 -3240549 -3232393 -3224072 -3215882 -3207824 -3200227 
3931.065 -3194668 -3193747 -3199503 -3213416 -3234530 -3260347 -3286556 
3934.441 -3309443 -3326213 -3335748 -3339004 -3337294 -3332625 -3326476 
3937.816 -3319111 -3310528 -3300367 -3288595 -3275968 -3263537 -3252947 
3941.191 -3245942 -3243640 -3246370 -3253243 -3262945 -3272876 -3280341 
3944.566 -3283136 -3280012 -3270509 -3256269 -3239464 -3222789 -3209041 
3947.942 -3200424 -3197530 -3200621 -3208647 -3220092 -3233774 -3248310 
3951.317 -3262254 -3274159 -3282906 -3287214 -3286918 -3282380 -3274816 
3954.692 -3266135 -3257913 -3251336 -3246732 -3243574 -3241075 -3238082 
3958.067 -3234169 -3229038 -3222625 -3215389 -3207364 -3198812 -3189833 
3961.443 -3180623 -3172038 -3164802 -3159210 -3155230 -3152829 -3151085 
3964.818 -3149243 -3147171 -3144539 -3141414 -3138124 -3134736 -3130986 
3968.193 -3126677 -3121972 -3117301 -3113353 -3111149 -3110787 -3112432 
3971.568 -3114933 -3116841 -3116446 -3112893 -3105688 -3095720 -3084304 
3974.944 -3072493 -3061340 -3051469 -3042684 -3035215 -3028898 -3023534 
3978.319 -3019586 -3016822 -3015176 -3014124 -3013729 -3013465 -3013268 
3981.694 -3013202 -3013104 -3012906 -3012544 -3012084 -3011886 -3012807 
3985.069 -3015835 -3021856 -3030938 -3041993 -3053147 -3062162 -3067196 
3988.445 -3067591 -3064005 -3058675 -3053772 -3051469 -3052686 -3056700 
3991.820 -3062359 -3067558 -3070782 -3071703 -3070683 -3068677 -3066999 
3995.195 -3066571 -3067558 -3070321 -3074599 -3080093 -3086739 -3094273 
3998.570 -3102300 -3110129 -3117038 -3122203 -3125163 
##END=
