
##TITLE=Z357a_2_a
##JCAMP-DX=5.01  $$ Nicolet v. 1
##DATATYPE=INFRARED SPECTRUM
##ORIGIN=UniL
##OWNER=Nicolet
##LONGDATE=2011/09/22
##TIME=09:12:18
##SPECTROMETER/DATA SYSTEM=Nicolet iS5
##DATA PROCESSING=
Ratio against background
%Transmittance->Absorbance
Truncated
ElementMultiply or ElementDivide
##COMMENTS=
Number of sample scans: 32
Collection length: 51.21 sec
Sample gain: 2.0
Background collected on: Jeu Sep 22 09:10:47 2011 (GMT+02:00);
Number of background scans: 32
Background gain: 2.0
Sample spacing:  1.000
Number of scan points: 12415
Resolution points: 8192
Number of FFT points: 65536
Apodization: N-B fort;
Phase correction: Mertz;
Laser frequency: 15798.0 cm-1
Number of rejected sample scans: 0
Number of rejected background scans: 0
Bench serial number: ASB1000141;
##RESOLUTION=4.000
##XUNITS=1/CM
##YUNITS=ABSORBANCE
##FIRSTX=649.893372
##LASTX=4000.122314
##FIRSTY=0.095436
##MAXX=4000.122314
##MINX=649.893372
##MAXY=0.286685
##MINY=-0.003697
##XFACTOR=1.000000
##YFACTOR=1.000000E-009
##NPOINTS=6950
##DELTAX=0.482117
##ZPD=6100
##XYDATA=(X++(Y..Y))
649.893 95436312 95138472 94879720 94692480 94586496 94548480 94552192 
653.268 94579088 94632312 94739776 94941512 95272136 95746912 96354384 
656.643 97066928 97856600 98711592 99639960 100662616 101797048 103049744 
660.018 104413680 105878680 107446696 109138880 110986728 113018688 
662.911 115234848 117600440 120046696 122499600 124899688 127201496 
665.803 129374104 131370976 133099736 134425424 135205184 135360672 
668.696 134924976 134013816 132753376 131222768 129450384 127436384 
671.589 125185416 122734608 120159680 117554832 115017552 112614160 
674.481 110369984 108280912 106329208 104502008 102798192 101225976 99791896 
677.856 98490480 97302080 96196560 95141240 94112296 93098152 92098656 
681.231 91119192 90165216 89238920 88338480 87462384 86612576 85793848 
684.606 85014176 84279832 83592888 82950448 82346408 81774328 81228928 
687.981 80707584 80208672 79728408 79260040 78793104 78315344 77816760 
691.355 77290904 76736592 76157712 75560432 74952448 74342080 73738896 
694.730 73155488 72606616 72109480 71680296 71330000 71063856 70878952 
698.105 70767400 70718152 70721312 70771112 70866040 71007976 71199056 
701.480 71438456 71720624 72035400 72369272 72710056 73049424 73383568 
704.855 73712792 74039664 74366032 74692136 75017064 75340632 75664904 
708.229 75995976 76344040 76721408 77144768 77635224 78218024 78926680 
711.604 79795856 80854288 82114056 83556496 85123240 86711720 88197472 
714.979 89447192 90347208 90835280 90906232 90618096 90072208 89407056 
718.354 88775072 88316624 88165272 88425184 89158240 90375480 92016656 
721.729 93947968 95950720 97761480 99113960 99774600 99615072 98635288 
725.104 96971352 94853000 92560200 90365648 88461216 86954888 85864296 
728.478 85143360 84712168 84488200 84409000 84429648 84521488 84664528 
731.853 84837904 85021192 85198824 85362824 85515864 85667952 85831072 
735.228 86012112 86210272 86417944 86626168 86828456 87024480 87219496 
738.603 87420448 87632552 87856928 88090432 88328080 88566880 88805680 
741.978 89045752 89288440 89533800 89780016 90025848 90271944 90521976 
745.352 90781416 91053760 91336752 91621024 91890944 92130360 92327936 
748.727 92481080 92596704 92687056 92765072 92837528 92904984 92963184 
752.102 93007432 93036616 93055248 93070400 93089576 93116424 93150016 
755.477 93186560 93223392 93261456 93306560 93367152 93450304 93559864 
758.852 93695432 93854272 94033832 94234624 94458896 94708832 94983448 
762.227 95277304 95581544 95889232 96199904 96525368 96890176 97333176 
765.601 97903512 98650928 99623200 100850448 102330712 104014592 105796736 
768.976 107523800 109000792 110047096 110539240 110452960 109885032 
771.869 109038192 108179096 107539680 107263456 107349016 107654544 
774.762 107927312 107880040 107294888 106063992 104228680 101943840 99435400 
778.136 96923184 94561088 92429624 90527768 88803160 87180128 85592608 
781.511 83999960 82388624 80769240 79166760 77614072 76142744 74781592 
784.886 73555488 72481544 71570568 70827072 70250328 69836896 69583904 
788.261 69490696 69560920 69800904 70218432 70822240 71620896 72624200 
791.636 73844608 75298576 77005296 78985024 81251736 83807424 86634416 
795.010 89693488 92922304 96235016 99538480 102734768 105734896 108480264 
798.385 110952024 113186840 115272736 117349616 119579744 122102200 
801.278 125003456 128263592 131737144 135126608 138025328 139992640 
804.171 140603200 139585456 136883392 132688296 127392712 121505600 
807.063 115554712 109929712 104846624 100321848 96214384 92297408 88345792 
810.438 84223560 79903136 75469440 71068024 66868708 63010512 59573060 
813.813 56583820 54023708 51849408 50007632 48448748 47131300 46017708 
817.188 45077232 44283944 43616684 43061768 42611280 42261236 42008660 
820.563 41849260 41777352 41787384 41875932 42043740 42295016 42636460 
823.938 43074428 43612836 44253088 44993688 45829948 46751508 47741148 
827.312 48772380 49807884 50806720 51732040 52560564 53294912 53968780 
830.687 54650156 55428140 56407928 57697436 59381256 61509232 64070628 
834.062 66980920 70059352 73031432 75575184 77328320 77977040 77331208 
837.437 75355288 72197040 68142296 63579984 58898380 54423288 50401224 
840.812 46959636 44131996 41882356 40137004 38808880 37812176 37077364 
844.186 36545044 36166148 35904388 35731420 35629260 35588548 35604696 
847.561 35673828 35789956 35943760 36124808 36325200 36541764 36777620 
850.936 37039188 37333908 37665764 38034832 38438244 38872756 39337668 
854.311 39836308 40374564 40959848 41599732 42300680 43070552 43920824 
857.686 44866400 45928164 47131080 48500648 50066004 51858592 53911380 
861.060 56260996 58937616 61953556 65284148 68852424 72519880 76075632 
864.435 79273840 81858408 83596096 84337888 84034536 82755648 80668328 
867.810 78022520 75110760 72203304 69543856 67314216 65619572 64508700 
871.185 63976712 63983472 64460500 65321468 66469336 67785856 69144112 
874.560 70414344 71464040 72186752 72512480 72418320 71933568 71132152 
877.935 70122160 69015184 67916984 66907896 66028164 65280536 64632460 
881.309 64032652 63421020 62748304 61990356 61151484 60263948 59376504 
884.684 58546036 57820064 57228984 56785540 56486980 56322968 56283172 
888.059 56362880 56564420 56894040 57357032 57954608 58681344 59527192 
891.434 60479988 61529012 62667720 63893600 65207028 66609444 68100664 
894.809 69677616 71331568 73043664 74780640 76492280 78103736 79525064 
898.183 80661064 81418640 81732736 81574736 80959872 79943120 78611072 
901.558 77073152 75436760 73806520 72273816 70905328 69750240 68838528 
904.933 68182952 67785968 67643968 67750920 68101784 68693424 69524648 
908.308 70594832 71903304 73448352 75227808 77240120 79483560 81955000 
911.683 84646968 87542640 90612424 93816648 97107744 100438296 103775520 
915.058 107106456 110444928 113828080 117313360 120964680 124835104 
917.950 128955024 133309600 137827744 142358448 146676624 150504656 
920.843 153517744 155425328 156028032 155270000 153283776 150388928 
923.736 147081120 143919056 141484944 140305456 140734672 142939152 
926.628 146839264 152129280 158266560 164537696 170207200 174541040 
929.521 176970672 177181344 175103744 170904064 164894816 157482560 
932.414 149078400 140062256 130799352 121604672 112754856 104501384 97033744 
935.789 90492304 84966632 80489344 77057088 74640120 73195128 72667720 
939.163 72985176 74052432 75725368 77805224 80058720 82207696 83980104 
942.538 85155856 85578320 85194800 84052472 82290544 80102080 77697784 
945.913 75286168 73027360 71030840 69355760 68013544 66984788 66232032 
949.288 65714472 65391412 65226352 65188968 65250724 65385864 65573020 
952.663 65795192 66042236 66311276 66603884 66923744 67272928 67650744 
956.037 68053416 68476712 68917352 69374640 69850128 70345920 70862144 
959.412 71396856 71946040 72506248 73075928 73656880 74253304 74869528 
962.787 75508152 76168448 76847352 77540776 78246504 78964632 79697760 
966.162 80448472 81218304 82006144 82809576 83626224 84456008 85301560 
969.537 86167560 87058328 87975712 88918664 89884416 90870368 91876784 
972.912 92907040 93966856 95061344 96193128 97361120 98562192 99793824 
976.286 101056416 102354080 103693984 105083368 106527552 108028984 
979.179 109589488 111212328 112905576 114682600 116559344 118550960 
982.072 120668368 122915296 125288072 127775864 130361856 133019744 
984.964 135708208 138371360 140930336 143288192 145347376 147012608 
987.857 148213600 148916496 149127200 148891760 148286544 147418448 
990.750 146405872 145368624 144427120 143680096 143201472 143038432 
993.643 143206960 143699840 144493760 145561488 146876400 148417248 
996.535 150168896 152117232 154246496 156540016 158978544 161543744 
999.428 164220144 166990752 169833344 172716352 175591808 178400800 
1002.321 181081888 183576528 185845536 187872272 189665488 191254768 
1005.213 192686560 194022816 195331088 196685680 198163632 199829264 
1008.106 201733552 203904512 206344832 209036304 211946384 215041296 
1010.999 218285792 221648112 225097120 228592720 232088256 235533888 
1013.891 238880384 242091504 245145760 248030048 250729888 253214784 
1016.784 255428048 257293824 258725616 259646064 260011520 259823360 
1019.677 259135664 258045312 256693328 255250448 253889616 252791904 
1022.570 252117456 251983072 252463792 253576720 255289584 257526752 
1025.462 260190256 263177392 266379712 269695552 273022368 276242400 
1028.355 279233184 281866112 284014528 285578528 286483840 286685120 
1031.249 286162432 284911520 282941024 280273376 276950720 273037152 
1034.142 268610496 263759936 258570048 253109632 247438496 241608448 
1037.035 235671584 229693280 223747840 217914416 212276224 206905024 
1039.928 201861280 197195472 192938880 189102400 185664672 182565392 
1042.821 179693200 176886624 173965856 170739920 167051600 162815840 
1045.714 158027744 152771648 147194336 141493200 135873008 130513088 
1048.607 125567584 121139072 117280592 114006096 111294560 109102544 
1051.500 107372520 106046056 105067624 104387048 103963312 103758184 
1054.393 103730712 103836456 104019560 104214192 104353888 104370488 
1057.286 104205432 103817392 103181920 102297752 101185064 99888264 98472600 
1060.661 97017176 95616480 94363440 93341968 92625608 92264544 92287656 
1064.037 92702560 93497232 94639816 96077824 97743224 99546232 101379024 
1067.412 103132936 104696904 105975680 106904920 107448304 107601560 
1070.305 107384360 106833944 105994720 104910528 103624320 102172768 
1073.198 100586592 98895048 97126512 95313120 93496416 91724600 90054384 
1076.573 88548880 87264744 86252256 85547536 85167096 85109176 85352176 
1079.948 85858888 86573384 87424136 88331616 89202912 89947176 90489528 
1083.324 90777208 90797424 90579232 90196160 89751704 89364840 89163680 
1086.699 89257760 89734720 90653200 92034264 93861352 96077368 98594416 
1090.074 101290568 104021960 106649312 109038488 111082568 112713968 
1092.967 113897760 114631552 114934224 114840072 114389984 113626976 
1095.860 112600760 111364440 109976360 108505712 107022848 105595648 
1098.753 104282600 103115200 102090688 101162400 100247888 99231200 97983848 
1102.129 96399016 94403256 91981688 89179632 86099968 82885000 79683984 
1105.504 76650088 73910600 71555328 69644040 68201136 67224432 66692500 
1108.879 66572092 66823020 67397560 68246304 69315640 70544232 71869248 
1112.254 73219136 74515520 75683640 76650016 77353264 77754136 77834952 
1115.630 77602936 77083872 76320144 75361360 74257360 73058128 71806776 
1119.005 70537384 69277320 68043384 66844940 65685832 64567596 63492000 
1122.380 62463864 61490412 60580504 59741308 58975948 58281692 57651384 
1125.755 57076784 56552644 56081272 55673196 55348040 55129908 55040496 
1129.131 55096576 55303364 55653500 56125688 56687368 57297712 57907356 
1132.506 58467708 58934960 59274364 59470192 59527420 59473348 59350484 
1135.881 59212540 59114428 59098748 59193668 59405680 59720056 60101968 
1139.256 60501352 60862336 61123644 61229536 61136684 60813548 60245296 
1142.632 59432464 58388032 57134416 55700320 54120792 52432200 50673140 
1146.007 48883832 47101236 45359036 43686624 42104700 40627576 39262876 
1149.382 38012812 36876440 35851664 34936296 34127796 33423696 32820604 
1152.757 32314212 31900186 31574666 31335172 31180676 31110976 31125746 
1156.133 31224110 31404768 31666074 32007712 32430764 32937866 33532206 
1159.508 34216084 34990272 35853216 36801496 37829600 38930088 40091616 
1162.883 41297472 42525688 43746608 44925924 46029236 47020996 47871016 
1166.258 48555596 49056592 49364228 49476056 49398088 49143480 48732676 
1169.634 48191996 47548760 46831516 46067404 45279704 44490272 43719420 
1173.009 42985416 42306740 41700864 41181868 40762072 40449476 40248920 
1176.384 40163720 40196648 40351368 40633104 41047968 41602360 42302832 
1179.759 43155556 44167320 45346232 46700920 48240904 49975844 51913184 
1183.135 54058416 56413396 58975000 61731204 64655416 67705192 70811432 
1186.510 73880160 76802704 79451496 81701536 83446184 84598544 85109896 
1189.885 84970944 84213584 82904208 81136096 79023728 76680248 74214984 
1193.260 71727928 69296552 66982932 64832604 62872632 61117424 59569336 
1196.635 58220952 57056452 56053600 55187016 54426180 53739412 53095856 
1200.011 52463532 51813644 51122232 50370040 49547024 48652876 47698324 
1203.386 46703320 45694908 44704332 43760056 42886220 42100208 41410520 
1206.761 40819428 40324208 39919880 39599764 39356676 39183380 39071452 
1210.136 39012652 39000220 39029724 39100672 39216452 39383668 39610220 
1213.512 39902988 40267640 40707116 41222084 41810952 42469632 43191492 
1216.887 43965952 44780476 45620556 46471824 47323316 48167448 49000468 
1220.262 49821596 50631960 51434064 52231484 53031572 53845176 54686496 
1223.637 55573132 56521508 57544016 58646636 59827168 61075360 62372588 
1227.013 63695768 65016404 66301508 67519120 68637776 69631168 70483592 
1230.388 71191016 71763224 72221304 72599136 72939864 73292440 73716008 
1233.763 74275512 75036600 76069704 77439976 79201752 81400736 84066184 
1237.138 87212864 90841816 94941144 99485192 104429480 109714672 115259696 
1240.514 120962312 126715928 132405224 137916624 143149920 148008608 
1243.407 152403520 156257040 159496736 162062528 163909584 165004688 
1246.300 165328144 164872000 163640784 161654848 158952016 155590176 
1249.193 151637952 147165984 142240336 136911280 131218016 125197080 
1252.086 118890656 112359712 105691064 98986552 92367072 85959160 79873504 
1255.461 74209904 69041280 64406192 60314840 56746984 53660752 50995452 
1258.836 48682452 46652220 44833336 43163864 41593280 40081916 38606244 
1262.212 37156148 35732140 34341828 32996382 31707204 30483468 29332572 
1265.587 28259962 27269196 26362500 25539210 24796192 24126944 23523326 
1268.962 22978076 22485784 22044414 21655106 21320954 21045102 20829594 
1272.337 20675870 20585460 20561002 20607314 20729560 20931910 21214754 
1275.713 21572466 21992128 22452146 22925958 23379938 23777098 24083022 
1279.088 24266058 24305442 24194902 23943862 23576250 23123708 22622208 
1282.463 22101726 21583192 21078492 20591576 20123598 19677306 19259076 
1285.838 18878762 18548124 18276894 18071770 17936008 17871128 17878620 
1289.214 17961078 18121342 18361432 18680548 19074296 19534038 20048570 
1292.589 20604638 21185284 21770436 22336702 22856594 23304068 23659412 
1295.964 23913228 24070940 24151534 24186180 24208950 24254320 24352542 
1299.339 24525556 24788966 25150970 25610938 26157110 26763276 27391216 
1302.715 27988470 28497094 28865178 29049462 29025690 28790572 28360048 
1306.090 27765074 27045606 26248792 25420344 24602064 23831558 23135696 
1309.465 22531044 22023568 21610318 21283024 21032200 20850696 20734670 
1312.840 20682368 20692618 20762160 20885738 21057554 21272860 21530126 
1316.216 21830606 22176342 22567758 23001170 23469042 23961788 24471184 
1319.591 24992128 25523642 26066292 26619098 27176450 27726398 28250734 
1322.966 28729894 29144590 29480244 29730530 29899706 30003116 30066104 
1326.341 30124486 30219212 30388328 30663888 31061964 31579654 32194584 
1329.717 32871708 33572084 34259716 34911844 35519612 36087004 36625716 
1333.092 37150376 37674692 38208904 38760548 39334876 39934812 40560456 
1336.467 41208096 41870460 42536720 43195044 43835120 44448128 45028160 
1339.842 45570652 46071972 46529060 46940552 47307944 47636200 47933432 
1343.218 48209176 48471976 48727264 48977140 49221148 49457712 49686052 
1346.593 49905328 50111448 50292544 50427160 50481312 50412200 50179872 
1349.968 49751108 49111572 48270304 47261800 46141020 44974464 43838892 
1353.343 42806096 41937492 41282348 40867844 40698016 40751624 40987012 
1356.719 41346668 41765024 42184072 42555032 42844236 43035828 43128400 
1360.094 43134988 43080172 43003596 42956408 42994344 43174656 43539208 
1363.469 44103024 44849904 45733304 46686272 47624848 48464380 49124520 
1366.844 49530568 49630332 49397272 48838148 47991304 46921948 45710808 
1370.219 44433668 43158848 41938804 40807020 39788260 38903088 38171892 
1373.595 37618504 37263904 37119012 37178168 37419024 37810116 38318404 
1376.970 38921280 39610764 40393332 41287744 42321280 43529684 44952344 
1380.345 46633740 48615632 50920264 53530336 56363936 59276036 62047496 
1383.720 64415344 66126652 66946052 66712052 65369228 62998488 59826636 
1387.096 56184100 52464540 49005960 46030600 43637272 41811536 40473992 
1390.471 39517124 38839316 38352132 37982612 37676752 37391652 37096596 
1393.846 36776000 36428532 36066084 35706308 35365488 35051908 34764864 
1397.221 34498352 34246772 34011068 33801140 33634840 33531848 33509370 
1400.597 33575876 33731300 33968896 34279616 34654032 35084236 35565424 
1403.972 36094492 36669588 37288056 37945876 38636924 39355116 40095868 
1407.347 40857908 41643568 42457904 43305696 44190248 45111564 46067512 
1410.722 47054784 48069320 49104932 50149640 51179864 52161536 53052796 
1414.098 53811828 54413072 54854548 55163880 55389928 55598852 55861268 
1417.473 56238328 56776968 57498700 58392508 59415824 60504248 61590288 
1420.848 62613672 63533268 64330800 65010176 65601616 66157640 66748524 
1424.223 67439976 68274688 69260880 70371752 71559864 72772464 73970120 
1427.599 75127744 76235864 77296448 78319872 79323520 80332088 81382192 
1430.974 82519632 83788296 85225480 86849008 88657608 90634384 92762568 
1434.349 95037512 97469424 100082600 102900024 105924680 109122096 112428816 
1437.724 115775696 119104144 122368928 125521880 128501880 131211208 
1440.617 133517192 135279680 136352448 136614416 135990768 134452336 
1443.510 132026640 128795120 124899504 120523288 115864552 111136872 
1446.404 106531784 102212336 98316888 94936112 92105496 89796848 87933112 
1449.779 86411392 85135216 84049336 83148344 82473432 82082792 82024632 
1453.154 82305920 82886240 83677960 84565040 85430704 86163840 86697280 
1456.529 87033752 87262120 87522456 87947760 88637208 89635776 90956312 
1459.905 92596048 94538968 96752112 99173488 101718440 104262760 106643040 
1463.280 108687088 110224672 111142864 111429480 111187248 110600312 
1466.173 109860496 109134416 108527696 108088864 107831448 107741120 
1469.066 107781928 107887296 107957440 107858376 107425688 106514384 
1471.959 105048936 103073024 100745224 98285640 95897584 93708504 91781448 
1475.334 90141720 88803768 87790088 87123152 86806480 86813312 87083632 
1478.709 87540576 88101920 88703416 89311152 89920928 90555928 91254360 
1482.085 92062240 93023600 94182800 95592536 97311824 99404376 101924528 
1485.460 104895008 108281464 111967496 115764536 119394592 122514408 
1488.353 124772120 125817672 125383840 123360896 119833176 115083456 
1491.246 109506936 103529608 97491744 91603016 85978344 80648616 75616712 
1494.621 70909304 66586428 62749492 59517124 56980888 55173772 54060332 
1497.997 53564480 53591848 54055716 54889964 56039804 57456792 59094720 
1501.372 60900076 62813236 64773524 66700576 68495840 70033888 71131448 
1504.747 71558376 71059440 69426040 66623852 62876956 58622252 54306612 
1508.122 50229228 46498116 43092320 39950540 37026484 34303460 31799104 
1511.498 29544788 27561812 25855242 24409176 23195248 22182270 21342740 
1514.873 20653596 20091530 19632618 19255718 18945488 18699194 18524782 
1518.248 18432814 18427422 18500440 18629634 18788034 18954036 19125436 
1521.623 19321668 19575458 19912708 20337922 20837554 21388404 21972226 
1524.999 22581264 23223664 23917848 24684966 25537066 26472888 27480546 
1528.374 28545568 29657728 30814644 32022550 33292312 34635408 36062160 
1531.749 37578364 39183308 40868680 42615736 44397188 46181040 47939540 
1535.124 49651248 51301892 52874552 54347992 55699756 56898120 57912432 
1538.500 58715704 59289408 59623192 59714468 59574316 59226592 58709256 
1541.875 58065832 57329660 56514072 55608528 54590000 53441028 52170692 
1545.250 50819756 49453372 48133504 46890716 45720016 44585060 43441900 
1548.625 42261600 41051720 39855156 38737220 37751704 36919440 36225104 
1552.000 35631204 35100076 34610684 34167544 33793868 33514418 33335778 
1555.376 33237618 33173096 33081334 32889790 32521460 31911884 31031678 
1558.751 29923772 28707662 27532614 26505430 25660288 24976090 24406268 
1562.126 23900238 23412248 22907796 22369180 21799980 21223452 20674306 
1565.501 20185898 19773040 19429142 19129036 18841804 18540654 18213968 
1568.877 17868920 17528732 17221698 16968110 16774865 16637303 16545940 
1572.252 16491285 16464818 16457591 16456043 16442278 16397338 16308984 
1575.627 16182197 16041934 15926190 15865529 15870992 15932584 16029317 
1579.002 16139416 16247718 16349684 16449125 16553616 16669460 16797974 
1582.378 16935138 17074932 17211630 17342272 17465294 17577654 17672478 
1585.753 17739364 17766630 17747268 17683036 17586968 17479918 17386862 
1589.128 17331686 17330962 17395138 17528904 17733152 18004350 18331984 
1592.503 18696668 19066402 19399552 19654840 19795928 19802482 19675260 
1595.879 19434894 19116086 18756792 18394650 18059094 17771774 17550778 
1599.254 17410106 17360478 17408280 17553814 17791382 18111772 18505766 
1602.629 18965632 19484168 20052490 20654846 21265588 21852242 22375076 
1606.004 22793978 23076464 23198254 23149428 22932666 22562244 22058776 
1609.380 21446222 20752638 20008424 19246470 18503032 17808090 17182398 
1612.755 16633481 16154822 15729904 15337802 14959464 14580598 14196311 
1616.130 13813390 13448407 13123855 12859507 12667945 12551834 12504736 
1619.505 12513739 12561485 12630932 12706393 12779822 12852613 12936306 
1622.881 13046886 13197524 13392635 13626330 13887621 14165843 14456027 
1626.256 14758643 15075740 15407453 15747873 16085669 16409243 16711157 
1629.631 16992022 17259416 17523420 17790758 18060890 18324932 18567902 
1633.006 18773294 18924756 19011256 19028632 18981832 18883226 18751812 
1636.382 18606706 18461992 18324242 18191958 18057782 17910352 17736430 
1639.757 17526318 17276412 16992608 16688121 16380753 16084604 15805494 
1643.132 15538823 15270771 14983162 14657976 14284578 13864838 13414574 
1646.507 12961567 12537714 12171075 11877918 11662179 11518197 11433518 
1649.883 11390284 11363889 11323518 11228914 11038852 10731547 10329510 
1653.258 9906725 9548158 9303648 9169177 9109891 9085225 9064620 9031432 
1657.115 8980114 8913718 8838371 8759690 8679435 8595004 8501837 8395280 
1660.973 8272672 8134333 7983079 7823781 7663023 7507685 7365444 7242757 
1664.830 7143076 7066386 7007420 6956880 6901767 6828720 6727923 6595929 
1668.688 6437676 6265228 6094428 5938105 5803966 5693536 5604346 5530981 
1672.545 5465680 5399249 5320216 5217287 5083940 4923590 4751206 4587865 
1676.402 4452502 4353191 4285458 4236639 4191806 4140656 4080347 4017204 
1680.260 3961961 3924446 3906024 3897732 3879479 3827496 3722179 3560861 
1684.117 3364707 3173014 3021442 2924693 2876293 2858249 2852646 2846242 
1687.975 2832235 2808790 2776776 2738229 2695451 2651811 2613009 2584976 
1691.832 2573543 2580209 2600642 2623776 2634110 2615975 2560711 2473695 
1695.689 2375868 2296018 2253850 2252484 2277598 2305678 2309808 2268205 
1699.547 2173322 2037945 1894023 1774834 1699851 1667420 1663362 1670081 
1703.404 1672642 1661200 1630435 1580450 1515874 1444824 1375416 1314360 
1707.262 1265275 1228457 1201477 1180777 1162604 1145063 1127987 1113570 
1711.119 1104634 1103272 1109883 1122639 1138153 1153235 1165760 1175063 
1714.977 1181010 1182704 1177222 1160445 1129615 1086331 1038734 999477 
1718.834 979651 985097 1014323 1060688 1115364 1170578 1221978 1269163 
1722.691 1314692 1362054 1413941 1470856 1531003 1592056 1652585 1712325 
1726.549 1771474 1829267 1883074 1928069 1959387 1974432 1973866 1962316 
1730.406 1945109 1925206 1899780 1859082 1787843 1672609 1508592 1309009 
1734.264 1103538 927616 804078 736099 711008 709714 715024 713663 698994 
1738.603 670122 630998 588162 547852 514943 491921 479648 478321 487343 
1742.943 505322 529838 557971 586902 615204 642347 668596 693717 715887 
1747.282 731884 737361 729063 705067 665874 613810 552795 486945 420674 
1751.622 358791 305636 264490 237271 222485 216054 210584 198385 172463 
1755.962 130600 76049 17130 -36147 -76963 -104525 -123473 -142055 -168785 
1760.301 -209422 -264527 -329955 -398154 -461444 -514531 -554839 -583231 
1764.159 -601595 -612018 -617609 -621811 -628363 -641134 -661778 -688575 
1768.016 -716594 -739187 -751690 -753708 -750301 -750136 -762671 -793663 
1771.874 -841550 -897071 -946865 -980951 -995364 -993513 -982306 -968355 
1775.731 -955230 -942633 -928152 -909834 -887978 -866121 -849322 -841782 
1779.588 -844560 -854778 -866782 -874487 -875214 -869890 -862681 -857986 
1783.446 -858879 -864930 -873098 -879348 -880836 -877066 -869427 -859738 
1787.303 -848859 -836127 -819955 -800112 -778779 -760389 -751889 -759298 
1791.161 -785493 -827826 -878885 -929441 -971463 -1001447 -1020620 -1032156 
1795.018 -1039726 -1045411 -1049907 -1053113 -1055790 -1059559 -1066731 
1798.393 -1078993 -1096841 -1118323 -1140267 -1158971 -1172024 -1179063 
1801.769 -1181178 -1179823 -1175791 -1169050 -1158773 -1144828 -1128106 
1805.144 -1110623 -1094528 -1081208 -1070301 -1059988 -1047990 -1033181 
1808.519 -1016587 -1000753 -989513 -985381 -988753 -997182 -1007001 -1014736 
1812.376 -1018504 -1019232 -1018571 -1018769 -1020355 -1021810 -1020157 
1815.752 -1012521 -996356 -971661 -939625 -902428 -862119 -819757 -776001 
1819.609 -731579 -687252 -644177 -603911 -567513 -535612 -508607 -487161 
1823.467 -472102 -464191 -462801 -465184 -466210 -460683 -444497 -417122 
1827.324 -382331 -346675 -318268 -301978 -298633 -302772 -305852 -298832 
1831.181 -276879 -240784 -195347 -146792 -99655 -55429 -12358 32571 81915 
1835.521 136268 193976 252886 311571 371525 436395 510730 598182 700056 
1839.861 814668 938474 1067298 1197921 1327720 1455363 1579652 1700250 
1843.718 1817854 1934392 2053391 2177751 2308309 2442205 2572943 2690884 
1847.575 2785946 2850745 2881697 2880096 2850778 2799952 2732427 2650444 
1851.433 2553745 2441806 2315405 2177385 2032818 1886036 1740435 1596944 
1855.290 1454465 1312266 1171143 1034084 904838 786717 680343 583385 491821 
1859.630 401869 312102 223347 138522 60407 -10304 -75174 -136921 -197202 
1863.969 -255520 -308600 -352270 -383721 -403683 -416626 -429635 -449032 
1867.827 -477033 -510593 -542959 -566222 -575256 -570292 -555468 -536804 
1871.684 -518701 -503908 -492159 -482925 -475875 -472797 -475941 -487889 
1875.542 -509137 -538458 -572642 -608874 -645832 -684076 -725956 -772462 
1879.399 -823626 -876901 -928251 -974868 -1015959 -1053311 -1090330 -1129857 
1883.257 -1172718 -1216632 -1258263 -1293546 -1321064 -1342337 -1360603 
1886.632 -1379595 -1400898 -1424380 -1447398 -1467212 -1482072 -1491780 
1890.007 -1497261 -1499275 -1497294 -1489567 -1474510 -1451493 -1423059 
1893.382 -1393335 -1366680 -1346168 -1331799 -1321163 -1310658 -1297741 
1896.758 -1282809 -1268934 -1259683 -1257271 -1260840 -1266819 -1270685 
1900.133 -1268670 -1260113 -1247096 -1233483 -1221820 -1212403 -1203515 
1903.508 -1192082 -1176618 -1158410 -1140598 -1127478 -1121331 -1122256 
1906.883 -1126652 -1130683 -1131245 -1128601 -1125660 -1125991 -1132071 
1910.259 -1143374 -1156559 -1167134 -1171562 -1169546 -1162573 -1154114 
1913.634 -1145951 -1139210 -1132997 -1127313 -1124074 -1127213 -1141325 
1917.009 -1169315 -1209165 -1254133 -1294008 -1320601 -1330610 -1327571 
1920.384 -1319511 -1315613 -1321493 -1337580 -1358654 -1377316 -1388050 
1923.760 -1389801 -1386729 -1384450 -1387753 -1397827 -1411533 -1424479 
1927.135 -1433594 -1439142 -1443997 -1452550 -1466287 -1482963 -1497393 
1930.510 -1503997 -1499969 -1488280 -1475996 -1471406 -1479694 -1500761 
1933.885 -1528365 -1555042 -1574026 -1583402 -1586538 -1588717 -1594131 
1937.260 -1603209 -1612354 -1616942 -1614301 -1606577 -1599347 -1599842 
1940.636 -1612684 -1637309 -1667875 -1695798 -1714676 -1722102 -1720848 
1944.011 -1715336 -1708109 -1697712 -1679493 -1648598 -1603671 -1549397 
1947.386 -1495709 -1452979 -1427748 -1419591 -1421176 -1423191 -1417213 
1950.761 -1400799 -1377580 -1354459 -1337547 -1328562 -1325622 -1324268 
1954.137 -1322154 -1320667 -1324730 -1340751 -1372163 -1416354 -1466650 
1957.512 -1513870 -1551741 -1579176 -1600469 -1621465 -1645000 -1668964 
1960.887 -1686391 -1689230 -1674377 -1645132 -1611660 -1585251 -1573795 
1964.262 -1578186 -1592645 -1606940 -1613179 -1608359 -1596607 -1583864 
1967.638 -1576073 -1574125 -1574851 -1574488 -1570658 -1566366 -1567192 
1971.013 -1578021 -1599809 -1626614 -1648598 -1656487 -1645694 -1617866 
1974.388 -1580761 -1539855 -1496535 -1444789 -1374376 -1277722 -1156130 
1977.763 -1022108 -896443 -797499 -737434 -715106 -721192 -741668 -766012 
1981.621 -791380 -821576 -863045 -919687 -989050 -1063789 -1133426 -1189802 
1985.478 -1229551 -1255091 -1272072 -1284329 -1292984 -1295561 -1289780 
1988.854 -1275838 -1257899 -1243164 -1238737 -1246732 -1264176 -1282611 
1992.229 -1292522 -1289020 -1273030 -1250399 -1228891 -1214485 -1208372 
1995.604 -1207876 -1208438 -1207149 -1204209 -1202854 -1205993 -1213758 
1998.979 -1223670 -1229717 -1228924 -1221820 -1214022 -1215443 -1235036 
2002.354 -1275343 -1332493 -1395382 -1450799 -1487850 -1501323 -1491978 
2005.730 -1464999 -1426394 -1380883 -1331898 -1283239 -1239463 -1207149 
2009.105 -1191719 -1194593 -1211214 -1233021 -1248285 -1249639 -1235135 
2012.480 -1210718 -1185837 -1167861 -1159335 -1156196 -1149520 -1132831 
2015.855 -1104608 -1070268 -1039924 -1023165 -1022802 -1034966 -1049642 
2019.231 -1057509 -1051130 -1031991 -1005348 -978769 -956817 -938699 -919522 
2023.088 -894227 -859738 -818302 -774479 -733828 -698103 -666245 -634053 
2026.946 -598419 -560431 -524592 -497355 -482395 -478721 -480343 -477331 
2030.803 -461312 -427384 -375743 -310421 -235287 -152654 -63115 32008 128247 
2035.143 216783 286770 330306 345559 340320 328482 326857 346488 390494 
2039.482 451851 518293 575920 615967 635876 638564 629937 613844 592343 
2043.822 565070 533122 499186 471056 457192 466280 502801 566198 650543 
2048.161 748147 849492 945182 1027408 1088989 1124865 1134731 1122838 
2052.019 1098821 1075270 1065305 1077462 1112540 1163136 1217060 1261221 
2055.876 1287507 1295283 1291329 1285812 1287839 1301498 1325327 1353877 
2059.734 1381000 1402340 1417532 1428136 1436148 1442431 1445788 1444492 
2063.591 1438242 1428535 1418961 1412645 1411348 1413044 1413742 1408523 
2067.448 1394861 1373920 1350287 1329116 1314758 1307713 1305519 1303725 
2071.306 1298839 1290298 1280428 1273084 1271522 1276507 1286377 1298042 
2075.163 1308976 1318281 1326989 1336926 1349589 1364613 1379969 1393398 
2079.021 1403769 1411614 1418728 1426707 1436181 1445223 1451174 1451241 
2082.878 1444891 1434220 1423116 1415504 1413675 1417000 1423349 1429300 
2086.736 1432990 1433887 1433189 1431726 1428934 1422185 1408124 1384656 
2090.593 1352481 1316320 1283220 1260789 1253378 1261819 1282422 1310006 
2094.450 1339352 1367239 1392800 1416235 1436879 1453468 1463408 1465370 
2098.308 1459984 1451374 1445223 1447118 1460350 1484188 1515175 1548393 
2102.165 1580051 1609848 1639481 1672675 1711360 1756171 1805277 1855854 
2106.023 1906037 1955926 2006920 2061115 2119046 2179816 2240728 2299016 
2109.880 2352881 2402389 2448603 2493423 2536181 2575276 2607542 2630309 
2113.738 2643310 2648811 2651278 2655678 2665213 2681015 2701419 2723791 
2117.595 2746332 2768940 2792949 2819962 2850778 2884866 2920223 2954616 
2121.452 2986777 3017338 3047935 3080469 3115676 3152821 3190137 3226120 
2125.310 3260471 3293989 3328479 3364874 3402441 3438376 3469202 3492449 
2129.167 3508449 3519706 3530562 3544793 3564669 3588924 3615551 3642849 
2133.025 3670583 3701994 3741095 3790995 3851631 3918428 3985235 4044828 
2136.882 4093592 4131122 4160293 4184580 4205356 4221415 4230248 4228709 
2140.740 4216898 4197159 4174109 4151628 4131156 4110618 4085765 4053189 
2144.597 4011853 3964302 3915987 3871990 3834449 3801290 3767632 3727794 
2148.454 3679739 3624372 3566641 3510253 3457346 3404445 3345841 3274225 
2152.312 3184529 3075597 2949045 2807589 2654511 2491990 2324199 2159936 
2156.169 2015108 1911162 1873357 1918384 2049496 2249887 2487158 2723791 
2160.027 2926194 3075497 3168641 3213335 3223116 3210598 3185831 3154123 
2163.884 3119280 3084107 3050104 3017105 2983607 2944642 2895072 2830401 
2167.741 2750266 2657678 2558911 2459566 2363942 2272902 2185810 2101899 
2171.599 2022798 1952731 1898349 1864106 1851262 1855155 1867467 1877384 
2175.456 1875720 1856919 1819185 1764454 1696591 1619925 1540180 1462544 
2179.314 1394030 1341014 1308211 1295981 1300069 1313030 1324430 1327620 
2183.171 1318913 1299471 1273815 1245736 1218256 1192207 1167654 1146060 
2187.029 1130811 1126592 1137821 1165328 1205896 1251385 1293622 1325327 
2190.886 1344471 1354010 1359960 1367904 1380734 1397819 1415338 1431061 
2194.743 1443295 1454997 1469792 1491535 1521227 1556307 1592255 1625080 
2198.601 1651920 1673241 1690703 1706138 1719777 1729623 1732584 1726230 
2202.458 1710662 1688907 1665990 1646732 1634259 1628938 1629437 1633661 
2206.316 1639913 1647763 1656577 1665424 1672110 1674105 1669249 1658373 
2210.173 1645035 1634592 1632596 1642075 1662797 1690437 1718878 1744028 
2214.031 1763390 1777962 1790838 1803980 1818054 1831031 1839815 1842311 
2217.888 1839016 1832927 1827870 1827138 1831463 1838784 1845572 1848467 
2221.745 1846403 1840614 1834158 1830132 1829567 1831729 1834025 1833859 
2225.603 1830398 1824409 1817987 1813229 1810867 1809836 1808338 1804878 
2229.460 1799654 1794531 1792501 1796261 1807141 1824243 1845172 1866902 
2233.318 1887034 1903840 1917419 1928468 1938286 1948670 1962117 1981722 
2237.175 2010614 2050595 2101566 2159969 2219412 2272036 2311907 2335658 
2241.032 2344486 2343020 2337790 2334859 2338123 2348917 2366840 2390494 
2244.890 2418482 2450236 2485358 2522283 2559144 2592709 2619975 2638910 
2248.747 2649511 2653078 2651778 2647711 2642343 2636176 2630409 2625909 
2252.605 2625276 2630643 2643744 2664246 2690084 2717690 2743464 2764638 
2256.462 2780044 2789748 2794383 2794083 2788214 2775442 2755135 2727759 
2260.320 2695518 2661946 2630209 2602809 2580676 2563744 2551945 2545579 
2264.177 2546379 2556378 2576876 2607542 2646144 2688517 2730193 2767672 
2268.034 2798952 2823164 2840906 2852112 2857015 2854981 2846743 2834136 
2271.892 2819962 2807756 2800453 2799186 2802887 2809657 2816794 2823030 
2275.749 2828933 2836104 2846709 2862418 2882831 2906347 2930531 2952848 
2279.607 2971597 2986443 2998020 3007562 3015770 3023744 3032753 3043397 
2283.464 3056744 3073028 3090981 3108468 3121917 3128625 3126889 3117311 
2287.322 3102394 3086409 3073228 3065553 3064085 3067789 3074463 3081671 
2291.179 3087811 3092349 3095720 3098589 3101993 3106665 3113473 3123385 
2295.036 3136835 3154256 3174516 3195744 3215639 3231928 3243178 3249821 
2298.894 3253026 3254996 3256965 3259402 3261272 3261138 3257633 3250456 
2302.751 3240574 3230026 3220779 3214103 3209930 3207594 3205958 3204690 
2306.609 3204256 3205992 3211332 3221113 3235200 3252559 3271721 3291519 
2310.466 3311517 3331918 3353120 3374925 3396731 3417169 3435002 3449096 
2314.323 3459350 3466497 3471474 3475482 3478888 3481861 3484333 3486704 
2318.181 3489911 3495422 3504908 3519839 3540951 3568077 3599514 3632658 
2322.038 3663532 3686890 3697416 3690432 3662730 3613881 3546964 3468134 
2325.896 3384909 3305541 3236635 3182059 3142208 3114842 3096587 3083773 
2329.753 3073929 3066521 3061749 3060481 3063084 3069391 3079101 3091548 
2333.611 3106565 3124086 3144344 3166639 3190270 3214103 3236869 3258234 
2337.468 3278698 3299164 3320732 3343704 3367746 3391855 3414964 3436672 
2341.325 3457179 3477619 3498962 3521543 3544659 3567041 3587387 3605060 
2345.183 3621265 3638572 3660892 3691802 3733976 3788388 3853670 3927121 
2349.040 4004530 4081183 4152331 4213419 4261499 4295096 4315140 4324377 
2352.898 4326820 4326720 4327556 4331605 4339905 4352389 4368554 4387698 
2356.755 4409020 4431547 4454410 4476404 4496960 4516177 4535094 4555786 
2360.613 4580129 4609329 4642885 4679391 4716268 4751240 4783500 4813317 
2364.470 4842265 4872555 4905394 4941821 4981301 5022998 5066307 5110626 
2368.327 5155252 5199480 5241868 5280437 5313474 5340006 5360670 5377410 
2372.185 5393311 5411729 5435013 5464003 5498900 5539001 5583973 5633783 
2376.042 5688534 5749000 5815014 5886110 5961114 6039155 6119563 6202136 
2379.900 6287348 6375636 6466733 6560002 6654199 6747879 6839963 6929979 
2383.757 7017690 7102725 7184610 7261759 7332318 7394731 7447749 7491672 
2387.615 7527508 7556637 7580441 7600402 7616588 7629435 7638945 7645689 
2391.472 7650241 7653445 7655907 7657796 7659111 7659684 7659988 7660932 
2395.329 7663731 7669599 7679312 7693173 7710745 7731589 7755638 7783468 
2399.187 7815988 7854245 7898918 7950108 8007446 8069923 8136460 8206587 
2403.044 8279865 8356433 8436088 8518934 8605042 8694748 8788666 8887880 
2406.902 8993171 9105425 9224037 9348741 9478323 9612416 9750481 9892589 
2410.759 10038814 10188072 10338773 10488339 10633745 10772238 10901939 
2414.134 11021689 11131238 11230173 11317907 11393685 11456617 11506595 
2417.510 11544805 11573151 11594521 11611163 11624537 11635121 11642609 
2420.885 11646659 11647816 11647441 11647884 11651288 11659626 11673342 
2424.260 11692608 11716946 11746733 11782717 11826910 11881425 11948140 
2427.635 12028014 12121089 12226554 12343736 12471931 12610909 12760747 
2431.010 12921047 13090935 13269634 13455721 13648828 13848349 14054601 
2434.386 14267663 14487647 14714151 14946432 15183744 15425855 15672533 
2437.761 15924850 16183263 16448541 16720938 17000222 17286134 17578274 
2441.136 17876308 18179796 18487680 18799142 19112418 19426576 19740688 
2444.511 20055024 20370076 20686782 21005664 21326592 21648314 21969646 
2447.887 22288706 22604406 22915968 23223352 23526404 23825116 24118818 
2451.262 24407038 24688472 24962542 25228218 25485026 25732494 25969936 
2454.637 26196878 26413058 26617828 26810430 26989964 27154478 27301798 
2458.012 27429366 27534522 27615266 27670176 27698958 27702066 27680312 
2461.388 27634582 27566402 27476736 27367360 27240866 27100514 26950934 
2464.763 26797038 26644076 26497260 26361408 26240698 26138812 26058340 
2468.138 26001770 25970602 25966382 25990020 26042720 26124808 26236896 
2471.513 26378236 26547660 26742590 26959572 27194478 27442886 27700582 
2474.889 27964156 28230368 28496564 28760090 29017792 29266536 29503188 
2478.264 29724252 29927074 30108718 30266636 30398668 30503194 30579126 
2481.639 30626908 30648134 30644934 30620296 30576920 30516916 30442132 
2485.014 30354536 30256014 30148814 30036102 29920364 29803452 29685684 
2488.390 29566104 29442410 29312366 29173896 29025832 28867480 28698848 
2491.765 28519526 28328430 28124620 27906878 27674202 27426050 27162836 
2495.140 26884942 26592466 26285998 25965328 25630972 25283600 24924784 
2498.515 24556586 24181168 23800546 23416516 23030342 22643850 22259164 
2501.891 21878654 21505126 21140930 20787674 20445886 20114816 19793570 
2505.266 19480600 19175716 18879282 18592734 18317744 18055536 17807018 
2508.641 17572168 17350478 17141518 16944544 16759230 16585113 16421733 
2512.016 16268598 16125007 15990710 15865769 15750518 15645636 15551735 
2515.392 15469184 15398185 15338626 15290402 15253234 15226912 15211333 
2518.767 15206117 15210371 15223103 15243144 15269809 15302792 15342093 
2522.142 15387611 15439245 15496173 15557539 15622176 15688987 15757047 
2525.517 15825665 15893435 15958775 16019039 16071675 16114004 16144127 
2528.893 16161425 16166102 16158983 16141100 16112868 16074598 16026361 
2532.268 15969191 15904227 15833534 15759313 15683902 15608643 15534736 
2535.643 15462798 15393824 15328947 15269261 15215725 15168269 15125828 
2539.018 15086341 15047475 15007617 14966117 14924142 14883335 14846030 
2542.394 14813459 14785896 14762003 14740167 14718059 14694168 14667401 
2545.769 14637928 14606196 14573368 14540887 14510155 14482713 14459144 
2549.144 14439927 14424548 14411190 14398277 14384302 14368582 14351698 
2552.519 14335156 14320534 14309336 14301597 14296460 14292214 14287421 
2555.895 14280812 14272217 14261705 14249481 14235615 14219009 14198503 
2559.270 14172724 14141196 14103818 14061755 14015964 13967545 13917077 
2562.645 13864495 13809935 13753776 13697109 13641682 13589714 13542879 
2566.020 13502477 13468469 13440341 13416830 13396770 13379342 13364136 
2569.396 13351630 13342713 13338579 13340355 13348829 13363898 13385049 
2572.771 13410473 13438633 13467785 13496974 13526403 13557169 13590876 
2576.146 13628791 13671018 13716396 13763078 13808909 13852386 13893060 
2579.521 13931789 13970282 14010078 14052651 14098650 14148179 14201173 
2582.896 14257939 14318992 14384850 14455719 14531054 14609519 14689199 
2586.272 14768413 14846099 14921912 14996847 15071967 15148334 15226637 
2589.647 15307323 15389945 15474678 15561007 15648624 15737154 15825596 
2593.022 15912991 15997929 16079446 16156817 16229866 16299112 16365098 
2596.397 16428720 16490838 16552171 16613858 16676519 16741667 16810202 
2599.773 16882740 16959324 17039644 17123078 17208838 17296720 17386620 
2603.148 17478642 17572824 17669510 17768426 17869954 17974062 18081234 
2606.523 18192408 18308102 18428942 18554936 18685774 18820904 18959714 
2609.898 19101406 19245466 19390784 19536256 19680184 19821140 19957426 
2613.274 20088478 20214084 20334866 20451826 20565728 20677364 20786630 
2616.649 20893248 20996588 21095812 21190294 21279124 21361708 21437484 
2620.024 21506100 21567558 21622646 21672590 21719264 21764828 21811128 
2623.399 21859524 21910890 21965396 22022836 22082342 22143006 22203750 
2626.775 22263420 22321286 22376924 22430548 22482676 22534184 22586256 
2630.150 22639380 22694154 22750296 22807700 22865570 22923478 22980838 
2633.525 23036982 23090896 23141986 23189202 23232194 23271032 23306898 
2636.900 23341022 23375148 23410640 23448374 23488628 23531300 23576146 
2640.276 23623444 23673444 23726702 23783466 23844054 23907906 23974324 
2643.651 24042608 24112302 24183236 24255828 24330532 24407390 24486924 
2647.026 24569068 24654314 24743084 24836082 24933556 25035792 25141946 
2650.401 25250446 25359570 25467318 25572772 25675436 25776194 25876376 
2653.777 25977674 26081492 26188712 26299692 26414504 26532972 26654996 
2657.152 26780192 26908278 27038800 27171162 27304620 27438826 27573286 
2660.527 27707894 27842436 27976630 28110302 28243380 28375754 28507212 
2663.902 28638640 28770428 28903494 29038514 29175668 29314600 29454676 
2667.278 29594550 29733228 29869500 30002868 30133470 30261806 30389216 
2670.653 30517306 30647672 30781778 30920372 31063742 31211506 31363096 
2674.028 31517338 31673346 31830262 31987526 32144270 32300218 32454866 
2677.403 32607782 32759358 32910056 33060844 33213046 33368052 33527088 
2680.779 33691160 33861028 34037728 34221928 34414808 34616964 34828980 
2684.154 35050904 35282068 35521480 35767896 36020252 36277796 36540072 
2687.529 36807084 37078772 37355396 37637148 37924252 38216936 38515756 
2690.904 38820940 39132472 39450172 39773516 40101864 40434496 40771388 
2694.280 41112616 41458564 41809788 42166620 42529084 42897116 43270260 
2697.655 43648080 44029936 44415208 44803284 45193436 45585376 45978332 
2701.030 46372744 46768592 47166352 47565876 47966884 48367368 48765704 
2704.405 49159288 49545980 49924176 50292656 50650200 50996456 51330416 
2707.781 51650940 51957288 52249012 52526160 52789340 53039844 53278576 
2711.156 53506348 53723216 53928712 54122520 54304024 54473128 54629564 
2714.531 54773052 54903128 55018984 55119488 55203684 55270624 55319924 
2717.906 55351084 55364448 55360496 55340360 55305812 55259976 55206580 
2721.281 55150712 55097332 55051516 55017404 54998112 54995480 55010860 
2724.657 55044596 55096956 55168168 55258356 55367308 55495076 55641484 
2728.032 55806296 55989028 56189148 56405472 56636704 56880936 57135776 
2731.407 57398932 57668112 57941660 58217772 58495192 58772604 59048332 
2734.782 59320892 59588720 59850668 60105544 60352952 60592196 60822924 
2738.158 61044580 61256852 61459492 61653292 61839576 62020132 62197892 
2741.533 62375152 62554860 62739572 62931532 63132888 63345872 63571928 
2744.908 63812152 64066448 64334332 64613544 64901656 65195748 65492376 
2748.283 65787904 66078736 66360488 66629104 66880336 67110216 67316616 
2751.659 67497328 67652136 67781720 67887384 67970720 68033032 68075624 
2755.034 68098648 68102136 68084768 68044896 67980216 67888040 67766024 
2758.409 67612296 67425496 67204928 66950188 66661744 66339956 65986268 
2761.784 65602736 65192320 64759052 64307472 63842088 63367500 62887796 
2765.160 62406940 61929136 61459572 61003552 60567172 60156040 59774576 
2768.535 59425664 59110668 58829096 58580084 58362372 58175076 58017244 
2771.910 57888276 57786604 57710268 57656720 57622632 57604776 57599932 
2775.285 57604776 57616428 57631484 57645788 57654792 57653960 57638220 
2778.661 57603828 57547308 57466400 57359944 57227888 57071456 56893100 
2782.036 56696468 56486488 56268164 56047040 55828184 55615464 55411576 
2785.411 55217908 55034328 54859252 54689728 54522076 54351184 54172364 
2788.786 53981312 53774776 53551064 53310832 53056132 52790240 52516924 
2792.162 52240152 51963636 51690576 51424440 51168008 50924696 50697416 
2795.537 50489016 50301736 50137476 49997072 49881396 49790272 49723836 
2798.912 49681816 49663836 49669856 49698984 49750736 49824460 49919120 
2802.287 50033024 50164776 50311704 50471148 50640112 50815548 50994928 
2805.663 51176172 51357604 51538144 51716812 51892160 52062724 52225916 
2809.038 52378628 52516924 52636636 52733632 52804496 52846368 52858160 
2812.413 52839672 52792040 52716912 52616440 52492768 52347904 52184476 
2815.788 52006100 51817040 51623104 51431412 51249428 51084476 50943768 
2819.164 50833052 50757184 50719648 50722960 50768320 50855736 50983936 
2822.539 51150156 51350480 51579668 51831752 52100116 52378368 52659564 
2825.914 52937612 53206476 53460516 53695580 53907928 54095420 54256752 
2829.289 54391892 54501640 54587144 54650608 54694688 54722388 54737460 
2832.665 54743924 54745800 54746928 54751176 54761552 54781208 54813124 
2836.040 54860188 54925196 55010672 55119488 55254328 55418768 55617684 
2839.415 55857612 56147068 56496108 56916556 57420072 58018720 58725376 
2842.790 59552048 60513084 61624500 62903308 64367728 66032788 67906016 
2846.166 69981496 72233584 74614656 77046440 79428968 81645832 83566736 
2849.541 85073864 86068896 86485144 86299784 85532408 84243512 82518064 
2852.916 80462024 78189576 75803440 73401144 71064008 68850992 66806056 
2856.291 64954296 63303896 61850272 60578980 59469736 58498380 57641552 
2859.667 56877988 56187980 55555964 54968252 54413376 53881896 53366764 
2863.042 52862312 52365804 51876292 51395568 50927268 50477180 50053144 
2866.417 49663096 49316084 49020312 48781904 48605064 48490684 48437228 
2869.792 48439264 48489500 48578536 48694500 48825024 48957852 49080408 
2873.167 49183480 49260520 49308956 49330452 49329448 49312560 49286504 
2876.543 49257068 49229012 49205112 49187192 49176616 49174500 49181812 
2879.918 49199512 49227900 49267352 49317868 49379672 49453408 49539856 
2883.293 49639508 49752036 49876004 50009196 50148596 50291352 50435720 
2886.668 50581216 50729068 50881592 51041996 51213300 51398068 51598736 
2890.044 51816928 52054504 52313592 52597212 52909320 53255580 53643128 
2893.419 54081048 54579668 55149396 55799700 56536868 57361648 58266988 
2896.794 59236960 60246092 61257884 62231884 63123116 63888648 64495364 
2900.169 64921624 65162868 65230548 65152392 64967112 64716832 64445704 
2903.545 64193876 63992640 63868724 63840932 63922732 64124508 64453580 
2906.920 64915664 65516344 66260444 67154112 68204312 69418344 70802776 
2910.295 72360896 74090272 75979912 78007568 80141568 82337520 84541168 
2913.670 86695088 88734624 90596952 92227984 93581272 94627456 95355456 
2917.046 95773104 95903656 95780824 95444568 94930544 94266856 93471424 
2920.421 92550288 91500464 90314200 88984176 87508184 85893656 84157832 
2923.796 82329512 80446392 78548544 76677920 74872640 73161720 71567328 
2927.171 70101912 68769040 67565728 66483080 65509288 64629616 63829420 
2930.547 63095452 62415508 61781164 61186580 60628468 60106000 59618940 
2933.922 59167160 58750568 58367376 58015540 57691420 57390612 57106980 
2937.297 56834408 56565324 56293056 56012400 55720624 55418200 55108916 
2940.672 54799364 54497696 54212040 53949944 53716656 53514896 53343872 
2944.048 53199696 53075000 52959248 52840604 52706888 52547664 52357508 
2947.423 52136652 51892312 51636832 51386880 51160516 50972272 50833760 
2950.798 50750260 50721064 50740428 50798712 50884908 50986432 51091968 
2954.173 51191828 51277544 51343396 51385500 51401424 51390536 51353168 
2957.549 51291152 51206628 51103600 50986768 50860952 50731416 50602660 
2960.924 50478000 50359996 50250136 50149488 50059272 49980568 49914624 
2964.299 49862292 49823940 49798856 49785624 49782620 49788004 49800824 
2967.674 49820220 49846012 49878048 49916668 49961832 50014212 50075004 
2971.050 50145916 50229116 50326436 50438920 50566328 50706912 50856968 
2974.425 51011548 51164356 51308228 51434956 51536648 51605080 51633364 
2977.800 51616760 51553068 51443312 51291524 51104532 50890456 50658280 
2981.175 50417448 50176080 49942056 49721384 49518316 49334088 49166816 
2984.551 49011932 48861580 48706356 48537408 48347148 48131208 47888812 
2987.926 47622336 47336176 47035288 46723500 46402024 46069652 45722664 
2991.301 45356496 44967408 44553816 44117548 43663872 43201120 42738088 
2994.676 42283072 41841892 41416208 41004636 40602616 40204716 39805440 
2998.052 39400680 38988948 38570688 38147472 37722324 37298128 36877776 
3001.427 36463668 36058268 35663212 35280376 34910804 34554964 34212928 
3004.802 33883952 33567216 33261656 32966536 32681580 32406774 32142416 
3008.177 31888738 31645760 31412960 31189220 30972996 30762786 30556586 
3011.552 30353506 30152792 29954514 29759308 29568126 29382028 29201608 
3014.928 29026966 28858096 28694494 28535978 28382226 28233336 28089340 
3018.303 27950234 27815624 27685184 27558244 27434450 27313758 27196416 
3021.678 27083126 26974450 26871124 26773566 26682548 26598876 26524202 
3025.053 26460422 26410102 26375492 26357640 26356726 26370878 26396686 
3028.429 26428904 26461690 26488772 26503670 26501238 26477150 26428836 
3031.804 26355528 26258366 26139656 26003142 25852674 25692802 25527156 
3035.179 25359570 25192752 25029334 24871060 24719162 24574046 24435642 
3038.554 24303340 24176228 24053850 23935600 23821408 23711654 23605988 
3041.930 23504996 23408122 23315186 23225658 23139366 23056338 22976610 
3045.305 22900496 22828514 22760772 22697646 22639312 22586082 22537988 
3048.680 22495030 22456682 22422070 22390112 22359692 22330180 22301020 
3052.055 22272488 22244796 22218082 22192278 22166822 22141054 22114172 
3055.431 22086422 22058324 22031028 22006002 21984496 21967416 21955010 
3058.806 21947236 21943856 21944552 21949294 21958216 21971110 21988084 
3062.181 22009102 22034060 22063342 22097228 22136172 22180490 22230044 
3065.556 22283754 22340156 22397370 22453680 22507278 22557078 22601928 
3068.932 22640814 22672406 22695376 22708816 22712238 22706304 22692828 
3072.307 22674604 22655020 22637392 22624232 22617042 22616204 22620916 
3075.682 22629712 22640986 22652994 22664200 22673522 22680050 22683368 
3079.057 22683368 22680014 22673592 22664516 22653346 22640602 22627024 
3082.433 22613272 22599868 22587478 22576414 22567024 22559870 22555962 
3085.808 22556170 22561964 22574668 22594772 22622522 22656556 22695028 
3089.183 22735282 22775122 22812800 22847896 22880552 22912126 22943878 
3092.558 22976854 23011546 23047952 23085758 23124548 23164388 23205488 
3095.934 23248728 23294978 23345044 23399170 23457326 23518954 23583002 
3099.309 23648602 23714698 23780666 23846364 23911722 23977370 24043658 
3102.684 24110832 24179032 24248084 24317426 24386500 24454604 24521316 
3106.059 24586354 24649544 24711024 24771076 24830432 24889692 24949980 
3109.435 25012030 25076614 25144054 25214278 25287006 25361644 25437804 
3112.810 25515350 25594418 25674910 25756752 25839206 25921502 26002122 
3116.185 26080084 26154612 26225564 26293146 26357888 26420208 26480144 
3119.560 26537902 26593204 26646542 26698616 26750556 26803734 26859316 
3122.936 26917938 26979774 27044090 27110424 27177968 27246404 27315946 
3126.311 27386274 27457568 27529472 27601424 27672720 27742750 27811526 
3129.686 27879144 27946276 28013596 28082024 28152016 28223896 28297838 
3133.061 28373418 28450572 28529044 28608594 28689220 28770994 28853988 
3136.437 28938308 29023566 29109406 29195016 29279436 29361856 29441628 
3139.812 29518650 29592990 29665498 29736812 29807924 29879828 29953662 
3143.187 30030350 30110742 30195378 30283972 30376034 30470244 30565154 
3146.562 30659548 30753006 30845520 30937912 31031108 31125926 31222402 
3149.938 31319860 31417340 31513740 31608160 31700540 31791258 31880892 
3153.313 31970046 32059364 32148946 32238796 32328740 32418556 32508068 
3156.688 32597210 32685760 32773972 32862310 32951448 33042610 33136618 
3160.063 33233862 33333990 33435576 33536788 33635700 33731480 33824308 
3163.438 33916084 34008952 34105320 34206764 34313424 34423744 34535912 
3166.814 34647324 34755712 34859924 34959532 35054564 35145776 35233912 
3170.189 35320092 35405280 35490308 35575960 35662424 35749404 35836084 
3173.564 35921592 36004920 36085384 36163012 36237816 36309964 36380000 
3176.939 36448320 36515420 36581880 36649080 36717976 36789776 36864428 
3180.315 36941624 37020100 37098328 37175132 37249892 37322536 37393892 
3183.690 37464424 37534216 37603328 37671296 37737792 37803284 37868860 
3187.065 37935856 38005868 38079648 38157240 38237920 38320684 38404364 
3190.440 38488384 38572712 38657312 38742288 38827572 38912944 38998008 
3193.816 39082616 39166772 39250540 39333968 39416464 39497384 39575992 
3197.191 39651964 39725516 39797340 39868664 39940440 40012916 40086020 
3200.566 40159064 40231396 40303016 40374604 40447444 40522840 40601416 
3203.941 40683172 40766472 40849388 40930136 41006856 41078924 41146604 
3207.317 41210864 41273384 41335516 41399040 41465272 41534684 41607460 
3210.692 41682660 41759076 41834484 41907752 41977564 42044172 42108348 
3214.067 42171624 42235380 42300748 42367668 42435948 42505188 42574948 
3217.442 42645380 42716520 42788472 42860984 42933476 43005424 43076548 
3220.818 43147392 43218832 43292368 43369288 43450140 43534668 43621668 
3224.193 43709636 43796964 43882768 43966356 44047388 44125948 44201912 
3227.568 44275432 44346728 44416200 44484840 44553304 44622000 44690856 
3230.943 44759608 44827384 44894252 44960352 45026360 45093184 45161228 
3234.319 45230500 45300152 45369372 45437460 45504236 45570652 45637708 
3237.694 45706616 45777848 45851048 45925696 46000908 46076208 46151596 
3241.069 46227104 46302852 46378496 46453052 46525776 46595964 46664212 
3244.444 46731508 46799552 46869900 46943024 47018780 47095960 47173700 
3247.820 47251124 47328784 47407344 47487844 47569984 47653136 47735340 
3251.195 47814824 47889920 47960704 48028644 48095636 48164452 48236536 
3254.570 48312780 48392780 48475572 48559524 48643644 48726784 48808228 
3257.945 48887280 48963564 49036560 49106528 49173980 49239552 49304020 
3261.321 49367832 49431056 49493436 49554636 49614584 49673384 49731564 
3264.696 49789196 49846532 49903548 49959896 50015588 50071172 50127696 
3268.071 50186716 50249316 50316092 50386824 50460396 50535020 50609772 
3271.446 50683976 50757780 50832012 50907520 50984828 51063908 51144116 
3274.822 51224564 51304500 51383488 51461364 51538852 51616720 51696136 
3278.197 51778892 51866100 51959524 52059848 52167476 52281372 52400048 
3281.572 52521596 52643892 52765960 52887124 53008432 53131428 53257716 
3284.947 53389280 53527224 53672072 53823532 53980748 54142748 54308000 
3288.323 54475608 54644596 54815156 54987584 55162676 55341864 55526216 
3291.698 55716520 55913612 56117432 56328172 56546076 56771036 57002992 
3295.073 57241344 57485460 57734336 57987252 58244144 58505812 58773440 
3298.448 59048788 59332480 59624864 59924564 60230180 60540052 60853380 
3301.823 61170368 61492476 61821432 62158816 62505880 62862524 63228308 
3305.199 63602464 63983812 64371764 64765484 65164252 65567248 65974200 
3308.574 66385120 66801152 67223768 67654576 68094696 68544096 69001976 
3311.949 69466360 69936144 70410096 70888784 71373000 71863656 72361680 
3315.324 72866704 73378112 73894768 74416528 74943672 75476808 76016616 
3318.700 76562464 77113032 77666168 78218936 78770184 79319344 79867248 
3322.075 80414936 80963624 81513296 82063456 82613072 83160944 83706688 
3325.450 84249824 84789576 85324584 85852512 86370448 86875720 87366920 
3328.825 87843824 88307328 88758808 89198712 89626928 90041872 90441536 
3332.201 90824216 91188304 91532448 91854712 92152600 92422904 92662192 
3335.576 92868296 93040880 93181464 93293656 93380704 93445128 93486512 
3338.951 93503232 93491808 93449032 93372656 93262120 93117408 92939256 
3342.326 92727992 92483488 92205208 91892792 91545944 91164680 90749080 
3345.702 90298544 89812448 89289912 88730848 88136952 87511672 86859576 
3349.077 86185944 85495368 84790816 84073224 83342600 82598368 81839856 
3352.452 81067528 80282496 79486984 78683320 77874664 77064088 76255328 
3355.827 75452168 74658528 73877648 73111920 72362856 71631096 70916128 
3359.203 70217768 69535616 68869432 68218896 67583616 66963100 66356436 
3362.578 65763272 65183000 64615808 64062260 63522988 62998796 62490536 
3365.953 61999036 61524924 61068648 60630332 60209324 59804008 59412064 
3369.328 59031024 58658092 58291352 57929584 57572692 57220892 56874252 
3372.704 56532792 56195560 55861232 55528700 55196536 54863688 54528836 
3376.079 54190716 53847460 53497356 53138916 52771832 52396648 52014800 
3379.454 51627840 51237200 50843148 50445100 50041504 49631148 49213020 
3382.829 48787804 48356408 47920816 47482556 47042748 46601756 46160148 
3386.205 45717692 45275400 44834364 44395976 43961700 43532724 43108932 
3389.580 42690416 42276136 41865280 41457364 41052160 40650132 40252044 
3392.955 39858348 39469912 39087220 38710228 38338308 37971004 37607340 
3396.330 37246248 36887480 36531240 36178140 35829464 35485992 35148360 
3399.706 34816268 34488520 34163352 33839068 33514562 33189226 32864024 
3403.081 32540958 32221596 31907852 31600356 31298742 31001678 30707590 
3406.456 30415194 30123526 29832800 29543582 29257178 28973832 28693962 
3409.831 28416858 28141764 27868156 27596164 27326390 27060418 26799716 
3413.207 26545546 26298110 26057074 25821308 25589886 25361890 25136716 
3416.582 24915062 24697206 24483594 24274538 24069644 23868592 23670714 
3419.957 23475652 23283512 23094180 22908180 22725646 22546748 22371796 
3423.332 22200786 22034130 21871720 21713446 21558920 21407268 21257272 
3426.708 21107710 20957468 20805992 20653144 20499100 20344450 20189820 
3430.083 20035524 19881942 19729210 19577988 19428690 19282458 19140116 
3433.458 19002602 18870664 18744200 18622474 18504174 18387736 18270916 
3436.833 18152192 18030494 17905310 17777436 17647908 17517900 17388724 
3440.208 17260862 17134350 17008768 16884050 16759884 16636718 16514722 
3443.584 16394241 16274687 16154891 16033340 15908798 15780857 15650686 
3446.959 15520760 15394408 15274683 15163363 15060818 14965294 14874386 
3450.334 14785142 14694923 14602494 14507174 14409271 14308890 14206479 
3453.709 14101799 13994954 13885774 13774672 13662162 13549306 13436924 
3457.085 13325800 13216482 13109444 13004515 12901421 12799375 12697796 
3460.460 12595730 12492904 12389419 12286027 12184262 12085553 11991124 
3463.835 11901041 11814789 11730664 11647101 11562635 11476417 11388821 
3467.210 11300188 11210758 11121176 11030830 10939179 10846154 10752061 
3470.586 10658058 10565433 10475576 10389471 10306607 10226099 10146454 
3473.961 10065976 9983851 9899708 9814192 9728184 9643142 9560217 9480490 
3477.818 9404740 9333303 9265669 9200820 9136927 9072063 9004775 8934383 
3481.676 8861570 8788497 8717431 8650433 8589089 8532654 8479773 8428014 
3485.533 8375383 8320630 8263588 8205472 8147467 8090920 8036811 7985307 
3489.391 7936002 7888627 7842876 7798816 7756752 7716445 7677862 7640631 
3493.248 7604482 7569416 7535599 7503943 7475390 7450648 7430121 7413639 
3497.105 7400697 7390822 7383778 7379835 7379093 7381621 7387519 7395944 
3500.963 7405887 7416201 7425739 7434941 7444581 7456648 7473907 7498650 
3504.820 7532599 7576125 7628187 7686630 7748892 7812142 7874051 7933741 
3508.678 7991617 8049198 8108575 8172215 8241807 8317590 8399266 8485078 
3512.535 8573240 8661926 8749852 8836647 8922546 9007887 9092940 9177265 
3516.393 9259643 9338550 9412325 9479576 9539657 9592565 9638568 9678106 
3520.250 9711276 9737570 9755970 9764612 9762375 9748075 9721441 9683255 
3524.107 9634470 9575730 9507854 9430001 9341327 9240452 9126539 8999971 
3527.965 8861806 8714288 8560263 8402204 8241772 8079949 7916633 7751995 
3531.822 7586004 7418526 7250034 7080530 6910183 6739432 6569017 6400081 
3535.680 6235042 6075409 5922922 5777976 5639591 5506081 5375196 5245356 
3539.537 5115756 4986865 4859856 4735864 4615993 4500408 4388167 4278431 
3543.395 4170061 4061952 3953736 3844845 3735380 3625976 3517735 3412427 
3547.252 3311718 3217641 3130827 3050671 2974700 2900076 2822963 2740597 
3551.109 2651678 2557144 2459533 2362642 2270104 2184445 2106860 2037479 
3554.967 1974698 1916953 1862509 1809669 1757102 1703809 1648661 1591125 
3558.824 1530936 1468096 1402706 1335863 1268399 1202008 1138120 1078725 
3562.682 1024818 976862 933825 892951 849857 799663 737626 661229 570578 
3567.021 469630 365158 264390 173690 96795 34460 -15208 -55495 -89850 
3571.361 -121849 -154112 -188425 -225551 -265918 -309229 -354687 -401134 
3575.218 -447476 -492754 -535877 -576712 -614962 -650861 -684936 -717223 
3579.076 -748283 -778250 -807884 -837086 -866352 -895616 -924812 -953312 
3582.933 -980488 -1005844 -1029446 -1052088 -1075920 -1103782 -1139044 
3586.308 -1183920 -1239298 -1303126 -1370842 -1435740 -1491846 -1534704 
3589.684 -1563296 -1579671 -1587826 -1593306 -1600667 -1613839 -1634272 
3593.059 -1662000 -1695369 -1732366 -1770449 -1808396 -1844328 -1877650 
3596.434 -1907077 -1932115 -1952467 -1968762 -1982582 -1996039 -2011738 
3599.809 -2030933 -2054150 -2079443 -2104174 -2125112 -2139487 -2145983 
3603.185 -2144532 -2136454 -2123760 -2109285 -2095633 -2085543 -2082146 
3606.560 -2087686 -2103679 -2130255 -2165237 -2204996 -2244554 -2280153 
3609.935 -2309256 -2332326 -2351375 -2369532 -2389173 -2411547 -2435666 
3613.310 -2459026 -2478629 -2492136 -2498297 -2498198 -2493816 -2488611 
3616.686 -2486107 -2490028 -2503699 -2529197 -2566452 -2613421 -2665719 
3620.061 -2717319 -2762691 -2797720 -2820534 -2831364 -2832451 -2825604 
3623.436 -2812304 -2792848 -2766543 -2733486 -2694467 -2653271 -2615759 
3626.811 -2590859 -2587862 -2613849 -2669835 -2748796 -2836467 -2915727 
3630.187 -2973912 -3006424 -3016230 -3010471 -2997572 -2985561 -2979013 
3633.562 -2979901 -2987240 -2998296 -3009780 -3019059 -3025541 -3029391 
3636.937 -3032023 -3034031 -3035741 -3036959 -3037222 -3036959 -3036795 
3640.312 -3038209 -3042618 -3050383 -3060089 -3068677 -3072295 -3067031 
3643.688 -3050910 -3023896 -2988523 -2949230 -2910889 -2878370 -2855658 
3647.063 -2845322 -2849700 -2869943 -2906808 -2959235 -3023436 -3092496 
3650.438 -3156677 -3205818 -3232754 -3234300 -3212692 -3174209 -3127992 
3653.813 -3083547 -3049725 -3032583 -3034952 -3054397 -3084140 -3115360 
3657.188 -3139374 -3150427 -3147269 -3132532 -3112103 -3091673 -3077000 
3660.564 -3071342 -3074697 -3083811 -3093615 -3098845 -3095358 -3081179 
3663.939 -3056042 -3020507 -2975097 -2919051 -2851082 -2770427 -2677607 
3667.314 -2575708 -2467921 -2356252 -2236511 -2096194 -1915060 -1668139 
3670.689 -1336721 -910396 -389680 218806 905436 1657940 2457200 3261071 
3674.547 3997909 4570821 4874096 4838914 4460603 3794705 2929297 1955560 
3678.404 959029 7521 -844560 -1556429 -2111032 -2512825 -2786000 -2963941 
3682.262 -3080192 -3160789 -3219073 -3259886 -3282906 -3288332 -3279453 
3685.637 -3263537 -3249231 -3245679 -3258012 -3287477 -3330257 -3380135 
3689.012 -3430533 -3476520 -3516258 -3549551 -3577024 -3599239 -3616096 
3692.387 -3627531 -3633905 -3636271 -3635942 -3634464 -3632657 -3631112 
3695.763 -3629535 -3627235 -3622701 -3615734 -3605449 -3592929 -3579588 
3699.138 -3568184 -3562072 -3564109 -3575841 -3596511 -3623226 -3651057 
3702.513 -3674877 -3690976 -3697349 -3694622 -3684504 -3669489 -3651254 
3705.888 -3631244 -3609425 -3586094 -3561152 -3535057 -3508928 -3484310 
3709.264 -3463306 -3448514 -3442465 -3447594 -3465574 -3495190 -3532855 
3712.639 -3572325 -3606534 -3629469 -3638637 -3634562 -3620663 -3602985 
3716.014 -3586817 -3575973 -3571569 -3572292 -3574790 -3575414 -3571405 
3719.389 -3562696 -3550569 -3537522 -3525493 -3515633 -3508041 -3501993 
3722.765 -3497162 -3494039 -3494269 -3499265 -3510670 -3528287 -3550208 
3726.140 -3572489 -3590169 -3598253 -3592831 -3572424 -3538245 -3493415 
3729.515 -3443320 -3394436 -3352451 -3322136 -3305662 -3301354 -3305300 
3732.890 -3312271 -3319538 -3327134 -3338543 -3357975 -3388716 -3429448 
3736.266 -3475139 -3517605 -3550142 -3568809 -3573607 -3566837 -3551062 
3739.641 -3527564 -3495814 -3455088 -3406304 -3353536 -3305958 -3276790 
3743.016 -3279355 -3322201 -3401866 -3499364 -3585470 -3635088 -3637848 
3746.391 -3598779 -3532494 -3456699 -3387861 -3337557 -3312172 -3311811 
3749.767 -3332263 -3366524 -3408573 -3453773 -3498707 -3539264 -3570748 
3753.142 -3588460 -3589545 -3574593 -3547480 -3514154 -3480727 -3451900 
3756.517 -3430434 -3416364 -3408310 -3404792 -3404858 -3408145 -3414654 
3759.892 -3422774 -3429448 -3430795 -3423563 -3407060 -3383390 -3357712 
3763.268 -3336439 -3324733 -3325489 -3337064 -3354556 -3371159 -3380759 
3766.643 -3380759 -3372606 -3360572 -3350446 -3347750 -3355246 -3372968 
3770.018 -3397757 -3425010 -3450256 -3470308 -3483916 -3491410 -3494236 
3773.393 -3493678 -3490785 -3485230 -3476553 -3463503 -3445555 -3423202 
3776.769 -3398578 -3375532 -3357909 -3349427 -3351432 -3362775 -3379576 
3780.144 -3397099 -3410709 -3418731 -3421591 -3421920 -3422939 -3426785 
3783.519 -3434247 -3443780 -3453149 -3460282 -3464029 -3464851 -3464489 
3786.894 -3464752 -3466560 -3469847 -3473364 -3475895 -3476257 -3474186 
3790.270 -3470044 -3464325 -3457061 -3447692 -3435266 -3419553 -3401373 
3793.645 -3382864 -3367477 -3358435 -3357909 -3365241 -3377209 -3388058 
3797.020 -3392332 -3386414 -3370239 -3347684 -3325687 -3313257 -3317664 
3800.395 -3343935 -3390425 -3448711 -3504919 -3544654 -3559180 -3546856 
3803.771 -3513135 -3467481 -3421821 -3386513 -3369121 -3372409 -3392825 
3807.146 -3421920 -3448580 -3464588 -3466330 -3454990 -3434444 -3409132 
3810.521 -3381746 -3353175 -3321840 -3286129 -3245219 -3201246 -3158848 
3813.896 -3125032 -3107531 -3111873 -3138322 -3180426 -3226078 -3262123 
3817.271 -3278829 -3274225 -3252322 -3223282 -3198780 -3190392 -3205982 
3820.647 -3245844 -3302406 -3361000 -3407060 -3430598 -3429711 -3409263 
3824.022 -3378294 -3346336 -3320820 -3305760 -3301025 -3302669 -3304873 
3827.397 -3301913 -3290897 -3271528 -3245910 -3217724 -3190392 -3166644 
3830.772 -3147828 -3133914 -3124242 -3117466 -3112367 -3107892 -3103320 
3834.148 -3098615 -3094239 -3091410 -3092529 -3099536 -3114604 -3137763 
3837.523 -3167532 -3199898 -3230222 -3254427 -3270213 -3277414 -3278105 
3840.898 -3274882 -3270706 -3267582 -3266858 -3269029 -3273961 -3280473 
3844.273 -3287609 -3293626 -3297276 -3297178 -3292443 -3282808 -3268239 
3847.649 -3248672 -3224006 -3194240 -3159111 -3119538 -3077888 -3039032 
3851.024 -3010109 -3000599 -3019421 -3071243 -3153552 -3252619 -3348867 
3854.399 -3423662 -3466955 -3478558 -3465574 -3436253 -3398085 -3356167 
3857.774 -3313718 -3271890 -3232129 -3195490 -3163355 -3137105 -3117400 
3861.150 -3104109 -3096279 -3093318 -3095325 -3103287 -3119045 -3142960 
3864.525 -3172565 -3202891 -3226571 -3237063 -3230650 -3209008 -3178485 
3867.900 -3148092 -3127894 -3125789 -3142960 -3175031 -3211376 -3241733 
3871.275 -3259426 -3264096 -3260445 -3255545 -3255348 -3262386 -3274816 
3874.651 -3287050 -3292771 -3286425 -3266398 -3234859 -3197299 -3160394 
3878.026 -3130789 -3114472 -3114241 -3129999 -3157664 -3190557 -3219994 
3881.401 -3238872 -3242621 -3231472 -3209765 -3184603 -3164506 -3157499 
3884.776 -3167104 -3192004 -3224302 -3253506 -3268930 -3264819 -3241733 
3888.152 -3205654 -3164999 -3129177 -3105787 -3099010 -3108583 -3129999 
3891.527 -3156184 -3179505 -3194405 -3197990 -3189899 -3171446 -3144967 
3894.902 -3113156 -3078711 -3044987 -3014847 -2991419 -2976610 -2970884 
3898.277 -2973254 -2981283 -2991517 -3000863 -3007444 -3011425 -3014255 
3901.653 -3018829 -3027187 -3041335 -3060978 -3084732 -3109537 -3132104 
3905.028 -3149342 -3159407 -3161710 -3156842 -3146414 -3132565 -3117400 
3908.403 -3102596 -3089700 -3079106 -3070782 -3063906 -3057424 -3050120 
3911.778 -3040907 -3029260 -3015571 -3000468 -2985660 -2973122 -2964566 
3915.154 -2961736 -2965224 -2974142 -2987141 -3001751 -3015210 -3025640 
3918.529 -3031826 -3033142 -3030345 -3023863 -3014650 -3003495 -2991320 
3921.904 -2979473 -2969305 -2962526 -2960156 -2962723 -2969404 -2978453 
3925.279 -2987601 -2994282 -2997309 -2996157 -2991517 -2984508 -2976512 
3928.655 -2968416 -2961341 -2955944 -2953245 -2954331 -2960452 -2971938 
3932.030 -2988424 -3007707 -3026693 -3041730 -3050317 -3051140 -3045152 
3935.405 -3034491 -3022416 -3011458 -3003594 -2998954 -2996750 -2995170 
3938.780 -2992801 -2989214 -2984278 -2979342 -2975689 -2974603 -2976610 
3942.156 -2981119 -2987207 -2993196 -2997737 -2999843 -2999645 -2997441 
3945.531 -2994643 -2992143 -2991452 -2993097 -2997309 -3003429 -3010734 
3948.906 -3017941 -3023699 -3027351 -3028075 -3025706 -3020145 -3011557 
3952.281 -3000599 -2987667 -2973912 -2960518 -2948111 -2937876 -2929978 
3955.656 -2924054 -2919742 -2916221 -2913522 -2911547 -2910922 -2912074 
3959.032 -2915266 -2919874 -2925337 -2930109 -2933104 -2933927 -2932446 
3962.407 -2929385 -2925633 -2921618 -2917570 -2912896 -2906939 -2899204 
3965.782 -2889890 -2879522 -2869186 -2859706 -2851905 -2845552 -2840022 
3969.157 -2834195 -2827118 -2818263 -2807498 -2795712 -2783860 -2773028 
3972.533 -2764600 -2758904 -2756106 -2755908 -2756995 -2758542 -2758937 
3975.908 -2757554 -2753735 -2748204 -2741849 -2736120 -2732334 -2731379 
3979.283 -2733025 -2736713 -2741092 -2744944 -2746953 -2746557 -2743726 
3982.658 -2738985 -2733288 -2728020 -2724365 -2723279 -2725287 -2730193 
3986.034 -2737240 -2744911 -2751694 -2756435 -2758476 -2758114 -2756665 
3989.409 -2755645 -2756171 -2758937 -2763382 -2768353 -2772107 -2773621 
3992.784 -2771975 -2767860 -2762197 -2756797 -2752682 -2750871 -2751694 
3996.159 -2755151 -2760814 -2768353 -2777506 -2788008 -2798872 -2809572 
3999.535 -2818625 -2825209 -2828764 
##END=
