
##TITLE=Z357a_3_a
##JCAMP-DX=5.01  $$ Nicolet v. 1
##DATATYPE=INFRARED SPECTRUM
##ORIGIN=UniL
##OWNER=Nicolet
##LONGDATE=2011/09/22
##TIME=09:33:48
##SPECTROMETER/DATA SYSTEM=Nicolet iS5
##DATA PROCESSING=
Ratio against background
%Transmittance->Absorbance
Truncated
ElementMultiply or ElementDivide
##COMMENTS=
Number of sample scans: 32
Collection length: 51.19 sec
Sample gain: 2.0
Background collected on: Jeu Sep 22 09:32:15 2011 (GMT+02:00);
Number of background scans: 32
Background gain: 2.0
Sample spacing:  1.000
Number of scan points: 12415
Resolution points: 8192
Number of FFT points: 65536
Apodization: N-B fort;
Phase correction: Mertz;
Laser frequency: 15798.0 cm-1
Number of rejected sample scans: 0
Number of rejected background scans: 0
Bench serial number: ASB1000141;
##RESOLUTION=4.000
##XUNITS=1/CM
##YUNITS=ABSORBANCE
##FIRSTX=649.893372
##LASTX=4000.122314
##FIRSTY=0.086229
##MAXX=4000.122314
##MINX=649.893372
##MAXY=0.271582
##MINY=-0.002647
##XFACTOR=1.000000
##YFACTOR=1.000000E-009
##NPOINTS=6950
##DELTAX=0.482117
##ZPD=6100
##XYDATA=(X++(Y..Y))
649.893 86229104 85926240 85676504 85505288 85415576 85390288 85405328 
653.268 85447160 85525792 85674088 85933632 86334632 86882728 87554880 
656.643 88312776 89121584 89968656 90868368 91851768 92947752 94170944 
660.018 95517096 96972648 98531800 100206952 102023920 104009328 106166368 
663.393 108464704 110840600 113222608 115550600 117778576 119876840 
666.285 121806208 123489664 124812760 125649704 125927792 125669048 
669.178 124968336 123928440 122612872 121040192 119206768 117115808 
672.071 114803608 112345848 109837968 107380792 105047072 102870496 
674.963 100854712 98987008 97254952 95651584 94176256 92826776 91593488 
678.338 90459496 89403512 88405808 87453272 86538160 85655640 84798880 
681.713 83958192 83122144 82283816 81444416 80616104 79816912 79066176 
685.088 78375872 77747360 77171648 76634952 76124504 75632520 75156816 
688.463 74698280 74256416 73826592 73398600 72959464 72497912 72007048 
691.838 71485520 70937040 70368520 69788144 69204648 68629856 68079152 
695.212 67570568 67124640 66758452 66482424 66297956 66197304 66166780 
698.587 66190632 66255384 66353084 66480996 66640308 66832684 67058436 
701.962 67314520 67596232 67898344 68217032 68551704 68902944 69271408 
705.337 69655360 70048960 70444312 70832728 71208736 71571904 71927896 
708.712 72287712 72665248 73078992 73551712 74111408 74794344 75638832 
712.086 76677408 77925856 79368864 80950168 82567432 84094128 85392136 
715.461 86339928 86866256 86957808 86666208 86091240 85373352 84670848 
718.836 84129768 83887208 84047648 84669728 85759936 87256600 89030832 
722.211 90876864 92550320 93806280 94429368 94300240 93415048 91894352 
725.586 89946408 87827120 85788840 84011104 82596728 81565504 80877000 
728.961 80459912 80240328 80162920 80188584 80291976 80453608 80650816 
732.335 80860000 81061336 81243064 81405056 81556504 81710056 81875016 
735.710 82053456 82240648 82430648 82619568 82808696 83003880 83211264 
739.085 83433496 83667600 83906376 84141392 84367992 84586624 84801328 
742.460 85017528 85238416 85464064 85692736 85923784 86158952 86402544 
745.835 86657592 86922880 87189608 87442696 87665800 87847960 87987800 
749.209 88093600 88180704 88264096 88351672 88442808 88530112 88605312 
752.584 88664640 88711504 88754504 88803848 88865280 88938312 89016760 
755.959 89093712 89164904 89232776 89303544 89385480 89484568 89603432 
759.334 89741312 89897288 90071800 90267176 90485448 90725432 90981272 
762.709 91243280 91503368 91759912 92023128 92315800 92672864 93136912 
766.083 93749048 94547408 95555160 96772368 98163624 99653296 101130104 
769.458 102453696 103496640 104181216 104513344 104598072 104622192 
772.351 104812080 105341440 106275840 107518416 108829208 109855160 
775.244 110227792 109688992 108139904 105685704 102578688 99163992 95771160 
778.619 92632792 89877488 87515848 85481856 83670776 81986016 80361344 
781.993 78764424 77193368 75664864 74202600 72830416 71570808 70445440 
785.368 69472272 68666800 68039120 67592784 67326632 67237152 67322720 
788.743 67586168 68035440 68681856 69539032 70620720 71940600 73515456 
792.118 75365576 77513960 79983592 82788088 85923376 89355600 93019504 
795.493 96814768 100604808 104240096 107558520 110404680 112662640 114267888 
798.867 115234848 115657792 115714320 115634184 115640624 115926560 
801.760 116588504 117597016 118779832 119846712 120452712 120241704 
804.653 118962768 116526272 113035160 108759608 104073496 99379664 94983984 
808.028 91061200 87628616 84574864 81712168 78845264 75844232 72660240 
811.402 69335264 65966636 62677784 59576788 56732144 54176716 51910084 
814.777 49913544 48161492 46629572 45297724 44147404 43162140 42326320 
818.152 41625584 41048264 40585556 40229796 39974148 39810812 39732088 
821.527 39732340 39809940 39969028 40218168 40569912 41037008 41628980 
824.902 42351120 43201668 44170620 45236568 46365740 47512868 48618628 
828.277 49621568 50467280 51118360 51569672 51852660 52038332 52222144 
831.651 52517856 53042240 53888308 55116928 56733732 58679520 60814308 
835.026 62921228 64744904 65997764 66429176 65884144 64326152 61861204 
838.401 58704628 55155000 51514076 48037492 44920152 42263168 40092016 
841.776 38376168 37055028 36057876 35316104 34775132 34389524 34122452 
845.151 33946464 33840104 33789280 33786276 33827104 33908708 34026408 
848.525 34173528 34342656 34528772 34730656 34952172 35199272 35478872 
851.900 35794920 36148036 36536360 36958760 37415632 37910800 38449864 
855.275 39039188 39684312 40389696 41160736 42006432 42939840 43979520 
858.650 45148988 46472264 47976948 49691960 51646984 53873532 56396344 
862.025 59222600 62326116 65633796 69018792 72291184 75231592 77613080 
865.400 79228824 79945904 79717824 78600592 76736672 74342240 71675680 
868.774 68979448 66478132 64345128 62686400 61557760 60964316 60875032 
872.149 61229612 61947784 62936968 64084148 65268056 66365628 67251856 
875.524 67826416 68023456 67820560 67244272 66362732 65276416 64090252 
878.899 62905148 61800952 60823000 59985012 59270868 58647360 58072648 
882.274 57511488 56944964 56372764 55813112 55293956 54846508 54493564 
885.648 54245824 54101352 54050764 54083452 54194776 54389452 54680972 
889.023 55087176 55623292 56297736 57108452 58044888 59091192 60230028 
892.398 61447736 62734060 64081924 65486060 66940756 68437144 69962336 
895.773 71494352 72998776 74427024 75709352 76763280 77504064 77851328 
899.148 77753184 77194240 76202336 74842480 73209560 71417984 69576440 
902.523 67787256 66136144 64682140 63465504 62507212 61812604 61377396 
905.897 61192224 61246436 61530612 62037484 62763044 63704208 64858912 
909.272 66225016 67799376 69579320 71562016 73742904 76113928 78659088 
912.647 81350944 84152928 87020152 89906792 92779184 95621352 98442680 
916.022 101275712 104174768 107204328 110422968 113873896 117564952 
918.914 121455992 125440848 129347104 132951824 135982384 138182112 
921.807 139357264 139421984 138444608 136653216 134433904 132242736 
924.700 130573336 129888656 130518464 132643040 136241584 141100560 
927.593 146804000 152777488 158402048 163021152 166071712 167171744 
930.485 166119952 162926816 157771024 150967376 142903280 133994056 
933.378 124681776 115370880 106418272 98133552 90732704 84356240 79075120 
936.753 74895864 71786952 69694800 68560592 68318272 68888184 70170168 
940.128 72014208 74215256 76534800 78691224 80414736 81493112 81785608 
943.502 81260208 79985744 78121792 75874296 73458784 71079736 68886904 
946.877 66976668 65394452 64141796 63193396 62509248 62048528 61771884 
950.252 61643476 61634088 61715164 61861392 62052312 62272152 62511808 
953.627 62769324 63046604 63347676 63675084 64029312 64408308 64809100 
957.002 65229052 65667020 66122720 66595852 67085236 67588528 68102872 
960.377 68627096 69162136 69711576 70279936 70871112 71485992 72122312 
963.751 72775952 73442776 74120568 74810208 75514584 76236960 76979144 
967.126 77740544 78519200 79313064 80121600 80946664 81791488 82659008 
970.501 83550144 84463816 85397704 86350632 87323608 88320200 89345424 
973.876 90403352 91495512 92620240 93774744 94957424 96169560 97416184 
977.251 98704200 100040512 101429280 102872304 104370744 105927776 107551176 
980.625 109253968 111051112 112956632 114980336 117124704 119385696 
983.518 121752184 124207488 126725688 129266904 131777216 134181288 
986.411 136387424 138304160 139842512 140937664 141559072 141713696 
989.304 141446240 140829744 139966064 138968800 137952400 137032320 
992.196 136303152 135835040 135672576 135830512 136301152 137062112 
995.089 138087168 139351520 140835104 142524128 144405264 146463392 
997.982 148681840 151041296 153522896 156110576 158786960 161530352 
1000.874 164310496 167082608 169791168 172378528 174789472 176985776 
1003.767 178950832 180691376 182234176 183623152 184917408 186181968 
1006.660 187488864 188911728 190512160 192338256 194415632 196745808 
1009.552 199310336 202078112 205016112 208091888 211276448 214542640 
1012.445 217857568 221183024 224479280 227707664 230840160 233859536 
1015.338 236752944 239502512 242072496 244399952 246404400 247996032 
1018.231 249094192 249651872 249664896 249179600 248283488 247105760 
1021.123 245805408 244545344 243497136 242814032 242608976 242955056 
1024.016 243870592 245326544 247253280 249559904 252150896 254925584 
1026.909 257789344 260646528 263388096 265902096 268073552 269793600 
1029.802 270980832 271581664 271571168 270947168 269721120 267913936 
1032.695 265554304 262684800 259362816 255652224 251620560 247324896 
1035.588 242802288 238074608 233153616 228051568 222792768 217416240 
1038.481 211972944 206525024 201134816 195863712 190774272 185919952 
1041.374 181344464 177070288 173085936 169337744 165727472 162133792 
1044.267 158421344 154474560 150228448 145675552 140873792 135926880 
1047.160 130975784 126166952 121628616 117470144 113763664 110545272 
1050.053 107821848 105574312 103766520 102350592 101277216 100499184 
1052.947 99972424 99660840 99529936 99542696 99658760 99827632 99989984 
1056.322 100086064 100054776 99843608 99415984 98750904 97847888 96727032 
1059.697 95430656 94020176 92570336 91169704 89905896 88857600 88094248 
1063.072 87663320 87592616 87890032 88544368 89526304 90786400 92261832 
1066.448 93869904 95513344 97095232 98518208 99699896 100584712 101141024 
1069.823 101363160 101264376 100871344 100216632 99333144 98255176 97014232 
1073.198 95639984 94163328 92615360 91030632 89452000 87926296 86506824 
1076.573 85250512 84206864 83417992 82911472 82696248 82763712 83087080 
1079.948 83626304 84325904 85118240 85930608 86680936 87291320 87700264 
1083.324 87868408 87793408 87511512 87099992 86662080 86314496 86181216 
1086.699 86367536 86956424 88001800 89519136 91484792 93831120 96457720 
1090.074 99226456 101974856 104546432 106791448 108593520 109884560 
1092.967 110639856 110878280 110648408 110021776 109077368 107891336 
1095.860 106539112 105086152 103589368 102102000 100667808 99321600 98085712 
1099.236 96961496 95925680 94925064 93885328 92714040 91316384 89620536 
1102.611 87585440 85217576 82568312 79732592 76831808 73989288 71329104 
1105.986 68952960 66932096 65312764 64112836 63328124 62938428 62913456 
1109.361 63216924 63806012 64636724 65660468 66821708 68062136 69315288 
1112.737 70507368 71568024 72428696 73032608 73344728 73351168 73061152 
1116.112 72501592 71714568 70749040 69652792 68473840 67253056 66022024 
1119.487 64805560 63618616 62469412 61361748 60297596 59279452 58312388 
1122.862 57402184 56554572 55772612 55054416 54393656 53781452 53210220 
1126.238 52678044 52191952 51767056 51426564 51196304 51097784 51146016 
1129.613 51343956 51682552 52139192 52681224 53268728 53854064 54390764 
1132.988 54836916 55160264 55346496 55400996 55350448 55235440 55106396 
1136.363 55014508 54999728 55088076 55286356 55582168 55944440 56327948 
1139.739 56681740 56948852 57076256 57022484 56756200 56262504 55540672 
1143.114 54602548 53468612 52165348 50724600 49179508 47565064 45918036 
1146.489 44272020 42658720 41105440 39631672 38250948 36970160 35790636 
1149.864 34711312 33730012 32844618 32053870 31356256 30750622 30234842 
1153.240 29807002 29465458 29209298 29038408 28952864 28951836 29033554 
1156.615 29195688 29435814 29753134 30148742 30626054 31188506 31839286 
1159.990 32579102 33406518 34317264 35304672 36360508 37472336 38623048 
1163.365 39791092 40947428 42059176 43093128 44015744 44798364 45418956 
1166.740 45861104 46116408 46183620 46069728 45788088 45358556 44806296 
1170.116 44157232 43437468 42672284 41882756 41088796 40309084 39560456 
1173.491 38860220 38225184 37668836 37203252 36836620 36573664 36417976 
1176.866 36372148 36439164 36623088 36928600 37359692 37920780 38615732 
1180.241 39449048 40427224 41557692 42849096 44310768 45949856 47771732 
1183.617 49778900 51970020 54337252 56862280 59514992 62244464 64979656 
1186.992 67637000 70115464 72313336 74139984 75515728 76387096 76729712 
1190.367 76548984 75879592 74781360 73336768 71634568 69766976 67824440 
1193.742 65881096 63999324 62225232 60586332 59095896 57754732 56553928 
1197.118 55478436 54509756 53628808 52815200 52048752 51309836 50577788 
1200.493 49832636 49056700 48235168 47359420 46429232 45453908 44451140 
1203.868 43444940 42463420 41532388 40673276 39900808 39221492 38635436 
1207.243 38138032 37722828 37382480 37110060 36899492 36744156 36637828 
1210.619 36575212 36552756 36569808 36629108 36736404 36898952 37123880 
1213.994 37418016 37785644 38229276 38749352 39343832 40008008 40733500 
1217.369 41509784 42324276 43164044 44018824 44880876 45746116 46613192 
1220.744 47482816 48357444 49241148 50141640 51070132 52040796 53070544 
1224.120 54175440 55366972 56650864 58024628 59477868 60991848 62541732 
1227.495 64096628 65618964 67069808 68407904 69594024 70598496 71400336 
1230.870 71992384 72381288 72588992 72652904 72622944 72566400 72562520 
1234.245 72694776 73054368 73726408 74783600 76287952 78282688 80793784 
1237.621 83831576 87391920 91455552 95983288 100919792 106185712 111677008 
1240.996 117280152 122866360 128299696 133454200 138202112 142423856 
1243.889 146018144 148898112 151003120 152302576 152793312 152497232 
1246.782 151453312 149719424 147363872 144464000 141106464 137372560 
1249.675 133329688 129025488 124479696 119690904 114647048 109343200 
1252.568 103795088 98051240 92189064 86315832 80556272 75027744 69841920 
1255.943 65084912 60807412 57029364 53737764 50895264 48444896 46320284 
1259.319 44454852 42779952 41236620 39776748 38362484 36971676 35594336 
1262.694 34231460 32890544 31583254 30322130 29117662 27978928 26912932 
1266.069 25924420 25016590 24189648 23440750 22764192 22152562 21599104 
1269.444 21098700 20649494 20252200 19908996 19622322 19393140 19222158 
1272.820 19109750 19057472 19068272 19145276 19290356 19501428 19771724 
1276.195 20088824 20434496 20788022 21124580 21417712 21642952 21778274 
1279.570 21808446 21729016 21546908 21279542 20950408 20585044 20204330 
1282.945 19820792 19439398 19059408 18679442 18301398 17932554 17585348 
1286.321 17274964 17014798 16814988 16681889 16618196 16625563 16706234 
1289.696 16862072 17094542 17402518 17781784 18224334 18718946 19252808 
1293.071 19809244 20368618 20908338 21402048 21824472 22156502 22388158 
1296.446 22522912 22577146 22578752 22558684 22549226 22579066 22669542 
1299.822 22836232 23087716 23424488 23837612 24305618 24797176 25269200 
1303.197 25674734 25971658 26125192 26115904 25940424 25610060 25147600 
1306.572 24582322 23949534 23284070 22619206 21986376 21409010 20902844 
1309.947 20474992 20124848 19846702 19633380 19480010 19384168 19345572 
1313.323 19364108 19438184 19564054 19737288 19954302 20213876 20516954 
1316.698 20865052 21257690 21690910 22157058 22646956 23153170 23671168 
1320.073 24200366 24741468 25293644 25851654 26403658 26932216 27418180 
1323.448 27842472 28190908 28457256 28645472 28771632 28861530 28951448 
1326.823 29082656 29292374 29611010 30051298 30606358 31248962 31939198 
1330.199 32634464 33295962 33899820 34438624 34919208 35358084 35775564 
1333.574 36192220 36624672 37086096 37586524 38131772 38723524 39358052 
1336.949 40027120 40718032 41416684 42110288 42788140 43442704 44068404 
1340.324 44660960 45216488 45731832 46205328 46636800 47026868 47375380 
1343.700 47680204 47936576 48136872 48274528 48345556 48349632 48289856 
1347.075 48169596 47988236 47738080 47402800 46960632 46391440 45681804 
1350.450 44833336 43864772 42813592 41730152 40669748 39692040 38849276 
1353.825 38183508 37725540 37488300 37466268 37632776 37945548 38349308 
1357.201 38783480 39195928 39543980 39799696 39951848 40002380 39966120 
1360.576 39867540 39744760 39646516 39625828 39738368 40026324 40507744 
1363.951 41172648 41983656 42884832 43805940 44676276 45427452 45993948 
1367.326 46325264 46387456 46169396 45685008 44970536 44078856 43064768 
1370.702 41983220 40882372 39799300 38768552 37824068 37000288 36335072 
1374.077 35861632 35599196 35548128 35688824 35990408 36418984 36950068 
1377.452 37574028 38296072 39134464 40116292 41276992 42654520 44289044 
1380.827 46215016 48445152 50951408 53643204 56372428 58924680 61051636 
1384.203 62521376 63125528 62729544 61299472 58928968 55843668 52359940 
1387.578 48845936 45612168 42857036 40662868 39007432 37810480 36967240 
1390.953 36380108 35964924 35652244 35391044 35141604 34876192 34582232 
1394.328 34260792 33925292 33593884 33282224 32997742 32738958 32499250 
1397.704 32272558 32058578 31865240 31707916 31603884 31568750 31610336 
1401.079 31729374 31921010 32177846 32492538 32859520 33275284 33739396 
1404.454 34252400 34814688 35425088 36079836 36773620 37500728 38257284 
1407.829 39041800 39854972 40698456 41572968 42477708 43410920 44370360 
1411.205 45353480 46354976 47363740 48356408 49299604 50151648 50871124 
1414.580 51431676 51829844 52089620 52255740 52387752 52550204 52798324 
1417.955 53177448 53712940 54405260 55230212 56143976 57095868 58036480 
1421.330 58928208 59750544 60500400 61196996 61879196 62601240 63414276 
1424.706 64350932 65415100 66581784 67808832 69049600 70268712 71442864 
1428.081 72560840 73620408 74625280 75583864 76510176 77429248 78376384 
1431.456 79389904 80507616 81755608 83145016 84674760 86341704 88150912 
1434.831 90119904 92279952 94662968 97285416 100127416 103136584 106246848 
1438.207 109394472 112523864 115574040 118473080 121114064 123357768 
1441.100 125062016 126083584 126311200 125683784 124189184 121868936 
1443.993 118809848 115148064 111049784 106687776 102246008 97890272 93767672 
1447.368 90013248 86728024 83968768 81734296 79971560 78594720 77515392 
1450.743 76675984 76059760 75688920 75601560 75827224 76361776 77165112 
1454.118 78160936 79254120 80352536 81369008 82248976 82985664 83635384 
1457.494 84292104 85048712 85979632 87121776 88489648 90086112 91902984 
1460.869 93917776 96083400 98332712 100563448 102638056 104410224 105735240 
1464.244 106520352 106761608 106556048 106070008 105471488 104901928 
1467.137 104445792 104136448 103976488 103945128 104003776 104084528 
1470.030 104087472 103878040 103290896 102181824 100479512 98236408 95623712 
1473.406 92871912 90189960 87705208 85476728 83525808 81866256 80524760 
1476.781 79532224 78902880 78621680 78639432 78888656 79296992 79809712 
1480.156 80400696 81071320 81844888 82753288 83829208 85099424 86589600 
1483.531 88332104 90367808 92743656 95497896 98641608 102132728 105853776 
1486.906 109621728 113173072 116187384 118339000 119309896 118863688 
1489.800 116913568 113555832 109069496 103832160 98244336 92620040 87148304 
1493.175 81927472 76977920 72294520 67894984 63829960 60190216 57084868 
1496.550 54599656 52766596 51554408 50893476 50697268 50887292 51405232 
1499.925 52205516 53250296 54504872 55928836 57476800 59101100 60737444 
1503.301 62304968 63699296 64764708 65301404 65080836 63901544 61701184 
1506.676 58637236 55061372 51354508 47785084 44462852 41384096 38506888 
1510.051 35800136 33257078 30900804 28767206 26882122 25256030 23877870 
1513.426 22723482 21763782 20971412 20323096 19795164 19364522 19011878 
1516.802 18724238 18500750 18349714 18281076 18297492 18389328 18533496 
1520.177 18702860 18875788 19050200 19245466 19494428 19823048 20236682 
1523.552 20722958 21260230 21831266 22429466 23062976 23749658 24509640 
1526.927 25353774 26279910 27275934 28327156 29423936 30564192 31754256 
1530.302 33005680 34330100 35737716 37233900 38816848 40476828 42194188 
1533.678 43941460 45688872 47411668 49091796 50716968 52270832 53731388 
1537.053 55073860 56263220 57264896 58048788 58595484 58896444 58953440 
1540.428 58782392 58410548 57876996 57224144 56484940 55672636 54777300 
1543.803 53777440 52656276 51421976 50113860 48793584 47520632 46323016 
1547.179 45194652 44098880 42992400 41846780 40670436 39506996 38422968 
1550.554 37473168 36678100 36021764 35464672 34966320 34502548 34075752 
1553.929 33709100 33429564 33248096 33148668 33087448 33004820 32826676 
1557.304 32472468 31872980 30993528 29875072 28640094 27443872 26398730 
1560.680 25541142 24850116 24277762 23772758 23287950 22788390 22255086 
1564.055 21690526 21117136 20569826 20082402 19671204 19331092 19037980 
1567.430 18761326 18473506 18161104 17829562 17500788 17202842 16956052 
1570.805 16768700 16636545 16550519 16500646 16478274 16474420 16475694 
1574.181 16464509 16422492 16336920 16211774 16071264 15953276 15889173 
1577.556 15892094 15954375 16057441 16180821 16310876 16443620 16583702 
1580.931 16739601 16918670 17122974 17349100 17589730 17836674 18082168 
1584.306 18318746 18536468 18722302 18861182 18939016 18948430 18893470 
1587.682 18791598 18670034 18561714 18499264 18507356 18601968 18790870 
1591.057 19073672 19442342 19878334 20352400 20821008 21230584 21529256 
1594.432 21671266 21630692 21406888 21025036 20529148 19969186 19396016 
1597.807 18849798 18358978 17944812 17621026 17396414 17274998 17254726 
1601.183 17328512 17485576 17715996 18011500 18366168 18774404 19226002 
1604.558 19703448 20182532 20631566 21016202 21306198 21475396 21507110 
1607.933 21394218 21138286 20747458 20235364 19622426 18935210 18206920 
1611.308 17476850 16781202 16147153 15588585 15103596 14678677 14293241 
1614.684 13927513 13565544 13200700 12838211 12493858 12188999 11943134 
1618.059 11767669 11664391 11626340 11640226 11689068 11755481 11823505 
1621.434 11883775 11935675 11988671 12057821 12157138 12293799 12465589 
1624.809 12664055 12880157 13108419 13348009 13599799 13863879 14136028 
1628.185 14408483 14673159 14925033 15165387 15400244 15637428 15881440 
1631.560 16130785 16377106 16607042 16806446 16960840 17059804 17097954 
1634.935 17077102 17005908 16900068 16777550 16653657 16536888 16428376 
1638.310 16322607 16209265 16075801 15912408 15714340 15485975 15238408 
1641.686 14987621 14746474 14520193 14304884 14088005 13853206 13584175 
1645.061 13271444 12916576 12533928 12149096 11791228 11486148 11249044 
1648.436 11084464 10987500 10947878 10949611 10969795 10979004 10937140 
1651.811 10800770 10542925 10179084 9778337 9426716 9180142 9041412 8980757 
1655.669 8959616 8947744 8927450 8891566 8841482 8782276 8718953 8653272 
1659.526 8583412 8504676 8412339 8303034 8176164 8033941 7881507 7726496 
1663.384 7577339 7443030 7330734 7243768 7181275 7137013 7100906 7059549 
1667.241 6999742 6911698 6792134 6645721 6484390 6323589 6176324 6050579 
1671.098 5949055 5869418 5806417 5751954 5696154 5626399 5530578 5401832 
1674.956 5243947 5073179 4911727 4779982 4686157 4625940 4586090 4551300 
1678.813 4510921 4462143 4410961 4368286 4343921 4339370 4345528 4342147 
1682.671 4304399 4211244 4058173 3864669 3669380 3509551 3401540 3341100 
1686.528 3311651 3296293 3282304 3263075 3236669 3203388 3164570 3121650 
1690.385 3077967 3038759 3010799 3000589 3010598 3037124 3068823 3089179 
1694.243 3080503 3031185 2944041 2839806 2748799 2694251 2682482 2701219 
1698.100 2727326 2732194 2691284 2593375 2449236 2290855 2154775 2064178 
1701.958 2020168 2009782 2015008 2019902 2013710 1990143 1948870 1894256 
1705.815 1834358 1777463 1730122 1695593 1673640 1661400 1654581 1649293 
1709.673 1643040 1635689 1628938 1625712 1628306 1637718 1652685 1671079 
1713.530 1690837 1710629 1729856 1748319 1763523 1770975 1764188 1738073 
1717.387 1692733 1635689 1580549 1540080 1522224 1527445 1550488 1583343 
1721.245 1618362 1651554 1681989 1711760 1744028 1781289 1823843 1870262 
1725.102 1918683 1967709 2017172 2067008 2116083 2161368 2197899 2221311 
1728.960 2229404 2224841 2213118 2201129 2192204 2183512 2164265 2117448 
1732.817 2026626 1883307 1697822 1497886 1319810 1189449 1112673 1079090 
1736.675 1070786 1070553 1064674 1046008 1013725 972279 929110 891623 865195 
1741.014 851882 851484 862075 881065 905137 930771 955077 976297 994894 
1745.354 1012463 1031560 1053580 1078127 1102375 1121742 1131774 1129017 
1749.211 1112075 1081448 1039332 988618 933161 877679 827316 786286 757209 
1753.551 739617 729959 721330 706229 678186 635080 580067 521577 469166 
1757.890 429264 402599 384326 365953 338861 297413 240851 173889 104683 
1762.230 41253 -9873 -46683 -69575 -81468 -85411 -84881 -83854 -86239 -95150 
1767.052 -111349 -132515 -153151 -167360 -171236 -165804 -157358 -155072 
1770.909 -168420 -202070 -252772 -309328 -357336 -386204 -392758 -381999 
1774.767 -362368 -341510 -323930 -308964 -294031 -275554 -252871 -228299 
1778.624 -206276 -191240 -184881 -185444 -188425 -188822 -184318 -175972 
1782.481 -167923 -164181 -167692 -177992 -191969 -204918 -213397 -216079 
1786.339 -213728 -207435 -198096 -184848 -166996 -144208 -119199 -97204 
1790.196 -85576 -91009 -117079 -161697 -217039 -273203 -320917 -355746 
1794.054 -378126 -391898 -401498 -410105 -419307 -429767 -441452 -454824 
1797.911 -470811 -490040 -512347 -536142 -559439 -580120 -596897 -609900 
1801.769 -619562 -626708 -630679 -630215 -624326 -612613 -596169 -577639 
1805.626 -559968 -544613 -531873 -520422 -508144 -494144 -478887 -464886 
1809.483 -454427 -449297 -448668 -450091 -450190 -446549 -438804 -428807 
1813.341 -418943 -411230 -405404 -399479 -390176 -374816 -352072 -323135 
1817.198 -290720 -257540 -225551 -195744 -167195 -139770 -113369 -88690 
1821.056 -66561 -47412 -30813 -16003 -2650 9045 18058 23724 26938 30583 
1825.877 38702 54774 79694 110681 141637 164839 174883 170375 156089 141140 
1830.699 135771 146576 174552 215391 262965 311803 358791 404125 449530 
1835.039 497096 547421 599244 651340 702844 755582 813539 881298 962449 
1839.378 1058098 1166292 1282389 1401808 1520595 1635989 1746989 1853491 
1843.236 1956625 2058385 2161701 2269771 2385264 2508119 2635209 2760103 
1847.093 2874326 2968828 3037224 3076899 3089246 3078801 3050971 3009564 
1850.951 2955417 2887000 2802354 2700886 2584776 2458466 2327430 2196067 
1854.808 2066475 1939018 1812764 1687909 1565652 1448515 1338356 1235867 
1858.666 1139316 1046240 954314 863037 773739 689635 612948 544899 484258 
1863.005 429132 378555 333157 295556 268999 254776 250432 250731 248012 
1867.345 236309 213601 182971 152045 128413 117708 119961 131661 147504 
1871.684 163381 177237 189302 199744 208098 211645 207203 191590 164342 
1876.024 127054 83969 39365 -4208 -46385 -89088 -134470 -183026 -233830 
1880.364 -283932 -330849 -373425 -412786 -451514 -491497 -533527 -575058 
1884.221 -613209 -644905 -669090 -687814 -704355 -722383 -743123 -765748 
1888.078 -786982 -803221 -812514 -814598 -811026 -803783 -793133 -778481 
1891.936 -758636 -733365 -705116 -678055 -656915 -644608 -641233 -643450 
1895.793 -645799 -643880 -635807 -622639 -607518 -593621 -582205 -572079 
1899.651 -560994 -546665 -528894 -509402 -491199 -476603 -465846 -457274 
1903.508 -448171 -436884 -423544 -410568 -400902 -396598 -397625 -401465 
1907.365 -405338 -407258 -407986 -410270 -417818 -432084 -452242 -474584 
1911.223 -494244 -507912 -515094 -517775 -519727 -523566 -530582 -539484 
1915.080 -549478 -559968 -573238 -592231 -619330 -653640 -690759 -723111 
1918.938 -744711 -753079 -751558 -746795 -747059 -757743 -779408 -807718 
1922.795 -835432 -856961 -869890 -876338 -880836 -887085 -896278 -905900 
1926.653 -912182 -912876 -908413 -902791 -901072 -906726 -919522 -935789 
1930.510 -950072 -958007 -959098 -956453 -955527 -960486 -972587 -989050 
1934.367 -1005546 -1018207 -1025843 -1030239 -1034768 -1041742 -1050634 
1937.743 -1058104 -1060286 -1055625 -1045676 -1035032 -1029545 -1032851 
1941.118 -1044188 -1059162 -1071094 -1075159 -1070168 -1058897 -1045213 
1944.493 -1032156 -1018967 -1002075 -977347 -943592 -902990 -862219 -828190 
1948.351 -804973 -792273 -784964 -776695 -762804 -743123 -721986 -705546 
1952.208 -699227 -703792 -716495 -732207 -746894 -759132 -771172 -786684 
1956.065 -808545 -836557 -867509 -896740 -921341 -940154 -955593 -969380 
1959.923 -983232 -995629 -1004092 -1006769 -1005579 -1004654 -1010075 
1963.298 -1024851 -1048155 -1073606 -1093503 -1100675 -1094461 -1079555 
1966.673 -1064252 -1056451 -1058104 -1065409 -1070929 -1068912 -1059658 
1970.049 -1049180 -1047824 -1063062 -1096841 -1142085 -1186498 -1218384 
1973.424 -1232195 -1228825 -1216269 -1201103 -1184383 -1159335 -1114655 
1976.799 -1039891 -933839 -806131 -675805 -562649 -481733 -437877 -428476 
1980.656 -445821 -482594 -534520 -598948 -673027 -750929 -823262 -879910 
1984.514 -914430 -926763 -924349 -918398 -919324 -931260 -950568 -967561 
1988.371 -973049 -961577 -935326 -902891 -874751 -857986 -853191 -855043 
1992.229 -855770 -848793 -832423 -809736 -785956 -765384 -749937 -738426 
1996.086 -729462 -723210 -721986 -728800 -745405 -769287 -794026 -812117 
1999.944 -817574 -809835 -794126 -779242 -773752 -781194 -799649 -822766 
2003.801 -844394 -860234 -870750 -878819 -886920 -893235 -893335 -880373 
2007.658 -852298 -812878 -773553 -746464 -741304 -758570 -790421 -822072 
2011.516 -839897 -836391 -813242 -779672 -746365 -721920 -708291 -701576 
2015.373 -696250 -687649 -675872 -663102 -653276 -646096 -638288 -624756 
2019.231 -601959 -569829 -533759 -499771 -473194 -452871 -433772 -407821 
2023.088 -370181 -322373 -272541 -231942 -209621 -207667 -221411 -240320 
2026.946 -254063 -258103 -254428 -250553 -254129 -268369 -290223 -311547 
2030.803 -322175 -314361 -285852 -238698 -176833 -103829 -21801 67499 160332 
2035.143 249736 327355 385155 420177 435765 441171 447838 464854 495835 
2039.482 538330 586072 632127 671881 704669 731187 751998 765905 769390 
2043.822 759034 735037 701350 666074 639062 628875 640057 672379 721861 
2048.161 783796 852247 920975 983072 1030165 1054079 1050193 1018972 968825 
2052.501 912907 868316 848596 859651 897932 952786 1009739 1057134 1089852 
2056.841 1109783 1122141 1132705 1143269 1152505 1156292 1152903 1143468 
2060.698 1133136 1128718 1135063 1152106 1175860 1198619 1214136 1219020 
2064.555 1214568 1204201 1192074 1180246 1167322 1150445 1127389 1098522 
2068.413 1067099 1037638 1014323 998979 990013 984500 979983 975533 972246 
2072.752 971781 974936 979817 983005 980980 972777 960922 950329 947639 
2077.092 956904 978223 1007315 1037737 1063611 1081315 1091281 1096529 
2080.949 1100681 1105664 1111411 1116095 1117988 1116161 1111477 1106195 
2084.807 1102209 1100316 1099917 1099851 1099153 1097692 1096064 1094370 
2088.664 1091779 1085434 1071749 1048598 1015618 976596 937976 906697 888170 
2093.004 884319 893018 910649 932730 956173 979684 1003562 1027607 1051023 
2097.344 1071616 1087660 1098190 1104634 1110049 1118254 1132107 1152903 
2101.201 1179648 1210747 1244407 1279963 1317151 1355805 1394761 1431826 
2105.058 1465170 1493829 1519066 1544070 1572701 1608252 1651089 1699086 
2108.916 1748120 1794897 1837586 1877118 1915888 1956259 1998265 2039709 
2112.773 2076363 2104663 2122742 2132598 2138425 2145351 2157505 2176253 
2116.631 2200596 2228871 2259379 2292354 2329262 2371404 2418581 2468396 
2120.488 2516517 2558311 2590342 2611975 2625476 2634876 2643877 2655545 
2124.345 2671047 2690117 2712355 2737495 2764938 2793750 2822297 2847176 
2128.203 2865587 2875326 2876160 2870123 2860617 2850912 2843508 2839405 
2132.060 2838738 2842340 2852012 2870757 2900976 2942974 2994017 3047868 
2135.918 3098490 3140539 3173014 3197914 3219544 3240641 3261505 3278465 
2139.775 3286511 3282337 3265111 3238571 3208695 3180490 3156693 3135200 
2143.633 3112172 3083840 3049236 3010698 2972998 2940005 2912684 2887801 
2147.490 2859984 2824931 2782445 2736495 2693651 2658812 2631509 2605342 
2151.347 2569143 2511585 2425878 2311774 2176353 2028923 1879647 1734547 
2155.205 1597643 1472418 1365344 1287141 1253146 1274281 1353944 1482027 
2159.062 1637352 1794198 1929500 2029988 2093975 2127204 2138325 2135229 
2162.920 2123974 2107360 2087816 2069105 2053891 2044103 2039077 2034116 
2166.777 2023896 2002659 1968008 1921079 1866536 1809170 1752944 1698387 
2170.635 1643539 1586136 1525350 1462212 1400811 1345003 1297543 1259460 
2174.492 1229720 1205829 1185661 1167887 1151275 1132970 1109783 1077130 
2178.349 1032091 975102 910582 846205 790535 750371 727669 720301 722890 
2182.689 730457 740115 751799 766901 786319 808560 830569 848828 861676 
2187.029 870541 880534 896869 923100 958697 999610 1039929 1074473 1101379 
2191.368 1122141 1140179 1158584 1177389 1194167 1204832 1207391 1202473 
2195.226 1194466 1189283 1192738 1206992 1231414 1261786 1294087 1324829 
2199.083 1353412 1379504 1403603 1423482 1436979 1441101 1435250 1421388 
2202.940 1405398 1392933 1388944 1394329 1406861 1421354 1433588 1441234 
2206.798 1445423 1449412 1456194 1467199 1481594 1496523 1509556 1519332 
2210.655 1526879 1534261 1543671 1555775 1570274 1585571 1601201 1617397 
2214.513 1636721 1660435 1688375 1717448 1742497 1757601 1759131 1747288 
2218.370 1726230 1702379 1682255 1670280 1667819 1673008 1682820 1694828 
2222.228 1706969 1718679 1729357 1737541 1741233 1738572 1728692 1712026 
2226.085 1691668 1671112 1653051 1639747 1631000 1626211 1624814 1626909 
2229.942 1633095 1643672 1657674 1673340 1687643 1698387 1704608 1708034 
2233.800 1711294 1716916 1726230 1738406 1751280 1762891 1772705 1782686 
2237.657 1796560 1817721 1847169 1882975 1920048 1952964 1976995 1991108 
2241.515 1996933 1999297 2002293 2009749 2023164 2042439 2066808 2096339 
2245.372 2131100 2171890 2217947 2267572 2317103 2362476 2400223 2428711 
2249.229 2447937 2459033 2463498 2462365 2456434 2447270 2436907 2429077 
2253.087 2428344 2437907 2458700 2488790 2522316 2552478 2572243 2577576 
2256.944 2567043 2542880 2508919 2470329 2431610 2396092 2366174 2343454 
2260.802 2328230 2320168 2317936 2320201 2325032 2332394 2342088 2355879 
2264.659 2375136 2400323 2430343 2462465 2492823 2517850 2535681 2546212 
2268.517 2551112 2552645 2552445 2551412 2549212 2544979 2538447 2530581 
2272.374 2523416 2519250 2520283 2527515 2540780 2559478 2582109 2607575 
2276.231 2635043 2663079 2690350 2715723 2737696 2755268 2768440 2777977 
2280.089 2785113 2790815 2795951 2800786 2805855 2811725 2819295 2829467 
2283.946 2843141 2859450 2876727 2892304 2903778 2909816 2910917 2908748 
2287.804 2906280 2905379 2907347 2911650 2916887 2921524 2924827 2927128 
2291.661 2929764 2934134 2941539 2952048 2965825 2981906 3000256 3020975 
2295.519 3043797 3069024 3095619 3122317 3147381 3169509 3187800 3202387 
2299.376 3213435 3220879 3224952 3224818 3220278 3211700 3200250 3187867 
2303.233 3176852 3168441 3163068 3159797 3157027 3153389 3148683 3143643 
2307.091 3140072 3139738 3143410 3151286 3162166 3174950 3188401 3202287 
2310.948 3216540 3231761 3247885 3264644 3280935 3295992 3309247 3320599 
2314.806 3330449 3339330 3347511 3355024 3361468 3366544 3370283 3373222 
2318.663 3376194 3380401 3386946 3397132 3411592 3430828 3454340 3480325 
2322.521 3504975 3523280 3529426 3518269 3486871 3435971 3369883 3295391 
2326.378 3220679 3153522 3098723 3058412 3031652 3015470 3006328 3001390 
2330.235 2998888 2998220 2999455 3003025 3008730 3016504 3026180 3037291 
2334.093 3049270 3062016 3074630 3086876 3098656 3110737 3124219 3140673 
2337.950 3160932 3185230 3212434 3240708 3268116 3294022 3318429 3342569 
2341.808 3367278 3392490 3416768 3437841 3453171 3462556 3467900 3474146 
2345.665 3487072 3512825 3554948 3613614 3686021 3767364 3851731 3933474 
2349.522 4008041 4072119 4123797 4162835 4190368 4209203 4222352 4233226 
2353.380 4244636 4257049 4270266 4282848 4293355 4301788 4309318 4318487 
2357.237 4332810 4354597 4385121 4423178 4466562 4512327 4557594 4600690 
2361.095 4640809 4678018 4712852 4745947 4777503 4808325 4838880 4869840 
2364.952 4901473 4934080 4967024 5000272 5033523 5066877 5100703 5135168 
2368.810 5169804 5203336 5233853 5259140 5278357 5292142 5302573 5313172 
2372.667 5327663 5349030 5378584 5416527 5461990 5513833 5571287 5634119 
2376.524 5702668 5777237 5858301 5945696 6039425 6139423 6245227 6356504 
2380.382 6472282 6591085 6711131 6829932 6945466 7056046 7160828 7258963 
2384.239 7350582 7435143 7512135 7580879 7641170 7692633 7736041 7771863 
2388.097 7800773 7822735 7837984 7846080 7847194 7841897 7831439 7817202 
2391.954 7800807 7782826 7763666 7743057 7721065 7697793 7674287 7651624 
2395.812 7631324 7614665 7602189 7594333 7591669 7594974 7605460 7624276 
2399.669 7652332 7689800 7736277 7790484 7851074 7916599 7986353 8059830 
2403.526 8137102 8218236 8303878 8394637 8491497 8595307 8706680 8825082 
2407.384 8949435 9077612 9207825 9338720 9470636 9605506 9745737 9893538 
2411.241 10049495 10211750 10376881 10539902 10696193 10842451 10976898 
2414.616 11099217 11209704 11308180 11394162 11466756 11525002 11568727 
2417.992 11598877 11616914 11624673 11623789 11615552 11601157 11582066 
2421.367 11560423 11538136 11517619 11499994 11485671 11474104 11464748 
2424.742 11457842 11455086 11459270 11473933 11502308 11546200 11605343 
2428.117 11678346 11762835 11857521 11961491 12075162 12199597 12335692 
2431.493 12483594 12643008 12812956 12992770 13181675 13379581 13586055 
2434.868 13800940 14023528 14253214 14489976 14733860 14985461 15245924 
2438.243 15515574 15794704 16082678 16379032 16683405 16995812 17316306 
2441.618 17645180 17981970 18325244 18673388 19024618 19378486 19735104 
2444.994 20096076 20463010 20837068 21218510 21606104 21997670 22390914 
2448.369 22783746 23174662 23562642 23946734 24325978 24699274 25065136 
2451.744 25422382 25770146 26107142 26432638 26744598 27041304 27320144 
2455.119 27579394 27817282 28032116 28223154 28388098 28524514 28629192 
2458.495 28698636 28730176 28722566 28675664 28590864 28469710 28314000 
2461.870 28124548 27902850 27650260 27369618 27065108 26742696 26408340 
2465.245 26068402 25728872 25394698 25071068 24763252 24476758 24217288 
2468.620 23990222 23799460 23646956 23532490 23454214 23409592 23395568 
2471.996 23409940 23450578 23515490 23601928 23706754 23825784 23955206 
2475.371 24090868 24229656 24369328 24507292 24641618 24770058 24890078 
2478.746 24999500 25096274 25179022 25246690 25298666 25334140 25353002 
2482.121 25354828 25339866 25308466 25262000 25201602 25128956 25045936 
2485.497 24954436 24856500 24754834 24651542 24549014 24448504 24350298 
2488.872 24253130 24154896 24053042 23944984 23829038 23704236 23570864 
2492.247 23429804 23282044 23128322 22968960 22803336 22630342 22447924 
2495.622 22253794 22045494 21821198 21580230 21323110 21052336 20771406 
2498.998 20484962 20197318 19911912 19631508 19357318 19089634 18828102 
2502.373 18572260 18321442 18074984 17832668 17594182 17359720 17130108 
2505.748 16906578 16690394 16483197 16285626 16097670 15918354 15746394 
2509.123 15580720 15420945 15267681 15121951 14985392 14858682 14741983 
2512.499 14634707 14535301 14442702 14355841 14274066 14197373 14125827 
2515.874 14059667 13999128 13944723 13897029 13857140 13826149 13804497 
2519.249 13791773 13787258 13789345 13797007 13809491 13827038 13850607 
2522.624 13880881 13918138 13961728 14009804 14060488 14111451 14161187 
2526.000 14208876 14254240 14297009 14336698 14372657 14403516 14427938 
2529.375 14444449 14451985 14449382 14435851 14410915 14375089 14329745 
2532.750 14277285 14220619 14163105 14107515 14055491 14007785 13964328 
2536.125 13924776 13889126 13857585 13830698 13808806 13791773 13778708 
2539.500 13768379 13759521 13751620 13745020 13740335 13738351 13738693 
2542.876 13740950 13742797 13743036 13740267 13734829 13727715 13720773 
2546.251 13715985 13714344 13715952 13720192 13725971 13731922 13737052 
2549.626 13740779 13742249 13741327 13737565 13730965 13722552 13713455 
2553.001 13705692 13700631 13699435 13702102 13707813 13715062 13722518 
2556.377 13728707 13732879 13734111 13731614 13724604 13711882 13692766 
2559.752 13666881 13634365 13596312 13553408 13506750 13456746 13403809 
2563.127 13348077 13290508 13232501 13175972 13122899 13074749 13032068 
2566.502 12994853 12962080 12933200 12907667 12885788 12868040 12855479 
2569.878 12848551 12847118 12850736 12858415 12869269 12882784 12898622 
2573.253 12916917 12937944 12962113 12989766 13021483 13057369 13097628 
2576.628 13141716 13189190 13238719 13288902 13338237 13386074 13431831 
2580.003 13475509 13517619 13559151 13600996 13644245 13690099 13739685 
2583.379 13793792 13852967 13916872 13984893 14055662 14127984 14200899 
2586.754 14273826 14346971 14420814 14495697 14571826 14648791 14726318 
2590.129 14803894 14881449 14959156 15037321 15115707 15194415 15272486 
2593.504 15349096 15423624 15495487 15564820 15632274 15698057 15762784 
2596.880 15826490 15889071 15950903 16012333 16074186 16137592 16203659 
2600.255 16273001 16346106 16422767 16503124 16587144 16675210 16767668 
2603.630 16864828 16966904 17073380 17183744 17297170 17413038 17531286 
2607.005 17651944 17775364 17901790 18031358 18163490 18297976 18433922 
2610.381 18570462 18706354 18840732 18972176 19099780 19222780 19340620 
2613.756 19453050 19560000 19661046 19755910 19843960 19924608 19997218 
2617.131 20062172 20119778 20171356 20218180 20261468 20302262 20341082 
2620.506 20377958 20413242 20446894 20479126 20510006 20539950 20568716 
2623.882 20596648 20624060 20651614 20680214 20711108 20745062 20782982 
2627.257 20825144 20871172 20920610 20972768 21027330 21084230 21143190 
2630.632 21204350 21267120 21331046 21395260 21459032 21521734 21583016 
2634.007 21642812 21701568 21759220 21816042 21872068 21927616 21982716 
2637.383 22037408 22091928 22146460 22201204 22256514 22312844 22370610 
2640.758 22430198 22492028 22556382 22623150 22692130 22763076 22835638 
2644.133 22909576 22984784 23061124 23138664 23217096 23296970 23378364 
2647.508 23462012 23548824 23639364 23734224 23833134 23935738 24040890 
2650.884 24147436 24254566 24361898 24469748 24578780 24689876 24803630 
2654.259 24920292 25039792 25162100 25287216 25415216 25546274 25680886 
2657.634 25819058 25960508 26104854 26251256 26399082 26547906 26697240 
2661.009 26847050 26997156 27147492 27297810 27447896 27597754 27747274 
2664.385 27896632 28045864 28195150 28344344 28493342 28642182 28790608 
2667.760 28938874 29087050 29235594 29384792 29535070 29686678 29839934 
2671.135 29995128 30152294 30311544 30472698 30635406 30799278 30963710 
2674.510 31128098 31292014 31454992 31616572 31776428 31934242 32089934 
2677.885 32244116 32397170 32550604 32705482 32863702 33026666 33196054 
2681.261 33372954 33558516 33753828 33959508 34175824 34402544 34639500 
2684.636 34885848 35140924 35404456 35675948 35955532 36243328 36539024 
2688.011 36842392 37152432 37468508 37789804 38116036 38447256 38783696 
2691.386 39125800 39473688 39827192 40186216 40550704 40920888 41297144 
2694.762 41680036 42070092 42467076 42870712 43280032 43694504 44113180 
2698.137 44536048 44963004 45393940 45829028 46267760 46709552 47153756 
2701.512 47599408 48045668 48491424 48935412 49375776 49810784 50238344 
2704.887 50656828 51064800 51461068 51844332 52213360 52566360 52901348 
2708.263 53216064 53508784 53778116 54024012 54246540 54446840 54625808 
2711.638 54784480 54923844 55044636 55147364 55232432 55299448 55347848 
2715.013 55376268 55383268 55367496 55327976 55264456 55177388 55067392 
2718.388 54935952 54784480 54614796 54429524 54231448 54025024 53814832 
2721.764 53606464 53404680 53214156 53038272 52879488 52739544 52619356 
2725.139 52519728 52441320 52384572 52349884 52337700 52348012 52380872 
2728.514 52436088 52513184 52611240 52729332 52865868 53019104 53187112 
2731.889 53368152 53560396 53762624 53972828 54189628 54411268 54635992 
2735.265 54862332 55089056 55315068 55539844 55762628 55982584 56198652 
2738.640 56409852 56615152 56814128 57006696 57193604 57375600 57553852 
2742.015 57729644 57904216 58078784 58254864 58434428 58619296 58811264 
2745.390 59012120 59222412 59442496 59671584 59908324 60150144 60393924 
2748.766 60636124 60872628 61099464 61313208 61511104 61692020 61855548 
2752.141 62002088 62133392 62250584 62355488 62449212 62533164 62608168 
2755.516 62674724 62732680 62780844 62817568 62840192 62845900 62832496 
2758.891 62797612 62739684 62657496 62549688 62415316 62253376 62063664 
2762.267 61846796 61604568 61339808 61055564 60755276 60442052 60118368 
2765.642 59787276 59451308 59114084 58779696 58452884 58138216 57839748 
2769.017 57560740 57303116 57068096 56856120 56667548 56502032 56358956 
2772.392 56237496 56136472 56054432 55989708 55940408 55904604 55879956 
2775.768 55863452 55851808 55840504 55825172 55800904 55763004 55707516 
2779.143 55631200 55531224 55405628 55253768 55076528 54876320 54657072 
2782.518 54424152 54182952 53938988 53696556 53458492 53226252 53000388 
2785.893 52780624 52565948 52355268 52146852 51938500 51727264 51510760 
2789.269 51286456 51053620 50812120 50563644 50310436 50055480 49801384 
2792.644 49550516 49305432 49067720 48839484 48622784 48419152 48230392 
2796.019 48057548 47900984 47760972 47636936 47528764 47435952 47358344 
2799.394 47295348 47246580 47211712 47189988 47181012 47183968 47198116 
2802.770 47222200 47254376 47292244 47333660 47376156 47418324 47458976 
2806.145 47498560 47537080 47575120 47612164 47647732 47680204 47707640 
2809.520 47728316 47740372 47742440 47733196 47711376 47675392 47624368 
2812.895 47557152 47473652 47374272 47260656 47134956 47000248 46860448 
2816.271 46719444 46581984 46452500 46336028 46237020 46159852 46108448 
2819.646 46086160 46095624 46138884 46217380 46331828 46482000 46666200 
2823.021 46881860 47124724 47389572 47670288 47960816 48254680 48546372 
2826.396 48830588 49102668 49358736 49594936 49808220 49996368 50157744 
2829.771 50292248 50400516 50484736 50548120 50593872 50625780 50647524 
2833.147 50662232 50673400 50684272 50698236 50718868 50750372 50795956 
2836.522 50859200 50943100 51050304 51183740 51346976 51544336 51782320 
2839.897 52068028 52410104 52818604 53303452 53875708 54547884 55332684 
2843.272 56245908 57305348 58529128 59936164 61541568 63352048 65360984 
2846.648 67542040 69847952 72201976 74506240 76647680 78499752 79947664 
2850.023 80896672 81281936 81081184 80313432 79037160 77334376 75307840 
2853.398 73068128 70715536 68345920 66039504 63855328 61837972 60012972 
2856.773 58389320 56962832 55719116 54638208 53696180 52869536 52137176 
2860.149 51479160 50879280 50323944 49801308 49302688 48821540 48353888 
2863.524 47898060 47454688 47026096 46615736 46228876 45871524 45550192 
2866.899 45271688 45042240 44866252 44745688 44680204 44666212 44697944 
2870.274 44767948 44867468 44986852 45116012 45245136 45364404 45466116 
2873.650 45545192 45599544 45630716 45643636 45645032 45641684 45640176 
2877.025 45645220 45660084 45686736 45726236 45779728 45847772 45930520 
2880.400 46028020 46139436 46264000 46400916 46549636 46710220 46882188 
2883.775 47064716 47256480 47454984 47657424 47861620 48065728 48269416 
2887.151 48473460 48678968 48887652 49100664 49319500 49545424 49780684 
2890.526 50028524 50292992 50578980 50892728 51240368 51628700 52065748 
2893.901 52559964 53119932 53753664 54466520 55259300 56125800 57051884 
2897.276 58013796 58978492 59907904 60760536 61495300 62080716 62495812 
2900.652 62735060 62808872 62743096 62574564 62343788 62093824 61862920 
2904.027 61681860 61575856 61562952 61656232 61865936 62200032 62664696 
2907.402 63266024 64009116 64899580 65943576 67147456 68516248 70052688 
2910.777 71753768 73607968 75592768 77676672 79815368 81955320 84040288 
2914.153 86007944 87798200 89359472 90648264 91637104 92316128 92693776 
2917.528 92793632 92649192 92300560 91783200 91124784 90342560 89441128 
2920.903 88416128 87257496 85956168 84508080 82918808 81204280 79392056 
2924.278 77519160 75625032 73751744 71937672 70212472 68598768 67109360 
2927.654 65748080 64512128 63393800 62382916 61467240 60635476 59876984 
2931.029 59181744 58541904 57951168 57404224 56898312 56431172 56001508 
2934.404 55608040 55249060 54921400 54621260 54343260 54081236 53828932 
2937.779 53579624 53327352 53067924 52798360 52517896 52228720 51935364 
2941.155 51644372 51363388 51100540 50862404 50653032 50472864 50317916 
2944.530 50180580 50049608 49912988 49759652 49581228 49375032 49144148 
2947.905 48897884 48649464 48414668 48208916 48044004 47927808 47862844 
2951.280 47846788 47872980 47932248 48014288 48107520 48201216 48285376 
2954.656 48350816 48390632 48399668 48375368 48317260 48227056 48107964 
2958.031 47964220 47800364 47621444 47431812 47235832 47037908 46841332 
2961.406 46650008 46466736 46294080 46134092 45988164 45856904 45740480 
2964.781 45638628 45550820 45476604 45415020 45365840 45328248 45301588 
2968.156 45284668 45276392 45275440 45280916 45292392 45310412 45336008 
2971.532 45370436 45414948 45469872 45534960 45608632 45688616 45771664 
2974.907 45854252 45931256 45997116 46045152 46067512 46056240 46004444 
2978.282 45906548 45760620 45567968 45333288 45064400 44771036 44464172 
2981.657 44154040 43850660 43561956 43293688 43048668 42826828 42624872 
2985.033 42437372 42257032 42077320 41892388 41699184 41497500 41289160 
2988.408 41076452 40860928 40641584 40414096 40171460 39904296 39604480 
2991.783 39266032 38887036 38470936 38026156 37564848 37099704 36643308 
2995.158 36204828 35789308 35397120 35024896 34667204 34317588 33970652 
2998.534 33623172 33274428 32925568 32579314 32238368 31905216 31580616 
3001.909 31264950 30957448 30657842 30365942 30082084 29807284 29542448 
3005.284 29288052 29043722 28808950 28582654 28364046 28152902 27949350 
3008.659 27753914 27566930 27387898 27216066 27049802 26887868 26728848 
3012.035 26572634 26419610 26270756 26127094 25989248 25857210 25730382 
3015.410 25607810 25488364 25371514 25257188 25145388 25036388 24930398 
3018.785 24827450 24727334 24630080 24535620 24444298 24356430 24272434 
3022.160 24192134 24115210 24041348 23970368 23902586 23839328 23782592 
3025.536 23735066 23699478 23677466 23669734 23675332 23691498 23713824 
3028.911 23737024 23755468 23763412 23756378 23731076 23686004 23621310 
3032.286 23538856 23441204 23331582 23213110 23088554 22960088 22829910 
3035.661 22699600 22571110 22446284 22326692 22213792 22108490 22010986 
3039.037 21920750 21836982 21758348 21683700 21612060 21542798 21475812 
3042.412 21411446 21350084 21292452 21238900 21189530 21143676 21100544 
3045.787 21058944 21017802 20976836 20936188 20896758 20859838 20826362 
3049.162 20796814 20771024 20747912 20726156 20704608 20682506 20659780 
3052.538 20637020 20614748 20593728 20574170 20555862 20538422 20521296 
3055.913 20504066 20486700 20469610 20453458 20438804 20426544 20417478 
3059.288 20412130 20410846 20414074 20421646 20433072 20447694 20465130 
3062.663 20484858 20506532 20530536 20556834 20585982 20618016 20652900 
3066.039 20690362 20729942 20770954 20812908 20854624 20895160 20932884 
3069.414 20966370 20993944 21014464 21027504 21033450 21033556 21029764 
3072.789 21024096 21019020 21016480 21018218 21025278 21038424 21057344 
3076.164 21080962 21107466 21134772 21160342 21182084 21198574 21209394 
3079.540 21215030 21216702 21215624 21213398 21210892 21208840 21207378 
3082.915 21206612 21206542 21207134 21208492 21210926 21215136 21222026 
3086.290 21232636 21247844 21268582 21294992 21326312 21361396 21398428 
3089.665 21435500 21471286 21505232 21537332 21568426 21599384 21631424 
3093.041 21665066 21700698 21738316 21778240 21820396 21865136 21912978 
3096.416 21964072 22018444 22075894 22135824 22197474 22260142 22323308 
3099.791 22386658 22450052 22513560 22576938 22640254 22703092 22765170 
3103.166 22826350 22886560 22946044 23005292 23065142 23125980 23187910 
3106.542 23250790 23313576 23375358 23435048 23492300 23547250 23601124 
3109.917 23655354 23711760 23771742 23836072 23904966 23978000 24054164 
3113.292 24132444 24211296 24289500 24365614 24438444 24506906 24571066 
3116.667 24631344 24689138 24746134 24803982 24863378 24924432 24985952 
3120.042 25046566 25104944 25160484 25213996 25267022 25321776 25380682 
3123.418 25444796 25514366 25588268 25664822 25741598 25816876 25889460 
3126.793 25958960 26025974 26091766 26157356 26223978 26292160 26361512 
3130.168 26431194 26499972 26566610 26630440 26691570 26750872 26810078 
3133.543 26871054 26935810 27005056 27079530 27158428 27240832 27325616 
3136.919 27411296 27497030 27581724 27664808 27745366 27823464 27898928 
3140.294 27972390 28044876 28117338 28190836 28266046 28343178 28421774 
3143.669 28501374 28581378 28661684 28742390 28823960 28906754 28990764 
3147.044 29075428 29160182 29244172 29327114 29409220 29491662 29575752 
3150.420 29662908 29754126 29849518 29948160 30048314 30147712 30244540 
3153.795 30337266 30426140 30511654 30595230 30678572 30763212 30849646 
3157.170 30938196 31028190 31118772 31209192 31298850 31387884 31476508 
3160.545 31565082 31654206 31743884 31834434 31925648 32017484 32110128 
3163.921 32203682 32298292 32394350 32491930 32590818 32690228 32789302 
3167.296 32886646 32981154 33071716 33157858 33239908 33318608 33395246 
3170.671 33471468 33548244 33626712 33706704 33787920 33869624 33950840 
3174.046 34030596 34107972 34182312 34252760 34318804 34380024 34436616 
3177.422 34489420 34539716 34589264 34639464 34691608 34745984 34802556 
3180.797 34860716 34920032 34980072 35041168 35103276 35166468 35230352 
3184.172 35294536 35358084 35420992 35483116 35545648 35609228 35674904 
3187.547 35742676 35812156 35882292 35951932 36020220 36086856 36152140 
3190.923 36217000 36282012 36348044 36415416 36484316 36554960 36627120 
3194.298 36700740 36775168 36849244 36921676 36991304 37057444 37120632 
3197.673 37182316 37244296 37308060 37374500 37442972 37511744 37578288 
3201.048 37640760 37697748 37749680 37798008 37845072 37893696 37945692 
3204.424 38002396 38064128 38130292 38199496 38269872 38339680 38406752 
3207.799 38470320 38529876 38586076 38640508 38694800 38750256 38807684 
3211.174 38866816 38926680 38985828 39043792 39100492 39156656 39213188 
3214.549 39270964 39330012 39390160 39450172 39509464 39567604 39624484 
3217.925 39680788 39737060 39793456 39850216 39906836 39963324 40020184 
3221.300 40078284 40138896 40203264 40272040 40344896 40420496 40496940 
3224.675 40571804 40643112 40709664 40771132 40828276 40883096 40937600 
3228.050 40994440 41055324 41120848 41190244 41261180 41330816 41396672 
3231.426 41456632 41510840 41560464 41607572 41654032 41701480 41749956 
3234.801 41799208 41848604 41898152 41948732 42002128 42059616 42122368 
3238.176 42190028 42261200 42334100 42406940 42478696 42549552 42619644 
3241.551 42689284 42758016 42824452 42887208 42945324 42998844 43049144 
3244.927 43098872 43150504 43206240 43266492 43330844 43397408 43464788 
3248.302 43531260 43596500 43660612 43724076 43787252 43850660 43914440 
3251.677 43978600 44043028 44107936 44173080 44238636 44303904 44368528 
3255.052 44432092 44494712 44556168 44616640 44676424 44734892 44791164 
3258.427 44844944 44895576 44943560 44989312 45033856 45077892 45121416 
3261.803 45163840 45204432 45242412 45277828 45311628 45345572 45381328 
3265.178 45420352 45462772 45508136 45555164 45602524 45648972 45694504 
3268.553 45739340 45784256 45829840 45876016 45922272 45967796 46011444 
3271.928 46052592 46091096 46127348 46162280 46197328 46233704 46272220 
3275.304 46313356 46357044 46402760 46450064 46498892 46549636 46603120 
3278.679 46660780 46723500 46792172 46866464 46945348 47027088 47109916 
3282.054 47192240 47273288 47352840 47431700 47510688 47590944 47673584 
3285.429 47759456 47849188 47943532 48042636 48146536 48254936 48367260 
3288.805 48483016 48602028 48724372 48850200 48980180 49114504 49253728 
3292.180 49397528 49546132 49699204 49857272 50020164 50188132 50360852 
3295.555 50537852 50718308 50901596 51087424 51276200 51468380 51665088 
3298.930 51866808 52073816 52285708 52502120 52722632 52947232 53176588 
3302.306 53411576 53652952 53901364 54157048 54420020 54690028 54967048 
3305.681 55251096 55541276 55837040 56136852 56439396 56744380 57051956 
3309.056 57363460 57680828 58005960 58339024 58679672 59025256 59373276 
3312.431 59722224 60071564 60422516 60777420 61138440 61507172 61883324 
3315.807 62265916 62653788 63045836 63442184 63843624 64250804 64663604 
3319.182 65081068 65501316 65922400 66342660 66761584 67179512 67596584 
3322.557 68013192 68428576 68841944 69252288 69659440 70063904 70466952 
3325.932 70869632 71271664 71671656 72067320 72455472 72834024 73201448 
3329.308 73557960 73903840 74239744 74565480 74880160 75182664 75471688 
3332.683 75746040 76004856 76246832 76470104 76672976 76853712 77011584 
3336.058 77147184 77262640 77360632 77443072 77510280 77560944 77592040 
3339.433 77600200 77582408 77537768 77465960 77368264 77245112 77096816 
3342.809 76922736 76721768 76492912 76235896 75950816 75638432 75298936 
3346.184 74932560 74539352 74120056 73675840 73209208 72722832 72219736 
3349.559 71701592 71169544 70623680 70064336 69492096 68908920 68317536 
3352.934 67720560 67120424 66518412 65914960 65310104 64704368 64099088 
3356.310 63496336 62899396 62311160 61734260 61170216 60619968 60083856 
3359.685 59561812 59053952 58559992 58079428 57610940 57153048 56704132 
3363.060 56262768 55828560 55401564 54983068 54574524 54177656 53793828 
3366.435 53424132 53069160 52729256 52403940 52092572 51793484 51505236 
3369.811 51225160 50951108 50681068 50413392 50147144 49881396 49615772 
3373.186 49349452 49081592 48811080 48537108 48258864 47976432 47690112 
3376.561 47400620 47109216 46817084 46525040 46233112 45940540 45645440 
3379.936 45345644 45038636 44722328 44395316 44057440 43709196 43352080 
3383.312 42987756 42617524 42242828 41864952 41485284 41105440 40727460 
3386.687 40352788 39982616 39617152 39255984 38897728 38541176 38185096 
3390.062 37829276 37473744 37119768 36768244 36420500 36077640 35740196 
3393.437 35407976 35080752 34757792 34438304 34121484 33807264 33495698 
3396.813 33187866 32884430 32586422 32294296 32007642 31724990 31445018 
3400.188 31166152 30887212 30607852 30328384 30049558 29772436 29497372 
3403.563 29224714 28954742 28687238 28422376 28160326 27901508 27645952 
3406.938 27393756 27144354 26897492 26652706 26409926 26169426 25931840 
3410.313 25697724 25467528 25241878 25020908 24804436 24592174 24383592 
3413.689 24177492 23973274 23770062 23567644 23366092 23166240 22969238 
3417.064 22776342 22588734 22407172 22231648 22061704 21896600 21735530 
3420.439 21577864 21422794 21269660 21117970 20967342 20817636 20669338 
3423.814 20522824 20379104 20238314 20100552 19965264 19831094 19696756 
3427.190 19561454 19424704 19286752 19148392 19010736 18874298 18739668 
3430.565 18607050 18476756 18349230 18225164 18105208 17989534 17877688 
3433.940 17768806 17661226 17553848 17445666 17336374 17226352 17116392 
3437.315 17007354 16899484 16793116 16688019 16583977 16480546 16377656 
3440.691 16274789 16171226 16066622 15960665 15853500 15745604 15638113 
3444.066 15531783 15427263 15324312 15222348 15120167 15017392 14914128 
3447.441 14811574 14710895 14613734 14520741 14431227 14343992 14257048 
3450.816 14168137 14076471 13981505 13883892 13784248 13683705 13582706 
3454.192 13481832 13381598 13282343 13184886 13089467 12996185 12904800 
3457.567 12814629 12724647 12634070 12542693 12450347 12357714 12265339 
3460.942 12174346 12085008 11997800 11912551 11829157 11746733 11664493 
3464.317 11581182 11495844 11407870 11317804 11226840 11136712 11049524 
3467.693 10966839 10888689 10814494 10742789 10671879 10600301 10527783 
3471.068 10454498 10380750 10307014 10233189 10158733 10083270 10006635 
3474.443 9929844 9854423 9781827 9713275 9648427 9585892 9522993 9457293 
3478.301 9386829 9311264 9231381 9149786 9068884 8991345 8918792 8852506 
3482.158 8791911 8736769 8686162 8639177 8594902 8552422 8510690 8469231 
3486.015 8427406 8384808 8341503 8297697 8253322 8208512 8163132 8116711 
3489.873 8069484 8021555 7973933 7927600 7883802 7843314 7806744 7773989 
3493.730 7743833 7715534 7688114 7661168 7635168 7611091 7590624 7574877 
3497.588 7565167 7561762 7564088 7571236 7582093 7595749 7611361 7628525 
3501.445 7647106 7666732 7687305 7708654 7731049 7755166 7782321 7813964 
3505.302 7850973 7894464 7943561 7997119 8053417 8110770 8168197 8225834 
3509.160 8284830 8346570 8412440 8483017 8558066 8636542 8717532 8800229 
3513.017 8884328 8969966 9057279 9146030 9235070 9322808 9407111 9486349 
3516.875 9559303 9625967 9686576 9742619 9794739 9843542 9888827 9929844 
3520.732 9965069 9992836 10010975 10017248 10009925 9987614 9949880 9897538 
3524.590 9831816 9753870 9665299 9566991 9459461 9343053 9218520 9086613 
3528.447 8949232 8807770 8663514 8516975 8368188 8216886 8063138 7907623 
3532.304 7751287 7595007 7439390 7283795 7127212 6968361 6806338 6642020 
3536.162 6476822 6313469 6155152 6003274 5859107 5722207 5591693 5466653 
3540.019 5346715 5231405 5120584 5013780 4909482 4805946 4701832 4595968 
3543.877 4488389 4379866 4271939 4165511 4061684 3960357 3861560 3765058 
3547.734 3671151 3580137 3492917 3409755 3330215 3253493 3178321 3103362 
3551.592 3027648 2950680 2873025 2795350 2718690 2644210 2573110 2506986 
3555.449 2446537 2392427 2344453 2301581 2261610 2222077 2180316 2134596 
3559.306 2083854 2028790 1971170 1913492 1858117 1807307 1762425 1723469 
3563.164 1689539 1658073 1625512 1587167 1538551 1475843 1397587 1305253 
3567.021 1203869 1100914 1003961 919415 850521 797240 756744 724782 696505 
3571.361 667965 636241 600041 559331 515606 470327 426080 384525 346488 
3575.700 312234 280570 249769 217844 183435 145714 104881 62727 21007 -17958 
3580.522 -52845 -82727 -107473 -127613 -144274 -157821 -169248 -179151 
3584.380 -189087 -201043 -217801 -242473 -278137 -325585 -383456 -447277 
3588.237 -510692 -566884 -610827 -640141 -656088 -662341 -664028 -666211 
3592.094 -673490 -688476 -712062 -743289 -780598 -821113 -862450 -902428 
3595.952 -939228 -971132 -997381 -1017480 -1032156 -1042767 -1051659 
3599.327 -1061178 -1073110 -1088182 -1105831 -1124371 -1141556 -1155369 
3602.702 -1164027 -1166473 -1162540 -1152627 -1138053 -1120703 -1103914 
3606.078 -1091685 -1088281 -1096808 -1118290 -1151173 -1191256 -1232327 
3609.453 -1269231 -1298865 -1321592 -1340024 -1357960 -1378769 -1403441 
3612.828 -1430787 -1456942 -1478406 -1491945 -1496931 -1495016 -1489964 
3616.203 -1486100 -1487916 -1498945 -1521299 -1555273 -1599083 -1648697 
3619.579 -1699660 -1745963 -1783615 -1810145 -1825257 -1830470 -1828391 
3622.954 -1821100 -1809287 -1792690 -1769954 -1739626 -1702597 -1662330 
3626.329 -1625294 -1600932 -1599380 -1627869 -1687481 -1769987 -1859636 
3629.704 -1938349 -1993466 -2021368 -2026480 -2017114 -2003097 -1991949 
3633.080 -1987925 -1991817 -2001481 -2013585 -2025095 -2034692 -2043168 
3636.455 -2052600 -2064471 -2079311 -2095699 -2110768 -2121386 -2125507 
3639.830 -2123034 -2115813 -2106878 -2099195 -2094182 -2091083 -2087390 
3643.205 -2079673 -2065197 -2042706 -2013255 -1979679 -1945771 -1915423 
3646.581 -1891902 -1878112 -1876231 -1888372 -1916446 -1960714 -2018895 
3649.956 -2085213 -2150302 -2203710 -2237467 -2246894 -2232819 -2200513 
3653.331 -2158346 -2115418 -2080531 -2060646 -2059261 -2075453 -2103877 
3656.706 -2136652 -2165600 -2184128 -2189963 -2183897 -2169424 -2151291 
3660.082 -2134014 -2121023 -2113373 -2110076 -2108065 -2104536 -2096623 
3663.457 -2082740 -2062394 -2035187 -2000261 -1955997 -1899786 -1830206 
3666.832 -1746623 -1651437 -1547085 -1435377 -1313036 -1170240 -989579 
3670.207 -750367 -436056 -37439 445748 1008710 1643772 2340289 3080936 
3674.065 3826426 4509012 5038115 5314715 5274936 4915045 4287265 3473878 
3677.922 2559478 1623450 728698 -73253 -743586 -1265068 -1640874 -1893320 
3681.780 -2053424 -2153896 -2219831 -2264694 -2293601 -2306553 -2303257 
3685.155 -2286316 -2262519 -2240038 -2227874 -2232259 -2255597 -2295446 
3688.530 -2346267 -2400903 -2453622 -2500735 -2540924 -2573962 -2599950 
3691.905 -2618987 -2631238 -2637529 -2639109 -2637891 -2635915 -2635059 
3695.281 -2636178 -2639439 -2643588 -2646519 -2646256 -2640855 -2629657 
3698.656 -2614013 -2596459 -2580813 -2570965 -2569549 -2577092 -2591419 
3702.031 -2608546 -2624157 -2634960 -2639570 -2638451 -2632720 -2623795 
3705.406 -2612498 -2598402 -2581341 -2560688 -2537367 -2512627 -2488842 
3708.781 -2468481 -2453721 -2446143 -2446670 -2455929 -2474016 -2499582 
3712.157 -2530119 -2561314 -2588224 -2606537 -2613915 -2610489 -2598764 
3715.532 -2582625 -2566189 -2552387 -2542406 -2535818 -2530383 -2524355 
3718.907 -2516481 -2507554 -2499285 -2493685 -2491873 -2493981 -2498923 
3722.282 -2505149 -2511672 -2518392 -2526298 -2536642 -2550082 -2566551 
3725.658 -2584404 -2600839 -2611906 -2614738 -2606735 -2587500 -2557921 
3729.033 -2520533 -2479320 -2438960 -2403638 -2376848 -2360075 -2351671 
3732.408 -2348705 -2347914 -2348178 -2351276 -2362085 -2384790 -2421794 
3735.783 -2470261 -2522708 -2568923 -2601037 -2615496 -2613750 -2599752 
3739.159 -2578080 -2550971 -2518162 -2477772 -2428713 -2373190 -2318253 
3742.534 -2276329 -2261727 -2285492 -2348013 -2434414 -2517602 -2571953 
3745.909 -2584931 -2558481 -2505314 -2441728 -2384230 -2344817 -2329591 
3749.284 -2338291 -2364952 -2401826 -2441432 -2479090 -2512561 -2539738 
3752.660 -2557592 -2563455 -2555484 -2534270 -2503667 -2469338 -2436720 
3756.035 -2410888 -2394873 -2388843 -2391578 -2400936 -2415006 -2432569 
3759.410 -2452140 -2471578 -2487458 -2495925 -2493882 -2481001 -2459553 
3762.785 -2434743 -2412436 -2397608 -2392402 -2395302 -2401793 -2405747 
3766.161 -2402551 -2391281 -2374904 -2359251 -2350814 -2354769 -2372795 
3769.536 -2402551 -2437774 -2471183 -2496386 -2510354 -2512924 -2507225 
3772.911 -2497374 -2487128 -2478695 -2472369 -2466439 -2458466 -2446605 
3776.286 -2430559 -2412601 -2397542 -2390260 -2395499 -2414809 -2445946 
3779.662 -2482714 -2517239 -2542406 -2554463 -2553178 -2541846 -2525639 
3783.037 -2509267 -2496287 -2487853 -2483669 -2481824 -2480441 -2478695 
3786.412 -2476059 -2473292 -2471183 -2470129 -2470623 -2472633 -2476224 
3789.787 -2481100 -2486964 -2493256 -2498758 -2502283 -2502942 -2500207 
3793.163 -2495068 -2489105 -2484460 -2483076 -2485317 -2489797 -2493520 
3796.538 -2492037 -2481824 -2460772 -2429999 -2393324 -2357340 -2330217 
3799.913 -2319736 -2331700 -2366303 -2416852 -2470359 -2512199 -2532392 
3803.288 -2527319 -2501394 -2463506 -2425254 -2397048 -2386339 -2394939 
3806.664 -2418367 -2447198 -2470821 -2481923 -2479354 -2466175 -2447692 
3810.039 -2428713 -2411184 -2394016 -2374014 -2347189 -2311925 -2269276 
3813.414 -2224512 -2184656 -2158215 -2150928 -2164347 -2192898 -2226160 
3816.789 -2252432 -2263046 -2255531 -2233577 -2205820 -2183073 -2175754 
3820.165 -2191546 -2232061 -2290535 -2354011 -2408251 -2443112 -2455731 
3823.540 -2449306 -2431679 -2411052 -2393753 -2382780 -2377837 -2375069 
3826.915 -2369994 -2358691 -2340335 -2316869 -2291886 -2269111 -2251213 
3830.290 -2238785 -2230643 -2224380 -2217556 -2208392 -2196392 -2182117 
3833.666 -2166358 -2150664 -2136586 -2126035 -2121748 -2126035 -2140971 
3837.041 -2166688 -2201205 -2239873 -2277054 -2307608 -2328866 -2340697 
3840.416 -2345542 -2346794 -2347255 -2349760 -2355164 -2363568 -2374278 
3843.791 -2385614 -2395961 -2403474 -2406044 -2402123 -2390820 -2371708 
3847.167 -2345542 -2313112 -2275209 -2232160 -2183996 -2131179 -2075222 
3850.542 -2020808 -1975820 -1951181 -1959526 -2009957 -2102624 -2223919 
3853.917 -2349991 -2455467 -2524157 -2552717 -2547875 -2520731 -2481890 
3857.292 -2439554 -2399289 -2363469 -2332820 -2307147 -2285723 -2268320 
3860.667 -2253586 -2241159 -2229819 -2219204 -2209908 -2203678 -2202392 
3864.043 -2207271 -2216864 -2227775 -2234368 -2232094 -2219270 -2198007 
3867.418 -2175128 -2158676 -2156929 -2174666 -2209842 -2253783 -2293436 
3870.793 -2317957 -2322274 -2309552 -2287239 -2265980 -2254080 -2255465 
3874.168 -2268715 -2287734 -2304049 -2310311 -2303060 -2282724 -2253520 
3877.544 -2221809 -2193919 -2176051 -2171303 -2180172 -2199425 -2223226 
3880.919 -2243829 -2254871 -2252630 -2237796 -2214424 -2190227 -2173051 
3884.294 -2170183 -2184293 -2212875 -2247652 -2277714 -2293172 -2289382 
3887.669 -2267693 -2234995 -2200018 -2171468 -2156237 -2157193 -2173051 
3891.045 -2198403 -2226325 -2249762 -2264134 -2267628 -2260673 -2245246 
3894.420 -2223094 -2195996 -2165798 -2134311 -2103712 -2076409 -2054974 
3897.795 -2041387 -2036572 -2040200 -2050489 -2065032 -2081256 -2097678 
3901.170 -2113472 -2129167 -2145752 -2164050 -2184095 -2204502 -2223226 
3904.546 -2237928 -2246400 -2247751 -2242741 -2232819 -2220292 -2207007 
3907.921 -2194744 -2184293 -2175952 -2169523 -2164347 -2159830 -2154885 
3911.296 -2148950 -2140872 -2129860 -2115780 -2099129 -2081190 -2064240 
3914.671 -2051116 -2043761 -2043498 -2050225 -2062196 -2076871 -2091611 
3918.047 -2103811 -2112318 -2116341 -2115813 -2110736 -2101701 -2089335 
3921.422 -2075288 -2062031 -2052303 -2048741 -2052699 -2063911 -2079344 
3924.797 -2095238 -2107109 -2111725 -2108262 -2097810 -2083367 -2068231 
3928.172 -2054809 -2044718 -2038023 -2034099 -2032351 -2032615 -2035352 
3931.548 -2041288 -2050819 -2063119 -2076244 -2088115 -2096260 -2099590 
3934.923 -2098271 -2093424 -2086994 -2080729 -2076244 -2073837 -2073078 
3938.298 -2073210 -2073441 -2073441 -2073276 -2073639 -2075485 -2079311 
3941.673 -2085114 -2092402 -2099821 -2105822 -2109021 -2108197 -2103481 
3945.049 -2095534 -2085939 -2076376 -2068692 -2064372 -2063680 -2066615 
3948.424 -2072287 -2079673 -2087192 -2093919 -2098997 -2101503 -2101107 
3951.799 -2097744 -2091413 -2083169 -2074101 -2065494 -2058436 -2053754 
3955.174 -2051181 -2049928 -2048708 -2046004 -2041123 -2033802 -2024831 
3958.550 -2015234 -2006494 -1999370 -1994687 -1992642 -1992378 -1993466 
3961.925 -1994489 -1994753 -1992840 -1988552 -1981197 -1971697 -1960615 
3965.300 -1949169 -1938580 -1929707 -1922581 -1917007 -1912520 -1908100 
3968.675 -1903349 -1898269 -1892892 -1887778 -1883621 -1880520 -1878607 
3972.051 -1877848 -1878046 -1879069 -1880685 -1882434 -1883555 -1883984 
3975.426 -1882599 -1879497 -1874582 -1868346 -1861715 -1855149 -1849343 
3978.801 -1843965 -1839115 -1834297 -1829381 -1824399 -1819846 -1816249 
3982.176 -1814071 -1813708 -1814995 -1817833 -1821792 -1826280 -1831229 
3985.552 -1836046 -1840566 -1844427 -1847528 -1849640 -1851091 -1852180 
3988.927 -1853665 -1855875 -1859142 -1863299 -1868115 -1872932 -1877485 
3992.302 -1881444 -1884710 -1887283 -1889197 -1890516 -1891605 -1892496 
3995.677 -1893815 -1895696 -1898632 -1902393 -1906978 -1911563 -1916050 
3999.052 -1919811 -1922878 -1925254 -1927167 
##END=
