
##TITLE=Z357a_3_b
##JCAMP-DX=5.01  $$ Nicolet v. 1
##DATATYPE=INFRARED SPECTRUM
##ORIGIN=UniL
##OWNER=Nicolet
##LONGDATE=2011/09/22
##TIME=09:36:12
##SPECTROMETER/DATA SYSTEM=Nicolet iS5
##DATA PROCESSING=
Ratio against background
%Transmittance->Absorbance
Truncated
ElementMultiply or ElementDivide
##COMMENTS=
Number of sample scans: 32
Collection length: 51.18 sec
Sample gain: 2.0
Background collected on: Jeu Sep 22 09:32:15 2011 (GMT+02:00);
Number of background scans: 32
Background gain: 2.0
Sample spacing:  1.000
Number of scan points: 12415
Resolution points: 8192
Number of FFT points: 65536
Apodization: N-B fort;
Phase correction: Mertz;
Laser frequency: 15798.0 cm-1
Number of rejected sample scans: 0
Number of rejected background scans: 0
Bench serial number: ASB1000141;
##RESOLUTION=4.000
##XUNITS=1/CM
##YUNITS=ABSORBANCE
##FIRSTX=649.893372
##LASTX=4000.122314
##FIRSTY=0.097025
##MAXX=4000.122314
##MINX=649.893372
##MAXY=0.311214
##MINY=-0.002606
##XFACTOR=1.000000
##YFACTOR=1.000000E-009
##NPOINTS=6950
##DELTAX=0.482117
##ZPD=6100
##XYDATA=(X++(Y..Y))
649.893 97025256 96551816 96128136 95799336 95581720 95462568 95414640 
653.268 95416208 95466360 95588656 95817712 96181888 96689392 97325296 
656.643 98061784 98877568 99769928 100757424 101869352 103124784 104524264 
660.018 106049656 107678064 109399896 111230568 113201280 115344856 
662.911 117668864 120148096 122726608 125345680 127963112 130551312 
665.803 133091272 135534656 137756832 139558128 140708192 141057920 
668.696 140627744 139577824 138103424 136341840 134357200 132163408 
671.589 129762976 127184216 124494440 121782568 119146120 116655296 
674.481 114340056 112198848 110212464 108363568 106643592 105054080 
677.374 103597112 102266936 101047600 99915128 98844128 97816224 96820480 
680.749 95851928 94907128 93979728 93060296 92140520 91218144 90300376 
684.124 89402944 88545304 87743128 87002208 86318264 85679896 85075240 
687.498 84495448 83937768 83403256 82892296 82400488 81917464 81427680 
690.873 80916000 80371752 79791592 79178728 78542392 77893776 77244000 
694.248 76605584 75994072 75426904 74925632 74510448 74196272 73989480 
697.623 73886168 73872928 73931184 74042880 74194736 74380816 74602064 
700.998 74862408 75165680 75511824 75895808 76309600 76744064 77191552 
704.373 77646360 78104616 78561568 79011328 79447512 79864664 80261808 
707.747 80643032 81018248 81400816 81805168 82248528 82751568 83340584 
711.122 84052672 84929560 86009560 87315224 88836336 90518384 92255976 
714.497 93915968 95350424 96427848 97069712 97258304 97044560 96530960 
717.872 95862712 95203984 94707968 94519440 94750376 95465000 96672424 
721.247 98308328 100234832 102230000 104029032 105365888 106006768 105822912 
724.621 104812080 103108688 100942576 98596488 96347968 94395640 92852712 
727.996 91740672 91013968 90590912 90385472 90331992 90382984 90508384 
731.371 90687376 90898712 91121888 91341000 91548200 91746168 91944664 
734.746 92154696 92381216 92621024 92864480 93101928 93329352 93550824 
738.121 93776096 94016504 94277800 94558160 94848680 95138232 95419512 
741.496 95691152 95956888 96222320 96490744 96761552 97031176 97296944 
744.870 97559888 97825312 98099168 98383704 98673416 98954088 99208456 
748.245 99422408 99590408 99718112 99819376 99910616 100001880 100095744 
751.620 100187456 100270392 100340720 100401344 100459720 100524696 
754.513 100600880 100687400 100778320 100868208 100955448 101044712 
757.405 101144576 101263952 101407808 101575864 101764008 101967600 
760.298 102185304 102419176 102672816 102947264 103238992 103540208 
763.191 103844664 104152536 104477192 104844760 105294824 105874280 
766.083 106627368 107593328 108794168 110225056 111842176 113556568 
768.976 115241632 116738872 117907224 118663376 119021512 119108720 
771.869 119145736 119396120 120060456 121211816 122732800 124338544 
774.762 125611840 126116680 125548664 123792048 120972600 117389296 
777.654 113448264 109534480 105916824 102740312 100012184 97651480 95534152 
781.029 93547040 91614680 89702000 87809792 85960408 84185144 82514424 
784.404 80977240 79600560 78405872 77409768 76621160 76040896 75664504 
787.779 75486080 75504568 75725488 76162416 76831968 77753384 78943888 
791.154 80419080 82197000 84299672 86752456 89581808 92804456 96415856 
794.528 100376960 104610600 108996840 113371208 117552704 121344336 
797.421 124556408 127047600 128739000 129649432 129895848 129698336 
800.314 129341112 129101440 129221040 129825248 130888120 132211240 
803.206 133451912 134198680 134021984 132615760 129865288 125884224 
806.099 120986736 115610920 110228984 105200584 100732856 96850288 93427128 
809.474 90248368 87087920 83792112 80299032 76649856 72948928 69331144 
812.849 65915264 62777208 59953816 57446204 55235516 53295360 51600380 
816.224 50128108 48855984 47762856 46828560 46035132 45370252 44826724 
819.598 44400564 44088828 43886616 43787436 43784980 43875988 44063052 
822.973 44354580 44763944 45305628 45990596 46824204 47802656 48912200 
826.348 50124908 51399412 52681936 53903764 54995028 55894956 56563212 
829.723 56996304 57233176 57357296 57479824 57731460 58245392 59126460 
833.098 60443008 62201180 64335256 66690260 69026288 71060296 72472544 
836.473 72982904 72416056 70727672 68031944 64564980 60656352 56639840 
839.847 52798848 49349900 46406188 43997372 42091372 40622448 39512912 
843.222 38686904 38082976 37649216 37342864 37132548 36994552 36914460 
846.597 36886504 36909268 36982212 37102264 37262028 37452108 37664788 
849.972 37896556 38149680 38430464 38746780 39103936 39503696 39944544 
853.347 40424496 40942624 41501360 42105176 42760392 43473688 44252096 
856.721 45104836 46045412 47091232 48264788 49591588 51096852 52808352 
860.096 54755872 56970800 59488736 62339272 65533488 69045048 72793664 
863.471 76636376 80356560 83702272 86411920 88246672 89052912 88777264 
866.846 87484760 85340392 82593512 79540976 76461064 73610512 71187656 
870.221 69313616 68052448 67410680 67353408 67812352 68695560 69896832 
873.596 71284864 72717312 74048576 75129160 75837608 76092768 75865064 
876.970 75183216 74126664 72813800 71369400 69914496 68546856 67323656 
880.345 66266536 65362104 64576052 63863008 63182740 62511540 61845308 
883.720 61199816 60601948 60082940 59666072 59361996 59168604 59076236 
887.095 59074524 59160024 59339960 59631292 60055812 60631892 61369380 
890.470 62266456 63311412 64486176 65771788 67153368 68619840 70163752 
893.844 71779296 73459144 75192392 76963160 78744840 80496400 82160856 
897.219 83655472 84882744 85741368 86134952 86000840 85320232 84125904 
900.594 82496032 80544544 78408096 76216824 74092280 72135384 70415440 
903.969 68979096 67849344 67030600 66515208 66288808 66335744 66641584 
907.344 67195536 67992112 69028424 70303616 71816936 73567144 75552944 
910.719 77772256 80221312 82892336 85768136 88817960 91999456 95258776 
914.093 98539496 101798104 105012264 108190232 111370096 114618136 118015472 
917.468 121637248 125542152 129746992 134211808 138818240 143368400 
920.361 147602864 151200320 153854208 155328880 155512720 154475456 
923.254 152475200 149956432 147446864 145518592 144709264 145402240 
926.146 147811728 151921952 157496272 164064800 170970464 177497216 
929.039 182877056 186442752 187734768 186505664 182762528 176717408 
931.932 168749280 159326368 148948672 138144128 127388984 117096152 
934.824 107616808 99188640 91959816 85998048 81298840 77816360 75481544 
938.199 74222448 73960528 74603880 76038760 78095368 80542672 83111424 
941.574 85483952 87356144 88490376 88730888 88046360 86520448 84338736 
944.949 81737688 78962048 76241744 73743408 71572056 69775768 68352944 
948.324 67272544 66487788 65951480 65618456 65448844 65410288 65472072 
951.698 65607204 65793960 66015200 66260828 66527644 66817188 67133104 
955.073 67478088 67852784 68255456 68683216 69133080 69603552 70093576 
958.448 70602480 71128600 71669744 72223488 72789000 73367832 73963984 
961.823 74582088 75225880 75896048 76590328 77304568 78034688 78778720 
965.198 79537720 80314104 81110408 81927472 82763544 83616216 84483408 
968.573 85365560 86266320 87190664 88142792 89124424 90134016 91168480 
971.947 92225248 93304712 94410056 95547152 96721072 97934440 99186896 
975.322 100476632 101802704 103167432 104576584 106037520 107557712 
978.215 109141568 110790872 112507248 114294960 116163704 118129808 
981.108 120212112 122428656 124792928 127310216 129977896 132785080 
984.000 135713568 138732960 141794848 144832864 147752864 150439472 
986.893 152776416 154650080 155976112 156713536 156868704 156496160 
989.786 155687376 154569088 153282832 151970096 150771808 149802576 
992.678 149146592 148856976 148951104 149419648 150235904 151368576 
995.571 152787872 154469584 156397552 158556272 160929152 163498000 
998.464 166241888 169140192 172175008 175325952 178566064 181858096 
1001.356 185145152 188357584 191422000 194267264 196843296 199126832 
1004.249 201124048 202867424 204411792 205832464 207212112 208642304 
1007.142 210216576 212012272 214089888 216482080 219191536 222196352 
1010.035 225458640 228939040 232598496 236403344 240323024 244320944 
1012.927 248354000 252377152 256345248 260224368 263992192 267630048 
1015.820 271111264 274386272 277369856 279953408 282015648 283446080 
1018.713 284178208 284201920 283575136 282411680 280881984 279195040 
1021.605 277563360 276208704 275326208 275057440 275492384 276651648 
1024.498 278496256 280936416 283855328 287129792 290629216 294230848 
1027.391 297810912 301230144 304347520 307019616 309113280 310531264 
1030.284 311213728 311139520 310317184 308773472 306546496 303681280 
1033.177 300236864 296285472 291903776 287168512 282141024 276857728 
1036.070 271335744 265580624 259600960 253421104 247085280 240654656 
1038.963 234205104 227813488 221556016 215509504 209739696 204299952 
1041.856 199218720 194485152 190040352 185774736 181552064 177220800 
1044.750 172651216 167770736 162571264 157118416 151528608 145959440 
1047.643 140573984 135513696 130898368 126805272 123271456 120300960 
1050.536 117869800 115935344 114442808 113337144 112565976 112081144 
1053.429 111843592 111815648 111955920 112218240 112543352 112860120 
1056.322 113096112 113176040 113034424 112625104 111920976 110920928 
1059.215 109649200 108158520 106524760 104839496 103210872 101744200 
1062.108 100533968 99662376 99185440 99135352 99521560 100331040 101529896 
1065.483 103061512 104853456 106810640 108820440 110770128 112545544 
1068.376 114049008 115212944 115996616 116388632 116399776 116056040 
1071.269 115390496 114437464 113233320 111812472 110207768 108454920 
1074.162 106591248 104659760 102714864 100817144 99035248 97443344 96106472 
1077.538 95080480 94403960 94092224 94139216 94516224 95177248 96055536 
1080.913 97067760 98122256 99113912 99941440 100523312 100805024 100778360 
1084.288 100484144 100014272 99494480 99068208 98888552 99086072 99764304 
1087.663 100990656 102784720 105117600 107906336 111027024 114310528 
1090.556 117558568 120580752 123196344 125265952 126709672 127500696 
1093.449 127665464 127266064 126392576 125143512 123612840 121892800 
1096.343 120062032 118187304 116329512 114537512 112849672 111290672 
1099.236 109862376 108539824 107265024 105956904 104513728 102830944 
1102.129 100829384 98464416 95744224 92726920 89518808 86254720 83070952 
1105.504 80103544 77463424 75227488 73446032 72138592 71301576 70914376 
1108.879 70945352 71355736 72099120 73126352 74382904 75805016 77325664 
1112.254 78867592 80344568 81673024 82770448 83566736 84016368 84097792 
1115.630 83816992 83201912 82299952 81168408 79865336 78450640 76976576 
1119.005 75484344 74006808 72564088 71166888 69820320 68526376 67287872 
1122.380 66110640 65001896 63969336 63017488 62145972 61348928 60617876 
1125.755 59945980 59332480 58786564 58326064 57977404 57768660 57722716 
1129.131 57853980 58163556 58638672 59251808 59964240 60729364 61491368 
1132.506 62195560 62792136 63242340 63528360 63655944 63656592 63578716 
1135.881 63483224 63432908 63476928 63648196 63955940 64385288 64898424 
1139.256 65439024 65943420 66339956 66562632 66559232 66290744 65738448 
1142.632 64900732 63791388 62434752 60862640 59114540 57232156 55260728 
1146.007 53247900 51237684 49270688 47381180 45592808 43920968 42372708 
1149.382 40948740 39646992 38464492 37398944 36448644 35611816 34886388 
1152.757 34269144 33756476 33345334 33033744 32820746 32705910 32688226 
1156.133 32765790 32936510 33198416 33551142 33996844 34539680 35184076 
1159.508 35933792 36790276 37751888 38814492 39971060 41212104 42523308 
1162.883 43884308 45268888 46642076 47964368 49195948 50296636 51232204 
1166.258 51975472 52505480 52809924 52885140 52736664 52378852 51834924 
1169.634 51135540 50313524 49402872 48436708 47442788 46446560 45471156 
1173.009 44536340 43662004 42866836 42166328 41573844 41098884 40747220 
1176.384 40522588 40427588 40464608 40636780 40947828 41401300 42001212 
1179.759 42752016 43659368 44731732 45978440 47410560 49038824 50872052 
1183.135 52916616 55176104 57650328 60332544 63204660 66234932 69368120 
1186.510 72524928 75610280 78508120 81099952 83279016 84950552 86049712 
1189.885 86545152 86440304 85773056 84610488 83046280 81181584 79122032 
1193.260 76970872 74813240 72720472 70745960 68921616 67263416 65772100 
1196.635 64437904 63242876 62164856 61181240 60267712 59400588 58557716 
1200.011 57715716 56852080 55947268 54984684 53954972 52858828 51707932 
1203.386 50523668 49334904 48174968 47073396 46055396 45137556 44327096 
1206.761 43624488 43024780 42521264 42106120 41771772 41510952 41315728 
1210.136 41178184 41091528 41051248 41056200 41109376 41217092 41387524 
1213.512 41628540 41947712 42350208 42839188 43415608 44077684 44820220 
1216.887 45633512 46505196 47420428 48364000 49324472 50293400 51266880 
1220.262 52244192 53226776 54217484 55220992 56245680 57304628 58414072 
1223.637 59594724 60866264 62244196 63737476 65345652 67059092 68857936 
1227.013 70714880 72594360 74451688 76238904 77904248 79396272 80673592 
1230.388 81704856 82474280 82983656 83253688 83325496 83256496 83127000 
1233.763 83032920 83075520 83366080 84008280 85090432 86688456 88856336 
1237.138 91627976 95020520 99034040 103652000 108835080 114524016 120631192 
1240.514 127038224 133613632 140205184 146649776 152792896 158475264 
1243.407 163545168 167872528 171344720 173883408 175450096 176043216 
1246.300 175694688 174458832 172412816 169644960 166252080 162339840 
1249.193 158004896 153326688 148359792 143125456 137619632 131825464 
1252.086 125734240 119361568 112762032 106024320 99272840 92652064 86298168 
1255.461 80340536 74878664 69970392 65638496 61867544 58613604 55810136 
1258.836 53379768 51244284 49323544 47548836 45864528 44228068 42614972 
1262.212 41015556 39432212 37874864 36357088 34893280 33495232 32173280 
1265.587 30935706 29788404 28735452 27777544 26911874 26131634 25428038 
1268.962 24792614 24219144 23704796 23250056 22857116 22528148 22264014 
1272.337 22064912 21930716 21862870 21864472 21938906 22088268 22310610 
1275.713 22598750 22939198 23312212 23695208 24061028 24381068 24628642 
1279.088 24779460 24817066 24736244 24543824 24258138 23903426 23506362 
1282.463 23088310 22661896 22232346 21799248 21362334 20925444 20498544 
1285.838 20096874 19738190 19437560 19206260 19050686 18973940 18977954 
1289.214 19065640 19239820 19502778 19853846 20288376 20797196 21366826 
1292.589 21981740 22621368 23261452 23874964 24430418 24898676 25258104 
1295.964 25498448 25625244 25658846 25632766 25583630 25549048 25562440 
1299.339 25647984 25823312 26097818 26471446 26933132 27458062 28010062 
1302.715 28540296 28995652 29328852 29500954 29490172 29292764 28921202 
1306.090 28400868 27764580 27051918 26302368 25553476 24840678 24190628 
1309.465 23620786 23139330 22745548 22433234 22194928 22025032 21920994 
1312.840 21882000 21907264 21994114 22137672 22332970 22576064 22866512 
1316.216 23206398 23598116 24041838 24533376 25063942 25623100 26202018 
1319.591 26795522 27402756 28024446 28659380 29301202 29936444 30544960 
1322.966 31104674 31593800 31995940 32303826 32521996 32668650 32773294 
1326.341 32878104 33030778 33274320 33643720 34153780 34795844 35538276 
1329.717 36334064 37133232 37890084 38576336 39182764 39717240 40199448 
1333.092 40654172 41107044 41579420 42088816 42648852 43267440 43947548 
1336.467 44685012 45470056 46287220 47118704 47947904 48759812 49542640 
1339.842 50287300 50986804 51635640 52231112 52773180 53264120 53706864 
1343.218 54102964 54450216 54741968 54967692 55117004 55182916 55162824 
1346.593 55059264 54876168 54614348 54267604 53821132 53253968 52547248 
1349.968 51689308 50684312 49554636 48343072 47106152 45905736 44808208 
1353.343 43871884 43143404 42656492 42424620 42439636 42669284 43063232 
1356.719 43556608 44078380 44567660 44974720 45267236 45432384 45473292 
1360.094 45408548 45268080 45097592 44954512 44900940 45000856 45302652 
1363.469 45827264 46563912 47470988 48486536 49531908 50527316 51395120 
1366.844 52059512 52460876 52557832 52334596 51804424 51006780 50000904 
1370.219 48849124 47614976 46354792 45112884 43930972 42849468 41908408 
1373.595 41150572 40611824 40312028 40249936 40402640 40736084 41213560 
1376.970 41809712 42514944 43335712 44291616 45412080 46735860 48305596 
1380.345 50168192 52364572 54911436 57778240 60861920 63992300 66922740 
1383.720 69367296 71059912 71762560 71323208 69705736 67019388 63523300 
1387.096 59577548 55599456 51938804 48818348 46329796 44447432 43081236 
1390.471 42113824 41436764 40956788 40597160 40301304 40023740 39731216 
1393.846 39405616 39043540 38656116 38261660 37879020 37519836 37186724 
1397.221 36876876 36586536 36316700 36075984 35879880 35745628 35688360 
1400.597 35716240 35829716 36024252 36292748 36628060 37024280 37478044 
1403.972 37988036 38553488 39173480 39844732 40561944 41318680 42108828 
1407.347 42929120 43779520 44662136 45579228 46531824 47517708 48532920 
1410.722 49573132 50634044 51709684 52789608 53851776 54863872 55785572 
1414.098 56576308 57210988 57687712 58033300 58295600 58537732 58826892 
1417.473 59218960 59757048 60460448 61321376 62306304 63363896 64439244 
1420.848 65482132 66455856 67341720 68139040 68870248 69578384 70323720 
1424.223 71163576 72136944 73252312 74488224 75804224 77155336 78507528 
1427.599 79837504 81132624 82387144 83598464 84767824 85903632 87027920 
1430.974 88176152 89389344 90709504 92166488 93775440 95539680 97461752 
1434.349 99554400 101844384 104371160 107170360 110253888 113588800 
1437.242 117105704 120724496 124372952 127992080 131516632 134865536 
1440.135 137913984 140496400 142442480 143581296 143782000 142975632 
1443.028 141153440 138371280 134737872 130418896 125612584 120522056 
1445.921 115360328 110316416 105554160 101221168 97425680 94226264 91618848 
1449.297 89543448 87905488 86608696 85590632 84833400 84361472 84215872 
1452.672 84428312 84993904 85869384 86972664 88201240 89455176 90635856 
1456.047 91674752 92550856 93309640 94043952 94854280 95828752 97017712 
1459.422 98446088 100124528 102049992 104203496 106540048 108992704 
1462.315 111456768 113787128 115825096 117407840 118420816 118841912 
1465.208 118757360 118332824 117743504 117141672 116622056 116225664 
1468.102 115960480 115809432 115734864 115667480 115501712 115093992 
1470.995 114268664 112875712 110847624 108254928 105295584 102227192 
1473.888 99277456 96579920 94191192 92125688 90390984 89010088 88013080 
1477.263 87414608 87200144 87319560 87703136 88274888 88976168 89777816 
1480.638 90678600 91701064 92877496 94243384 95829824 97669120 99802912 
1484.013 102282864 105167320 108504304 112309112 116534248 121042912 
1486.906 125619264 129951000 133655992 136344608 137635632 137245424 
1489.800 135068752 131219848 126030400 119948416 113448824 106903400 
1492.693 100536472 94465648 88716416 83282864 78183512 73472328 69248328 
1496.068 65630408 62712736 60530412 59049284 58193524 57869008 57990660 
1499.443 58495800 59335404 60468024 61855012 63450396 65201520 67053720 
1502.818 68933504 70749272 72383680 73660688 74352584 74195128 72947904 
1506.194 70523392 67083804 63019864 58766952 54641176 50780688 47192612 
1509.569 43836656 40681060 37718564 34974400 32487358 30285358 28380104 
1512.944 26759682 25398176 24263710 23326058 22557636 21929080 21410576 
1516.319 20976558 20609538 20308546 20084972 19954024 19922768 19983028 
1519.695 20108952 20267162 20427516 20580004 20741446 20947002 21228948 
1523.070 21598374 22046260 22550902 23093132 23663716 24268826 24925870 
1526.445 25655190 26468310 27362806 28326412 29343952 30406132 31512882 
1529.820 32673508 33903260 35216344 36624236 38131228 39732160 41412016 
1533.196 43145124 44899836 46644364 48356408 50022836 51637620 53191568 
1536.571 54670000 56055220 57318880 58429916 59356032 60066196 60532776 
1539.946 60736220 60677124 60379264 59888700 59260200 58537772 57741336 
1543.321 56863940 55882936 54779252 53558520 52259324 50944740 49676652 
1546.697 48486608 47371020 46294408 45212960 44095724 42947376 41807960 
1550.072 40741072 39800972 39010152 38355752 37802056 37311164 36860176 
1553.447 36450804 36104716 35847024 35688324 35614512 35585672 35546544 
1556.822 35426884 35146208 34628516 33824168 32754034 31527170 30299924 
1560.198 29199728 28280510 27535368 26923296 26394152 25899414 25400848 
1563.573 24875974 24323700 23764078 23230586 22756964 22360702 22037512 
1566.948 21764270 21509896 21245442 20954026 20637368 20313512 20008738 
1570.323 19744952 19534734 19379524 19275670 19217274 19197880 19208476 
1573.698 19233966 19252808 19241760 19181638 19071180 18931506 18801390 
1577.074 18716144 18694212 18732576 18815506 18924030 19045146 19174608 
1580.449 19316786 19479942 19670580 19891098 20137896 20403762 20680248 
1583.824 20958616 21229192 21478946 21690980 21846632 21929220 21930716 
1587.199 21856284 21726126 21572292 21432298 21344446 21337902 21432542 
1590.575 21638424 21956124 22376576 22877408 23423928 23964554 24436306 
1593.950 24778618 24937978 24883062 24612056 24152480 23554282 22875662 
1597.325 22177178 21507982 20903956 20391918 19989066 19705320 19544056 
1600.700 19501600 19568526 19732124 19981156 20306810 20702802 21162880 
1604.076 21675724 22221188 22772154 23292880 23744794 24093074 24306878 
1607.451 24364772 24256458 23981082 23546586 22968192 22269558 21481766 
1610.826 20643380 19799638 18992528 18253810 17601668 17036198 16544737 
1614.201 16106129 15698573 15302106 14904355 14504947 14115284 13756067 
1617.577 13450116 13214944 13058291 12977476 12961260 12992327 13051906 
1620.952 13121122 13187687 13248591 13310836 13388159 13494171 13636485 
1624.327 13813732 14018702 14243729 14484255 14739482 15009572 15292530 
1627.702 15581477 15866147 16136734 16388735 16625322 16855424 17089888 
1631.078 17335410 17591594 17850276 18097400 18317882 18495772 18618776 
1634.453 18678198 18671418 18602726 18485156 18337478 18179070 18023690 
1637.828 17876998 17736222 17591834 17430420 17241004 17017554 16764257 
1641.203 16493522 16222987 15967747 15734507 15520004 15311201 15090011 
1644.579 14837973 14542120 14200077 13822249 13430089 13051461 12713252 
1647.954 12434935 12226860 12091072 12022291 12008769 12030228 12058094 
1651.329 12049953 11955462 11735600 11390352 10978325 10586482 10281466 
1654.704 10078760 9957101 9882455 9825512 9768373 9703211 9630675 9554797 
1658.562 9479712 9406332 9332051 9251452 9159295 9051257 8925049 8780383 
1662.419 8619912 8449400 8277265 8114855 7972887 7858834 7775169 7717591 
1666.277 7676344 7636888 7583509 7503538 7390215 7245149 7078105 6903316 
1670.134 6734384 6581262 6449850 6341744 6255648 6186541 6126015 6060827 
1673.991 5975526 5857865 5705387 5529873 5353257 5199178 5081426 5000607 
1677.849 4946479 4904321 4862368 4815595 4768525 4731342 4714795 4722633 
1681.706 4747421 4769296 4761390 4697076 4563521 4372838 4161229 3969987 
1685.564 3823184 3723950 3660926 3618893 3584881 3551073 3514061 3472542 
1689.421 3426386 3376595 3326141 3280768 3248453 3237269 3251490 3289048 
1693.279 3339731 3386512 3409922 3393425 3334054 3246950 3160898 3101793 
1697.136 3082305 3096354 3125287 3141374 3116811 3033253 2892170 2719290 
1700.993 2551978 2420781 2336591 2293420 2277365 2273101 2267539 2249986 
1704.851 2214783 2161268 2094574 2023098 1955693 1898982 1855388 1823877 
1708.708 1800486 1781189 1763223 1746689 1733948 1729224 1735678 1754607 
1712.566 1784549 1822213 1864140 1907568 1950701 1992440 2029289 2054557 
1716.423 2059251 2035182 1979957 1901145 1815026 1739104 1686413 1661599 
1720.281 1661666 1679427 1707169 1739770 1775234 1814161 1858117 1907834 
1724.138 1961917 2017705 2072135 2123774 2172989 2220478 2266473 2309142 
1727.995 2344187 2367540 2377035 2374803 2366607 2359777 2358711 2361510 
1731.853 2357479 2327930 2252851 2117948 1927303 1705772 1491668 1317683 
1735.710 1197257 1126692 1091546 1075635 1064309 1047701 1021198 985496 
1739.568 944451 904572 872001 850687 843085 848994 866656 892686 923133 
1743.907 954911 986193 1018009 1052086 1091015 1135362 1183136 1229886 
1747.765 1269661 1297311 1309241 1304256 1282688 1245470 1193934 1130479 
1751.622 1059626 988551 924960 876019 845010 830768 827017 824925 814568 
1755.962 789174 748114 696439 643110 595959 558535 529075 501441 468502 
1760.301 424322 367479 300397 228917 159735 98750 49339 13121 -9840 -20443 
1765.123 -21072 -15672 -9741 -9211 -17660 -35087 -56158 -72988 -78785 -71033 
1769.945 -53541 -35319 -28163 -40322 -74180 -122578 -173024 -213860 -238499 
1774.284 -247904 -247507 -243069 -237936 -231777 -222239 -206674 -184749 
1778.142 -159643 -136490 -120392 -113668 -114595 -118272 -118802 -112806 
1781.999 -100384 -85510 -73054 -67455 -70569 -81071 -95879 -111349 -124864 
1786.339 -134470 -138743 -135762 -123141 -99191 -63712 -20145 24685 61633 
1790.678 81384 77706 49770 3214 -53210 -109593 -159477 -200514 -233995 
1795.018 -262143 -286912 -309394 -329922 -348960 -367466 -386204 -406430 
1798.875 -427781 -449396 -469719 -487525 -502253 -514829 -526048 -536274 
1802.733 -544613 -549114 -547724 -539583 -525254 -506853 -486896 -467336 
1806.590 -448568 -430164 -410932 -390871 -371472 -355647 -345748 -342967 
1810.448 -346510 -353131 -359256 -362202 -361176 -357071 -351641 -345814 
1814.305 -338862 -328730 -312705 -289296 -258766 -223299 -186074 -149607 
1818.163 -115059 -81999 -49400 -16500 16103 47914 77805 105975 133385 161028 
1822.984 189203 216419 239525 255903 264888 269198 274303 285908 307427 
1827.324 337435 370198 396464 408701 403096 382999 357530 338994 336639 
1831.664 354380 389997 437987 492485 549113 606245 664182 723885 785456 
1836.003 847766 909619 970685 1032390 1098290 1172638 1258862 1358564 
1839.861 1471088 1593852 1724201 1859747 1998598 2139391 2280063 2418315 
1843.718 2552345 2681415 2806822 2931031 3055843 3180691 3302603 3415666 
1847.575 3512825 3588690 3640243 3667141 3671318 3655078 3619694 3564469 
1851.433 3488141 3390553 3273657 3142508 3003458 2862619 2723558 2586509 
1855.290 2450002 2311674 2171291 2031054 1894955 1766384 1646931 1535225 
1859.148 1428103 1322336 1216694 1112341 1012762 921208 839632 767897 704636 
1863.487 649116 602330 566862 545496 539060 544534 555151 561487 556013 
1867.827 534847 500048 459082 420641 392318 376864 372918 376930 385519 
1872.167 396198 408138 419845 429331 432780 426744 408138 377494 337302 
1876.506 292340 246620 202529 159470 115255 67664 16467 -36611 -88525 
1880.846 -136457 -179450 -218993 -257905 -298368 -340616 -382264 -420234 
1884.703 -451514 -475511 -494078 -510593 -527637 -546103 -564502 -580120 
1888.561 -590874 -597459 -602058 -607882 -616418 -626080 -632697 -631208 
1892.418 -617808 -593323 -561193 -527703 -498017 -474849 -457108 -441551 
1896.275 -424934 -406232 -386303 -368757 -355415 -346311 -339027 -329459 
1900.133 -314725 -294395 -270488 -246877 -227107 -211807 -199520 -187829 
1903.990 -174647 -159908 -145831 -135099 -129104 -126785 -124864 -119729 
1907.848 -109394 -95614 -83191 -78321 -85013 -103995 -131952 -163088 -191969 
1912.187 -215847 -234062 -248169 -259494 -268369 -273104 -273567 -270322 
1916.045 -267475 -270256 -283733 -308765 -341775 -374915 -400339 -413216 
1919.902 -414971 -410734 -408383 -414143 -429635 -452110 -476040 -496726 
1923.760 -512248 -524592 -537631 -554177 -573966 -593521 -607948 -613937 
1927.617 -612084 -607021 -604672 -610165 -623962 -642854 -659760 -668494 
1931.474 -666145 -653805 -635906 -618073 -604209 -596202 -594249 -598551 
1935.332 -609305 -627899 -654103 -685532 -716760 -740080 -749639 -743785 
1939.189 -726485 -705446 -689998 -686888 -696713 -714940 -733564 -746067 
1943.047 -748382 -742131 -730289 -716131 -700418 -680933 -655261 -623400 
1946.904 -587334 -552324 -523268 -501525 -484513 -466740 -443041 -411760 
1950.761 -376835 -346377 -328466 -328532 -344556 -369453 -393917 -410105 
1954.619 -414640 -410403 -403120 -398419 -398982 -403749 -408913 -412124 
1958.476 -412587 -411694 -411495 -412852 -413415 -409409 -397956 -379980 
1962.334 -359752 -344093 -338001 -342901 -354952 -367466 -374451 -374716 
1966.191 -371141 -370876 -380046 -399810 -425861 -451382 -470083 -481468 
1970.049 -490206 -503908 -528232 -562516 -599113 -626046 -633127 -616848 
1973.906 -581047 -535447 -487988 -440360 -387230 -318500 -225882 -111713 
1977.763 12060 124833 207170 247283 244366 206341 145747 74690 -762 -77559 
1982.585 -153946 -226743 -289461 -334889 -358627 -362467 -353992 -343828 
1986.443 -341510 -349423 -362302 -369287 -361474 -334061 -292508 -246877 
1990.300 -210250 -190644 -188094 -195148 -201408 -197467 -180145 -153118 
1994.157 -122744 -95548 -76102 -63778 -57616 -56854 -62420 -76035 -99191 
1998.497 -129402 -160372 -184252 -195049 -190180 -174647 -156530 -145467 
2002.354 -146295 -158616 -176402 -192201 -199586 -195910 -182596 -163618 
2006.212 -141061 -116516 -89982 -62320 -37174 -20907 -18389 -32370 -58808 
2010.552 -89518 -113767 -124334 -118636 -101775 -82363 -66892 -57881 -52481 
2014.891 -43337 -24750 4903 41552 77673 105843 124369 136169 147769 165370 
2019.713 191258 223579 258224 291213 323641 359487 404622 461703 527549 
2024.052 593803 649481 686615 703674 704835 699160 694613 693319 692622 
2028.392 685454 666339 634781 596756 561587 540089 538861 559762 600439 
2032.732 658142 731054 819249 922038 1035379 1149780 1253046 1333038 1382628 
2037.071 1403670 1405265 1400645 1402573 1418396 1448681 1489175 1533430 
2040.929 1575595 1613972 1647863 1676633 1697955 1707568 1700350 1674538 
2044.786 1632530 1580882 1530271 1491968 1474446 1482725 1516605 1572735 
2048.644 1643639 1719710 1790006 1842444 1868366 1863840 1832029 1783518 
2052.501 1732750 1696059 1684550 1701182 1739869 1788708 1833892 1865770 
2056.358 1881843 1886069 1885337 1886702 1892492 1901810 1911129 1917751 
2060.216 1921079 1924008 1929899 1940882 1956159 1972002 1983785 1988745 
2064.073 1986615 1980357 1973334 1967409 1961851 1952864 1936223 1909931 
2067.931 1875487 1837785 1802549 1774236 1754707 1741766 1732285 1723669 
2071.788 1715053 1708167 1705173 1706903 1711593 1715851 1715652 1709365 
2075.646 1698520 1687211 1680957 1683485 1695327 1712891 1731686 1746889 
2079.503 1755871 1758300 1756237 1751812 1746290 1740335 1733715 1727461 
2083.360 1722770 1721606 1725498 1734048 1744760 1754141 1758865 1757268 
2087.218 1750482 1740601 1729856 1719011 1706969 1691236 1670180 1644104 
2091.075 1616699 1593087 1578621 1576160 1585105 1602066 1622586 1643372 
2094.933 1663362 1683419 1705473 1730355 1756403 1780291 1798656 1809237 
2098.790 1812597 1811533 1809736 1810601 1815991 1825873 1840214 1859281 
2102.647 1884505 1917152 1958556 2006687 2057852 2107526 2151911 2189240 
2106.505 2221344 2251485 2283760 2320368 2361010 2404121 2447770 2491090 
2110.362 2535081 2581809 2632743 2687250 2742931 2795384 2841206 2879229 
2114.220 2911050 2939905 2969395 3001423 3035022 3067822 3097054 3121316 
2118.077 3141974 3162534 3186265 3215505 3249654 3286077 3320933 3351083 
2121.935 3375326 3394861 3412026 3429458 3449363 3472776 3500366 3532967 
2125.792 3571017 3614482 3661394 3708511 3750753 3783407 3804331 3814259 
2129.649 3817234 3819039 3825256 3838861 3860724 3889040 3921905 3959119 
2133.507 4001387 4049945 4104764 4163437 4220144 4269497 4306874 4331706 
2137.364 4346933 4358145 4369223 4382176 4395229 4404568 4407279 4402593 
2141.222 4393188 4382745 4374076 4367148 4357643 4340407 4311292 4270434 
2145.079 4221917 4172436 4128145 4091485 4060012 4028307 3992057 3950593 
2148.937 3907763 3871455 3847586 3837558 3836254 3832844 3813891 3770038 
2152.794 3696714 3596274 3475482 3342368 3204757 3069257 2943674 2838672 
2156.651 2767973 2747032 2786046 2885766 3032219 3200384 3361702 3490779 
2160.509 3573556 3609571 3607700 3581273 3544659 3509351 3481594 3464593 
2164.366 3458514 3460084 3464159 3463524 3450733 3420775 3372421 3308713 
2168.224 3236969 3165538 3101026 3046267 2999655 2955717 2908949 2855715 
2172.081 2795150 2729993 2663713 2600175 2541913 2491190 2448603 2414916 
2175.938 2390728 2374836 2362609 2348650 2325631 2288323 2236797 2175787 
2179.796 2113919 2060782 2024529 2006420 2003624 2009749 2018238 2025295 
2183.653 2030821 2036413 2044303 2054756 2065676 2075064 2080990 2084453 
2187.511 2088382 2096472 2110523 2129668 2150279 2168527 2181481 2189706 
2191.368 2196333 2205525 2220045 2239095 2259346 2275700 2285392 2287324 
2195.226 2285159 2283494 2287124 2298583 2318036 2342921 2370805 2399823 
2199.083 2429144 2458100 2485125 2507119 2521383 2525449 2520083 2509186 
2202.940 2498122 2492490 2494522 2502221 2510685 2514084 2508519 2493656 
2206.798 2473728 2455034 2442372 2438673 2442838 2451435 2461065 2468963 
2210.655 2474861 2479726 2484125 2487857 2489957 2488990 2484992 2479693 
2214.513 2476827 2479760 2489990 2506386 2525282 2542080 2553312 2558044 
2218.370 2557578 2554045 2548979 2542146 2532481 2518050 2498888 2478093 
2222.228 2459932 2449036 2448203 2456200 2468563 2480026 2485325 2481726 
2226.085 2470363 2454701 2437740 2422480 2409619 2398591 2388962 2381199 
2229.942 2376568 2376835 2382765 2393093 2405121 2415616 2422213 2424279 
2233.800 2423779 2422880 2424046 2428944 2437141 2448270 2462098 2478893 
2237.657 2499788 2525349 2554111 2583376 2608575 2626276 2633910 2632809 
2241.515 2625876 2617975 2613409 2614809 2623009 2638077 2659312 2686916 
2245.372 2721524 2762737 2809057 2857516 2903178 2941973 2971197 2990847 
2249.229 3002891 3010532 3016070 3020608 3023544 3024111 3022176 3019674 
2253.087 3020241 3027715 3044365 3069991 3100659 3130894 3153756 3164636 
2256.944 3160965 3143376 3114308 3077733 3037725 2997520 2959887 2926761 
2260.802 2899409 2878361 2863319 2853613 2848177 2846943 2849678 2857783 
2264.659 2872191 2893271 2919723 2948878 2976668 2998954 3013301 3018673 
2268.517 3016304 3008964 2999455 2990780 2984775 2982139 2982873 2986910 
2272.374 2993550 3001824 3010865 3019573 3027314 3033921 3040194 3047101 
2276.231 3055943 3067122 3080102 3093818 3106665 3117478 3125688 3132096 
2280.089 3137202 3142275 3147982 3154357 3161666 3170177 3180457 3192907 
2283.946 3208462 3226120 3244881 3262674 3277697 3288847 3296794 3302903 
2287.804 3309547 3318295 3330449 3345574 3362904 3381069 3399102 3416801 
2291.661 3434535 3452603 3471975 3492850 3516098 3541820 3570549 3602789 
2295.519 3637971 3675261 3712922 3749517 3783641 3814961 3844344 3873127 
2299.376 3902513 3932771 3963266 3992190 4017739 4039009 4055865 4069778 
2303.233 4082822 4096903 4113595 4133497 4156747 4183309 4213620 4248316 
2307.091 4288336 4334216 4385891 4442694 4503522 4567305 4633039 4699822 
2310.948 4766850 4832950 4896815 4956902 5012071 5062418 5108849 5153207 
2314.806 5197669 5243813 5293081 5346045 5402570 5462694 5526283 5593572 
2318.663 5664263 5737751 5813234 5889267 5964575 6037913 6107634 6171586 
2322.521 6226337 6268018 6292861 6297937 6283448 6252286 6210842 6166679 
2326.378 6128032 6101384 6090362 6095268 6113380 6140398 6171283 6202103 
2330.235 6230001 6253732 6273431 6290340 6306309 6323723 6344837 6371265 
2334.093 6403713 6441914 6483952 6528013 6571977 6614701 6656285 6697167 
2337.950 6738288 6780288 6822662 6864636 6904999 6942874 6977789 7009508 
2341.808 7037154 7058539 7070023 7066150 7040757 6988934 6908231 6800650 
2345.665 6673277 6538675 6411985 6309570 6246707 6233967 6277666 6378292 
2349.522 6531006 6726409 6950618 7189797 7429784 7659684 7873174 8068168 
2353.380 8245454 8406056 8550969 8680145 8793400 8892040 8979235 9059681 
2357.237 9138823 9220483 9305950 9393533 9480050 9561470 9634199 9696571 
2361.095 9747058 9785351 9811514 9825613 9828121 9820835 9806396 9787384 
2364.952 9766103 9743534 9718697 9689896 9655000 9612484 9562283 9504738 
2368.810 9440667 9371085 9295829 9214458 9127182 9034646 8938375 8840739 
2372.667 8744037 8649960 8559518 8473151 8391091 8313909 8242482 8177786 
2376.524 8120931 8072422 8032659 8001810 7980751 7970660 7972988 7989120 
2380.382 8019192 8062261 8115867 8177110 8242617 8310464 8379166 8447947 
2384.239 8516738 8584526 8649724 8710805 8765709 8813011 8852439 8883990 
2388.097 8908003 8924676 8934316 8936751 8932388 8922377 8908104 8891262 
2391.954 8873101 8853791 8833063 8810069 8784203 8755837 8726356 8697520 
2395.812 8671423 8649656 8632621 8620588 8613795 8613287 8620622 8638028 
2399.669 8667300 8709555 8764728 8831541 8908104 8992461 9082993 9178280 
2403.526 9277753 9380633 9486755 9596630 9711174 9832155 9961407 10099650 
2407.384 10246929 10401757 10561800 10724619 10889368 11056593 11227860 
2410.759 11405318 11589791 11780129 11972799 12162930 12345339 12516228 
2414.134 12673369 12816199 12945215 13060613 13162242 13249171 13320265 
2417.510 13374866 13413309 13436787 13447074 13446014 13435659 13417444 
2420.885 13393284 13365674 13336939 13309640 13285656 13266013 13250845 
2424.260 13240222 13234414 13234654 13242989 13262085 13294334 13341243 
2427.635 13403126 13479372 13569612 13673685 13792423 13926623 14077326 
2431.010 14244585 14427185 14623432 14830636 15047371 15272212 15504689 
2434.386 15744917 15992876 16248578 16512141 16784336 17066144 17359064 
2437.761 17664644 17983698 18316294 18661282 19017590 19383994 19760002 
2441.136 20145150 20539742 20942968 21353390 21769426 22189174 22612330 
2444.511 23039670 23473344 23915538 24368102 24831064 25302950 25780730 
2447.887 26260690 26740370 27217230 27690270 28158452 28620804 29076458 
2451.262 29523650 29960976 30387262 30801092 31201358 31586212 31953216 
2454.637 32299150 32620784 32915096 33179284 33411742 33610496 33773808 
2458.012 33899428 33984336 34025616 34020672 33967284 33864428 33712644 
2461.388 33513020 33268024 32980834 32655646 32297042 31910312 31501446 
2464.763 31076486 30641914 30205040 29772828 29353524 28955344 28585768 
2468.138 28251760 27958750 27709446 27504868 27344034 27224638 27144002 
2471.513 27099774 27089934 27112716 27166470 27248168 27354514 27480830 
2474.889 27622222 27773374 27929704 28087254 28242708 28393652 28538420 
2478.264 28675098 28802292 28917980 29019634 29104836 29170706 29214860 
2481.639 29236162 29234248 29210574 29167056 29106890 29032706 28947162 
2485.014 28852786 28751558 28645578 28537006 28427220 28317324 28207562 
2488.390 28096976 27984230 27867730 27746142 27618832 27485772 27346928 
2491.765 27202802 27053222 26897914 26736072 26566752 26388342 26199342 
2495.140 25997550 25780028 25544304 25288482 25012170 24717302 24407810 
2498.515 24088942 23766632 23445752 23129020 22817514 22510350 22206052 
2501.891 21903048 21601126 21300700 21003474 20711280 20426368 20150424 
2505.266 19885270 19631960 19391374 19163906 18948810 18744234 18548052 
2508.641 18357628 18171366 17988844 17811264 17640832 17480194 17331342 
2512.016 17195086 17070520 16955500 16847674 16744593 16644672 16547352 
2515.392 16452981 16362654 16277852 16200494 16132606 16076215 16032962 
2518.767 16003534 15987411 15983079 15988339 16000681 16017938 16039185 
2522.142 16063871 16092030 16124079 16160049 16199360 16241871 16286761 
2525.517 16333617 16382197 16431954 16481854 16530521 16575681 16614925 
2528.893 16646082 16667154 16676553 16673764 16658649 16631415 16593341 
2532.268 16546320 16492557 16434949 16376177 16318480 16263267 16211327 
2535.643 16162697 16117200 16075080 16036263 16001299 15970325 15943170 
2539.018 15919281 15898144 15879551 15863776 15851609 15843706 15840579 
2542.394 15841713 15845906 15851060 15855802 15858792 15860202 15860854 
2545.769 15862161 15865253 15870545 15877625 15885187 15892060 15896907 
2549.144 15898934 15898177 15894534 15888589 15880788 15871406 15861198 
2552.519 15850717 15840819 15832124 15825493 15821232 15819479 15820235 
2555.895 15823260 15828069 15833672 15838448 15840201 15836524 15825046 
2559.270 15804084 15772851 15731964 15682908 15627878 15568941 15507779 
2562.645 15445665 15383285 15321017 15259342 15198876 15140375 15084419 
2566.020 15032073 14983643 14939539 14900377 14866260 14837424 14814110 
2569.396 14796421 14784216 14777326 14775440 14778252 14785622 14797141 
2572.771 14812465 14831184 14853162 14878192 14906652 14938922 14975377 
2576.146 15016124 15060544 15107885 15156569 15205225 15252925 15299566 
2579.521 15345663 15392383 15440961 15492395 15547339 15606067 15668135 
2582.896 15733441 15801715 15872745 15946092 16021548 16098667 16176969 
2586.272 16256146 16336197 16417192 16499406 16583048 16668048 16754098 
2589.647 16841094 16928284 17015074 17101192 17186226 17269724 17352100 
2593.022 17433112 17513208 17592904 17672236 17751270 17829872 17907002 
2596.397 17982040 18054534 18124244 18191924 18258890 18326628 18396620 
2599.773 18470394 18548468 18631192 18718738 18811390 18909148 19012502 
2603.148 19121522 19235976 19355516 19479456 19607070 19737984 19871916 
2606.523 20008910 20149524 20293790 20441858 20593452 20747980 20904756 
2609.898 21062458 21219764 21375178 21527234 21674714 21816702 21952814 
2613.274 22083144 22207482 22325716 22437350 22541722 22638054 22725960 
2616.649 22805328 22876954 22941712 23000506 23053960 23102392 23145934 
2620.024 23184764 23219190 23250442 23279804 23308612 23337842 23368296 
2623.399 23399940 23432986 23467260 23503108 23540850 23580798 23622990 
2626.775 23667354 23713474 23761208 23810520 23861732 23915642 23972784 
2630.150 24033294 24097138 24163514 24231966 24301764 24372412 24443808 
2633.525 24515636 24587302 24658418 24727932 24795350 24860606 24923906 
2636.900 24986374 25048884 25112316 25177162 25243564 25311310 25380542 
2640.276 25451366 25523994 25598706 25675508 25754008 25833474 25913480 
2643.651 25993750 26074560 26156830 26241472 26329404 26421124 26516700 
2647.026 26615998 26718700 26824668 26933906 27046348 27161884 27280204 
2650.401 27400850 27523296 27647224 27772740 27900164 28029678 28161882 
2653.777 28296600 28433448 28572392 28713326 28856856 29003692 29154584 
2657.152 29310348 29471238 29636692 29806398 29979364 30154816 30332470 
2660.527 30511868 30692798 30874868 31057338 31239846 31421758 31602890 
2663.902 31783346 31963020 32142274 32321066 32499392 32677080 32854088 
2667.278 33030562 33206820 33383116 33559912 33737284 33915440 34094532 
2670.653 34274776 34456668 34640792 34827756 35017820 35211024 35407116 
2674.028 35605488 35805172 36005640 36205620 36404176 36600264 36792912 
2677.403 36981488 37166472 37348712 37530168 37713108 37899988 38092776 
2680.779 38293356 38502540 38721352 38950636 39191248 39443968 39709504 
2684.154 39988244 40279964 40584320 40900500 41227732 41565276 41912712 
2687.529 42269380 42634816 43008392 43389536 43777392 44171756 44572064 
2690.904 44978068 45389712 45806936 46229724 46658752 47094776 47539112 
2694.280 47992932 48457268 48932260 49417060 49910200 50409632 50913928 
2697.655 51422088 51934020 52450108 52971264 53497728 54029600 54566368 
2701.030 55107072 55650488 56195260 56739584 57281908 57820136 58352064 
2704.405 58875612 59389040 59890756 60379264 60853076 61309888 61746940 
2707.781 62160916 62548808 62907784 63236208 63533648 63800484 64038300 
2711.156 64248196 64431980 64590664 64725252 64836292 64924164 64988428 
2714.531 65028028 65041884 65028064 64985544 64913280 64811372 64680680 
2717.906 64522504 64338908 64131848 63904040 63658780 63399324 63130512 
2721.281 62857084 62584244 62317052 62060416 61818720 61595824 61395144 
2724.657 61219312 61070400 60949640 60857460 60793692 60758056 60749824 
2728.032 60768960 60815264 60888296 60987232 61110524 61256356 61422392 
2731.407 61606440 61806876 62022196 62251428 62492828 62744744 63004696 
2734.782 63269860 63537756 63806280 64074008 64340212 64604348 64865528 
2738.158 65122716 65374620 65619848 65857692 66088072 66311852 66530264 
2741.533 66744424 66955984 67166096 67376088 67587640 67802552 68023424 
2744.908 68252352 68491448 68741512 69002904 69274088 69553384 69837128 
2748.283 70121656 70402224 70674792 70934976 71179736 71406784 71615856 
2751.659 71806808 71980608 72138440 72281176 72409944 72525712 72629992 
2755.034 72723928 72808904 72885360 72952176 73007632 73048640 73071776 
2758.409 73074128 73053032 73006976 72934536 72834288 72705008 72544976 
2761.784 72353496 72130808 71878240 71598896 71296152 70973632 70634560 
2765.160 70281648 69917656 69545488 69168944 68792912 68422288 68062328 
2768.535 67717544 67391256 67086084 66804356 66547648 66317640 66115312 
2771.910 65940448 65792420 65668680 65566280 65482012 65412632 65355472 
2775.285 65308256 65268248 65232708 65197744 65159248 65112008 65051696 
2778.661 64973808 64874308 64749516 64596816 64414112 64201212 63959896 
2782.036 63693888 63409292 63112544 62810980 62510660 62215708 61928412 
2785.411 61650008 61379992 61116932 60859248 60604580 60350252 60093176 
2788.786 59830856 59560860 59282188 58995040 58700876 58401752 58100604 
2792.162 57800152 57503012 57212120 56929928 56658976 56401588 56159400 
2795.537 55933848 55725480 55534496 55361064 55205116 55067164 54947080 
2798.912 54844624 54759560 54690516 54636256 54595640 54567572 54551756 
2802.287 54547320 54553484 54568548 54590040 54615400 54641664 54666956 
2805.663 54690068 54710924 54729832 54747232 54763132 54777260 54788652 
2809.038 54795944 54798276 54793952 54781512 54759144 54724568 54675072 
2812.413 54608636 54523728 54419872 54298012 54160316 54009488 53849336 
2815.788 53684108 53517932 53355860 53203068 53064780 52946636 52853740 
2819.164 52790540 52761020 52768504 52814828 52901496 53028836 53196140 
2822.539 53401272 53640732 53910404 54204648 54517680 54843424 55175428 
2825.914 55507688 55833948 56147932 56444224 56717532 56963512 57179392 
2829.289 57363308 57515192 57636252 57728660 57795684 57840692 57867572 
2832.665 57880180 57882220 57878060 57871584 57867304 57869612 57883280 
2836.040 57912204 57960328 58030536 58125188 58247172 58400084 58588544 
2839.415 58819988 59102996 59447928 59866716 60370504 60971256 61681744 
2842.790 62514484 63485028 64610964 65910332 67402160 69100944 71012264 
2846.166 73126784 75414256 77822152 80266824 82643856 84833320 86703144 
2849.541 88134960 89032576 89332600 89016760 88110160 86678912 84813176 
2852.916 82623536 80227448 77730520 75232064 72814112 70536176 68441416 
2856.291 66553712 64879880 63413240 62136984 61029252 60063992 59215692 
2859.667 58461680 57780360 57154180 56569024 56012964 55477684 54957984 
2863.042 54451384 53957224 53477004 53013376 52569240 52149168 51758920 
2866.417 51404520 51093688 50833648 50630172 50486856 50404240 50379492 
2869.792 50406508 50477292 50582036 50709780 50849444 50990088 51121264 
2873.167 51234668 51324604 51388856 51429024 51450028 51458944 51462972 
2876.543 51469272 51482964 51507812 51545716 51597992 51665200 51747420 
2879.918 51844556 51956428 52082296 52221580 52374104 52539696 52718596 
2883.293 52910364 53113792 53326788 53546376 53768888 53991552 54211892 
2886.668 54429560 54644824 54859176 55074912 55293956 55519096 55752980 
2890.044 55998944 56261032 56544188 56853516 57195868 57578556 58009708 
2893.419 58499140 59057784 59695876 60423396 61246704 62166960 63176996 
2896.794 64260564 65389716 66524320 67618064 68618680 69473936 70143264 
2900.169 70598928 70833472 70859760 70710632 70432544 70076408 69695544 
2903.545 69336984 69038096 68829208 68731616 68760648 68927176 69238576 
2906.920 69699864 70314792 71086408 72019008 73118472 74392136 75847392 
2910.295 77489408 79316760 81318896 83472360 85743264 88083408 90434312 
2913.670 92734184 94913928 96906656 98653832 100105176 101227480 102006280 
2917.046 102447200 102572808 102416528 102019816 101420736 100650128 
2919.939 99729944 98670592 97473864 96137144 94657776 93037072 91284736 
2923.314 89418976 87468184 85469504 83461800 81486624 79581696 77776448 
2926.689 76092488 74541640 73126664 71843168 70681968 69631240 68677432 
2930.064 67807896 67011192 66276996 65597376 64966188 64378908 63832840 
2933.440 63326016 62857120 62424728 62027164 61662116 61326300 61015640 
2936.815 60725284 60449596 60182300 59917528 59651132 59380264 59105352 
2940.190 58829476 58558588 58299956 58061136 57848828 57667276 57517308 
2943.565 57395792 57295744 57206532 57114460 57006012 56868588 56693108 
2946.941 56476864 56223584 55944176 55653916 55371300 55114860 54899104 
2950.316 54734376 54624756 54568848 54560208 54588800 54643132 54710096 
2953.691 54777712 54835380 54874252 54888088 54873384 54828612 54753732 
2957.066 54650044 54519860 54365604 54190908 54000108 53797992 53589784 
2960.442 53380852 53175204 52976692 52787736 52610008 52444988 52293968 
2963.817 52157836 52037512 51933684 51846236 51774932 51719204 51678296 
2967.192 51651352 51637472 51634972 51642024 51657136 51678816 51706696 
2970.567 51741596 51785756 51841868 51912400 51998440 52099816 52214144 
2973.943 52337436 52464388 52589288 52704752 52802812 52874960 52911076 
2977.318 52901756 52839036 52717584 52536220 52298304 52011364 51685576 
2980.693 51333288 50967392 50599532 50240428 49898824 49580896 49289880 
2984.068 49025728 48785316 48562340 48349076 48137912 47922332 47698984 
2987.444 47467328 47229364 46987692 46743684 46495536 46237612 45961164 
2990.819 45654384 45307100 44911740 44466300 43975412 43449772 42905128 
2994.194 42357768 41823244 41312740 40831696 40379804 39951992 39541224 
2997.569 39139796 38741676 38343916 37945944 37549172 37156188 36769436 
3000.945 36390376 36019820 35657820 35303736 34958024 34621056 34293524 
3004.320 33976528 33670896 33376854 33094350 32822784 32561638 32310214 
3007.695 32068494 31836220 31613686 31400670 31196232 30999188 30808134 
3011.070 30621078 30436836 30255268 30076616 29902260 29733724 29571992 
3014.446 29417624 29270258 29128682 28991402 28857458 28726282 28598190 
3017.821 28473884 28354354 28240338 28131866 28028406 27929138 27832932 
3021.196 27738654 27645774 27554044 27463426 27374628 27288320 27206118 
3024.571 27129612 27061298 27003750 26959396 26930134 26916774 26918748 
3027.947 26933412 26956574 26982384 27004174 27014612 27007630 26978364 
3031.322 26924566 26846134 26745514 26626496 26493386 26350458 26201102 
3034.697 26047856 25892802 25737802 25584896 25436258 25294312 25160940 
3038.072 25037720 24924818 24821732 24727090 24638884 24555220 24474094 
3041.448 24394316 24315148 24237012 24160536 24087436 24019144 23956956 
3044.823 23901324 23851474 23806216 23763588 23721942 23680580 23639572 
3048.198 23599758 23562608 23528922 23498808 23471700 23446100 23420746 
3051.573 23394624 23367490 23339274 23310466 23281378 23251804 23221498 
3054.948 23190390 23158550 23126782 23096452 23068740 23045016 23025906 
3058.324 23011196 23000786 22993972 22990480 22990584 22994566 23002846 
3061.699 23015878 23033626 23055988 23082438 23112874 23146740 23184098 
3065.074 23224714 23268444 23314870 23363400 23412878 23462434 23510594 
3068.449 23555788 23596192 23630372 23656998 23675228 23685236 23687578 
3071.825 23683834 23676102 23666620 23657348 23650386 23647482 23649614 
3075.200 23657348 23670572 23688208 23708994 23731182 23752984 23772898 
3078.575 23790116 23804082 23814688 23822316 23827322 23830192 23831488 
3081.950 23831664 23831418 23831592 23832432 23834184 23836948 23840694 
3085.326 23845666 23852804 23863062 23877590 23897472 23922890 23953106 
3088.701 23986720 24021910 24056896 24090764 24123442 24155142 24187264 
3092.076 24220966 24257228 24296786 24340344 24387622 24438794 24493198 
3095.451 24550240 24609076 24668762 24728806 24789106 24849940 24911904 
3098.827 24975562 25041372 25108700 25177126 25245670 25313734 25381210 
3102.202 25448520 25516194 25585248 25656068 25728626 25802530 25877398 
3105.577 25952242 26026466 26099542 26170344 26238656 26303810 26366194 
3108.952 26426370 26486202 26547520 26612192 26681914 26757178 26837568 
3112.328 26922204 27009708 27098998 27188868 27278440 27366830 27453014 
3115.703 27536004 27614984 27689564 27760412 27828268 27894512 27960268 
3119.078 28026036 28091674 28156930 28221314 28285212 28349580 28415830 
3122.453 28485594 28560076 28639278 28722388 28807850 28893650 28977836 
3125.829 29059132 29137078 29211672 29283726 29354516 29425212 29497302 
3129.204 29571602 29648398 29727444 29807888 29888346 29968004 30046186 
3132.579 30122922 30199178 30276228 30355318 30437334 30522530 30610376 
3135.954 30700300 30791558 30883336 30975416 31067408 31158888 31249460 
3139.330 31338948 31426638 31512812 31597506 31681150 31764272 31847306 
3142.705 31930532 32014490 32099568 32186198 32275200 32367110 32462080 
3146.080 32559708 32659076 32758716 32857378 32954094 33048868 33142340 
3149.455 33236294 33332166 33431604 33535644 33644076 33755940 33869872 
3152.831 33983692 34095788 34204864 34311060 34414592 34516756 34618756 
3156.206 34721612 34825892 34931560 35037900 35144372 35250368 35355492 
3159.581 35460140 35564740 35669764 35775744 35882900 35991672 36102088 
3162.956 36214588 36329024 36445360 36563068 36681128 36798608 36914820 
3166.332 37029116 37141352 37251592 37359692 37465292 37567592 37665804 
3169.707 37759296 37848436 37934412 38018924 38104428 38192224 38282828 
3173.082 38375588 38468616 38559748 38647024 38729104 38805468 38877032 
3176.457 38944584 39009792 39074096 39138888 39204920 39272812 39342600 
3179.833 39413488 39485080 39556536 39627424 39698068 39768940 39840664 
3183.208 39913848 39988500 40063708 40139224 40214132 40288252 40362384 
3186.583 40437076 40513020 40590284 40668364 40746240 40823144 40898424 
3189.958 40972264 41045528 41119064 41192976 41267484 41342076 41416280 
3193.333 41490096 41564144 41639260 41715960 41794352 41873088 41950628 
3196.709 42025560 42096924 42165744 42233552 42302248 42373440 42446908 
3200.084 42521484 42594612 42664168 42728656 42788396 42844708 42899680 
3203.459 42955528 43013696 43074684 43138904 43206316 43276632 43349408 
3206.834 43424068 43499068 43572836 43643576 43710040 43772188 43831120 
3210.210 43888524 43946116 44005184 44065908 44127412 44188852 44249492 
3213.585 44308968 44367684 44425996 44484144 44542140 44599824 44657072 
3216.960 44714468 44772872 44833224 44896308 44961864 45029152 45096232 
3220.335 45161928 45225428 45287276 45349064 45412444 45478776 45548940 
3223.711 45622396 45697928 45774096 45849908 45924444 45997632 46069396 
3227.086 46139876 46209124 46277564 46345320 46412896 46480524 46547756 
3230.461 46614152 46679044 46741432 46801324 46859120 46915708 46972264 
3233.836 47029600 47087908 47147108 47206760 47266604 47327344 47390308 
3237.212 47456276 47526396 47600296 47676724 47754164 47831028 47906496 
3240.587 47980908 48054960 48129356 48204324 48279156 48352336 48423040 
3243.962 48490684 48556008 48620928 48687304 48756696 48829064 48903708 
3247.337 48978916 49053400 49126340 49198064 49269576 49342440 49417280 
3250.713 49494772 49574284 49654924 49735612 49815612 49894144 49970976 
3254.088 50045888 50118956 50190252 50260476 50330160 50399996 50470220 
3257.463 50540640 50610108 50677904 50742512 50803552 50860692 50914560 
3260.838 50965976 51015908 51065248 51114852 51165212 51217104 51271128 
3264.214 51327472 51385760 51444992 51503520 51559632 51612168 51660832 
3267.589 51706288 51750144 51794156 51840412 51889620 51941900 51996908 
3270.964 52053572 52110688 52167176 52222180 52274536 52324092 52370892 
3274.339 52415224 52458632 52502640 52549196 52599756 52655452 52716272 
3277.715 52782084 52851832 52925000 53000796 53078596 53158240 53239064 
3281.090 53320608 53402584 53485212 53568980 53654300 53742380 53833696 
3284.465 53928600 54027312 54129840 54235992 54346376 54461184 54580456 
3287.840 54704160 54831616 54961824 55094208 55229084 55366520 55508028 
3291.216 55654896 55808476 55969164 56137072 56311352 56491580 56677136 
3294.591 56867676 57062840 57262740 57466700 57674656 57886272 58101588 
3297.966 58321332 58546036 58776588 59013600 59257388 59507544 59764004 
3301.341 60026552 60295312 60570676 60852844 61142144 61438652 61742472 
3304.717 62053804 62372856 62700292 63035680 63378616 63727424 64080732 
3308.092 64437324 64796752 65160208 65529480 65906436 66292204 66686668 
3311.467 67087708 67493232 67901680 68312416 68727080 69147920 69577176 
3314.842 70016408 70464728 70919952 71379248 71840320 72301920 72764624 
3318.218 73229840 73698696 74171976 74649640 75130896 75614696 76100664 
3321.593 76588312 77077344 77567120 78055984 78542712 79025920 79505360 
3324.968 79982032 80457640 80933560 81410136 81885624 82356944 82820200 
3328.343 83272224 83710704 84135432 84547368 84947336 85336120 85713312 
3331.719 86077664 86427320 86760264 87074768 87368784 87640456 87887592 
3335.094 88108656 88303512 88472584 88618360 88743448 88850120 88938760 
3338.469 89008296 89055432 89076552 89068416 89029080 88958200 88856656 
3341.844 88725120 88564192 88373600 88152168 87898992 87613376 87294968 
3345.219 86943680 86559960 86144128 85696768 85218984 84712688 84180760 
3348.595 83626264 83052496 82461456 81854608 81232280 80594528 79941528 
3351.970 79274520 78595152 77905992 77209840 76509112 75806320 75103680 
3355.345 74402720 73705248 73012384 72325672 71646176 70975432 70315424 
3358.720 69668784 69038216 68426472 67835320 67265040 66714136 66179864 
3362.096 65659316 65149704 64649836 64159960 63680992 63215008 62763460 
3365.471 62327148 61906060 61499804 61107660 60728560 60361936 60007152 
3368.846 59662652 59327992 59001796 58682972 58371316 58066096 57766844 
3372.221 57472680 57182072 56893024 56603564 56311500 56015376 55714444 
3375.597 55408224 55096088 54777788 54452656 54120344 53780892 53434808 
3378.972 53082564 52725104 52362780 51994932 51620564 51238208 50846240 
3382.347 50444056 50031316 49609196 49178544 48741388 48299116 47853740 
3385.722 47406792 46959896 46514636 46072416 45633920 45199796 44770116 
3389.098 44344344 43921960 43502436 43085184 42670272 42258312 41850064 
3392.473 41447444 41052084 40665052 40286836 39916576 39552580 39192444 
3395.848 38834276 38477020 38121316 37768296 37420148 37078196 36742644 
3399.223 36412140 36084588 35757468 35429436 35100368 34771648 34444904 
3402.599 34121948 33802892 33487324 33173562 32860308 32546890 32233764 
3405.974 31922794 31616182 31315516 31021784 30734582 30453008 30175346 
3409.349 29900736 29628746 29359090 29092434 28829308 28569738 28313682 
3412.724 28060746 27810430 27562306 27316546 27073182 26832952 26596726 
3416.100 26365350 26139762 25920234 25706934 25499538 25296838 25097992 
3419.475 24902290 24709656 24520158 24334702 24153634 23976986 23804222 
3422.850 23634362 23465964 23298228 23130452 22962706 22795340 22629224 
3426.225 22464462 22301752 22141506 21983972 21829490 21677814 21528940 
3429.601 21381652 21234864 21087258 20938238 20788126 20638204 20490416 
3432.976 20346812 20208668 20076018 19948162 19823152 19699080 19574660 
3436.351 19449308 19323332 19197984 19074054 18952514 18833742 18717354 
3439.726 18602726 18488822 18373944 18256886 18136232 18011604 17882798 
3443.102 17751064 17618196 17485852 17355790 17228524 17104226 16982030 
3446.477 16861418 16742149 16625185 16511211 16401604 16296668 16195886 
3449.852 16097566 15999751 15900137 15797624 15691530 15582816 15471932 
3453.227 15360149 15247983 15136086 15024596 14914128 14805162 14698350 
3456.603 14594270 14493127 14394441 14297795 14202165 14107035 14011858 
3459.978 13916633 13820744 13724604 13627629 13530027 13432105 13334547 
3463.353 13238172 13143731 13051154 12959963 12869302 12778218 12686094 
3466.728 12592967 12499724 12407455 12316841 12228496 12141634 12055641 
3470.104 11969428 11882651 11795518 11708912 11623312 11539395 11456957 
3473.479 11375011 11292503 11208514 11123045 11036540 10950664 10866707 
3476.854 10786164 10709812 10637174 10567809 10500355 10433218 10365581 
3480.229 10296700 10226574 10156223 10087001 10019893 9956186 9896114 
3483.604 9839204 9784572 9731098 9678106 9625696 9574172 9524247 9476257 
3487.462 9429966 9384053 9337230 9288246 9236661 9183492 9130566 9080455 
3491.319 9034950 8994626 8958804 8926199 8894712 8862955 8830627 8798775 
3495.177 8769191 8744003 8724801 8712496 8707290 8708337 8714794 8725443 
3499.034 8739034 8754551 8771186 8788159 8805098 8822140 8839522 8858593 
3502.892 8880642 8907055 8939221 8978153 9024294 9077477 9137536 9202782 
3506.749 9271863 9342952 9414323 9485096 9555305 9626135 9699485 9777218 
3510.606 9860490 9949642 10043459 10140484 10239296 10339113 10440005 
3513.982 10542789 10648414 10756953 10867727 10978800 11087761 11192670 
3517.357 11291993 11385011 11472062 11553585 11629370 11698939 11760962 
3520.732 11813597 11855001 11883128 11896443 11893412 11873321 11835694 
3524.107 11781389 11711602 11627668 11531569 11424674 11307296 11179683 
3527.483 11041537 10892698 10733891 10566281 10391813 10212461 10030167 
3530.858 9846457 9662623 9479576 9298130 9118520 8940742 8763714 8586115 
3534.715 8406495 8223910 8038633 7851816 7665788 7483379 7306337 7135598 
3538.573 6971055 6811992 6657497 6507596 6362724 6224286 6093319 5970353 
3542.430 5854607 5744937 5638483 5533196 5426592 5317466 5205013 5089673 
3546.288 4972118 4854427 4738343 4626208 4519759 4419965 4326920 4239249 
3550.145 4154672 4070313 3983964 3894456 3801390 3706873 3613112 3522545 
3554.002 3436739 3356660 3281803 3211332 3144077 3079034 3015870 2954316 
3557.860 2894038 2834770 2775876 2716190 2655712 2594342 2533214 2474528 
3561.717 2421180 2375702 2339856 2313606 2294119 2276799 2254483 2219979 
3565.575 2166862 2091478 1994770 1882109 1762824 1646732 1542707 1455629 
3569.432 1386052 1331243 1286410 1245802 1205032 1161109 1112773 1060688 
3573.290 1006950 953384 901949 853974 809157 766901 725711 684458 642214 
3577.629 598647 554520 510431 468138 428535 392384 360018 331234 305934 
3581.969 284283 266214 252654 244067 240619 241514 244531 245824 240586 
3586.308 223248 189965 139350 74292 1093 -72159 -137087 -187465 -221378 
3590.648 -239691 -246215 -246149 -245486 -249063 -260587 -281945 -312904 
3594.505 -351807 -396135 -442776 -488816 -531641 -569167 -600040 -624525 
3598.363 -642986 -657477 -670181 -682918 -697276 -713716 -731811 -750235 
3602.220 -767467 -781723 -791380 -795217 -792174 -782384 -766938 -748349 
3606.078 -730355 -718678 -718017 -732406 -763002 -807619 -860367 -914629 
3609.935 -963693 -1003695 -1033941 -1056319 -1074796 -1092776 -1112903 
3613.310 -1135376 -1158608 -1179360 -1194131 -1200938 -1199649 -1191851 
3616.686 -1181806 -1174734 -1176386 -1191586 -1222514 -1267711 -1322979 
3620.061 -1381048 -1434750 -1479232 -1511691 -1532294 -1542859 -1545137 
3623.436 -1540020 -1526747 -1503172 -1467212 -1418105 -1358092 -1292951 
3626.811 -1232955 -1191752 -1182169 -1213494 -1285287 -1386168 -1496171 
3630.187 -1595782 -1672364 -1721772 -1747448 -1757150 -1760054 -1763651 
3633.562 -1772759 -1789027 -1811036 -1835518 -1858977 -1880058 -1898368 
3636.937 -1914631 -1930169 -1945112 -1958866 -1970246 -1977997 -1981856 
3640.312 -1982780 -1982417 -1982483 -1983143 -1983044 -1978657 -1966189 
3643.688 -1942638 -1906450 -1859175 -1804634 -1747976 -1695336 -1651998 
3647.063 -1622554 -1610241 -1617239 -1644538 -1691771 -1756325 -1832384 
3650.438 -1911135 -1982417 -2037363 -2069781 -2077959 -2064471 -2035616 
3653.813 -1999238 -1964078 -1938811 -1930367 -1941351 -1970147 -2010782 
3657.188 -2054611 -2092897 -2119968 -2133487 -2135003 -2128607 -2119375 
3660.564 -2112055 -2109450 -2111230 -2114956 -2116869 -2112417 -2098832 
3663.939 -2074463 -2038584 -1990630 -1929905 -1854753 -1764047 -1657610 
3667.314 -1537544 -1406215 -1266258 -1116175 -948915 -750301 -501492 -185444 
3671.172 211048 694647 1267734 1929566 2674781 3487773 4326720 5113979 
3675.029 5743795 6097822 6097015 5732481 5061412 4177086 3176185 2148914 
3678.886 1165295 282228 -457836 -1035958 -1455059 -1738009 -1918095 -2030207 
3682.744 -2102228 -2149741 -2179348 -2191711 -2185941 -2163885 -2130453 
3686.119 -2092962 -2060085 -2038914 -2034099 -2047455 -2077101 -2119276 
3689.494 -2170116 -2225468 -2282295 -2338192 -2390754 -2437906 -2477904 
3692.870 -2509366 -2531865 -2545964 -2552486 -2553112 -2549818 -2544218 
3696.245 -2537465 -2530383 -2522180 -2511935 -2498396 -2481330 -2461431 
3699.620 -2441629 -2425188 -2416193 -2417115 -2428153 -2446835 -2469173 
3702.995 -2490786 -2508344 -2519809 -2524552 -2522740 -2514670 -2499680 
3706.371 -2477673 -2448153 -2411711 -2369895 -2325504 -2281999 -2243334 
3709.746 -2213501 -2196128 -2194645 -2211556 -2246927 -2297984 -2359086 
3713.121 -2422354 -2479518 -2524355 -2553277 -2566189 -2565333 -2554726 
3716.496 -2538388 -2519315 -2499285 -2478036 -2454907 -2429010 -2400805 
3719.872 -2371773 -2344355 -2320923 -2303521 -2292777 -2288195 -2288426 
3723.247 -2291985 -2297753 -2305532 -2315782 -2329162 -2346234 -2366006 
3726.622 -2386108 -2402386 -2410228 -2404956 -2383867 -2346563 -2296006 
3729.997 -2237665 -2178524 -2125936 -2085345 -2058469 -2043135 -2035088 
3733.373 -2030801 -2029745 -2035517 -2054018 -2090852 -2147301 -2218512 
3736.748 -2294556 -2364688 -2420773 -2458729 -2477970 -2480144 -2465977 
3740.123 -2434941 -2385548 -2317858 -2234731 -2144565 -2062394 -2006131 
3743.498 -1993796 -2033868 -2117363 -2218084 -2304774 -2355428 -2362382 
3746.874 -2332063 -2277252 -2213963 -2156632 -2115154 -2095633 -2097942 
3750.249 -2119177 -2155082 -2202326 -2257574 -2316869 -2374574 -2423870 
3753.624 -2458663 -2476257 -2476948 -2464857 -2445649 -2425155 -2408383 
3756.999 -2398135 -2395335 -2399651 -2410591 -2427527 -2449603 -2475071 
3760.375 -2500735 -2522049 -2534369 -2535160 -2524486 -2505347 -2482846 
3763.750 -2462222 -2447659 -2440476 -2438829 -2438730 -2435237 -2425880 
3767.125 -2410822 -2393489 -2378760 -2372465 -2378232 -2397081 -2425781 
3770.500 -2459388 -2491543 -2517602 -2534797 -2543493 -2545437 -2543329 
3773.875 -2539540 -2534863 -2528835 -2519874 -2506598 -2488380 -2467098 
3777.251 -2447132 -2433227 -2431218 -2443903 -2470755 -2507159 -2545569 
3780.626 -2577915 -2598666 -2605549 -2600115 -2586380 -2569120 -2552816 
3784.001 -2540364 -2532788 -2530021 -2530943 -2534731 -2540496 -2547677 
3787.376 -2555583 -2563422 -2570372 -2575774 -2579364 -2581999 -2583778 
3790.752 -2585425 -2586610 -2586215 -2582757 -2575346 -2563554 -2548797 
3794.127 -2533513 -2520500 -2511639 -2506994 -2504325 -2498494 -2484823 
3797.502 -2458499 -2418466 -2366929 -2310014 -2257179 -2219073 -2206084 
3800.877 -2223688 -2269803 -2332788 -2395796 -2443475 -2465319 -2459322 
3804.253 -2430855 -2390095 -2349562 -2320923 -2313112 -2328437 -2362019 
3807.628 -2403638 -2442288 -2470293 -2484658 -2486272 -2478332 -2463441 
3811.003 -2442354 -2413787 -2375563 -2326295 -2266705 -2201601 -2138103 
3814.378 -2086401 -2056062 -2052665 -2074200 -2111230 -2149642 -2175589 
3817.754 -2181425 -2166523 -2137410 -2105262 -2083268 -2083828 -2113604 
3821.129 -2171007 -2244521 -2318880 -2379320 -2417741 -2433293 -2430657 
3824.504 -2417544 -2401101 -2387195 -2378760 -2374706 -2372432 -2367654 
3827.879 -2357702 -2341224 -2318913 -2292809 -2265221 -2238126 -2212842 
3831.255 -2189898 -2168897 -2149280 -2130058 -2110373 -2089599 -2067604 
3834.630 -2045047 -2023710 -2006329 -1996138 -1996237 -2008605 -2032582 
3838.005 -2065032 -2101569 -2137212 -2168369 -2193886 -2214424 -2231731 
3841.380 -2248015 -2264793 -2283020 -2302862 -2323757 -2344322 -2363172 
3844.756 -2378199 -2387426 -2389403 -2383142 -2368412 -2345706 -2315749 
3848.131 -2278439 -2232984 -2177502 -2110307 -2031064 -1942802 -1853005 
3851.506 -1774904 -1725798 -1723686 -1778566 -1886261 -2026216 -2169424 
3854.881 -2290074 -2375266 -2423804 -2442025 -2438796 -2422058 -2397773 
3858.257 -2368972 -2337401 -2303851 -2268880 -2233709 -2199128 -2166424 
3861.632 -2136586 -2110867 -2091215 -2080333 -2080894 -2094446 -2119012 
3865.007 -2149477 -2176974 -2192601 -2190425 -2169259 -2134443 -2095172 
3868.382 -2063647 -2051017 -2062361 -2095238 -2138795 -2180601 -2209908 
3871.758 -2223919 -2225666 -2223292 -2225237 -2236939 -2258728 -2285921 
3875.133 -2310541 -2324087 -2321187 -2300917 -2266342 -2223094 -2178161 
3878.508 -2139323 -2112120 -2100019 -2103053 -2117363 -2136190 -2151851 
3881.883 -2157819 -2151390 -2133618 -2109911 -2088676 -2079344 -2088676 
3885.259 -2118649 -2164413 -2215216 -2258365 -2284273 -2289052 -2275143 
3888.634 -2249103 -2219435 -2194546 -2180699 -2179974 -2190886 -2208985 
3892.009 -2228171 -2243598 -2252168 -2252531 -2244620 -2228863 -2205524 
3895.384 -2174930 -2137971 -2096557 -2053391 -2011804 -1975457 -1947487 
3898.760 -1929476 -1921460 -1921592 -1927497 -1936799 -1948212 -1961901 
3902.135 -1979449 -2002404 -2032252 -2068066 -2107570 -2146906 -2181656 
3905.510 -2208557 -2226259 -2235192 -2237236 -2234764 -2230248 -2224743 
3908.885 -2219073 -2212842 -2205919 -2197842 -2188480 -2177699 -2165237 
3912.260 -2150500 -2132893 -2111758 -2087555 -2061998 -2037726 -2018433 
3915.636 -2006758 -2004482 -2011276 -2024897 -2041420 -2057447 -2070275 
3919.011 -2078618 -2082509 -2082740 -2080432 -2075914 -2069814 -2062921 
3922.386 -2056227 -2051412 -2049862 -2052665 -2059624 -2069253 -2079047 
3925.761 -2086203 -2089203 -2087456 -2081982 -2074364 -2066483 -2059887 
3929.137 -2055040 -2052237 -2051478 -2052863 -2056953 -2064669 -2076145 
3932.512 -2090885 -2107240 -2123034 -2135960 -2144433 -2147862 -2146807 
3935.887 -2142521 -2136124 -2128706 -2120726 -2111560 -2100876 -2088676 
3939.262 -2075386 -2062196 -2050654 -2042937 -2040299 -2043531 -2051940 
3942.638 -2063944 -2077035 -2088511 -2096194 -2099096 -2097447 -2092402 
3946.013 -2086038 -2080498 -2077497 -2077695 -2080795 -2085576 -2090423 
3949.388 -2093787 -2094611 -2092732 -2088676 -2083268 -2077695 -2072913 
3952.763 -2069781 -2068791 -2070242 -2073573 -2078124 -2082740 -2085939 
3956.139 -2086269 -2082608 -2074397 -2062097 -2046927 -2030405 -2014376 
3959.514 -2000360 -1989706 -1983341 -1981494 -1983901 -1989904 -1998249 
3962.889 -2007253 -2015135 -2019785 -2020412 -2016092 -2007055 -1994522 
3966.264 -1979910 -1964837 -1950884 -1939075 -1929740 -1923142 -1918557 
3969.640 -1915489 -1913147 -1910937 -1908627 -1906054 -1903250 -1900776 
3973.015 -1899094 -1898269 -1898203 -1898104 -1897543 -1895366 -1891407 
3976.390 -1885568 -1878409 -1870689 -1862903 -1855479 -1848056 -1840104 
3979.765 -1831295 -1821694 -1811597 -1802061 -1794372 -1789390 -1787608 
3983.141 -1789027 -1792822 -1798134 -1804107 -1810211 -1815985 -1821463 
3986.516 -1826544 -1831097 -1835221 -1838884 -1842282 -1845713 -1849541 
3989.891 -1853929 -1858911 -1864123 -1869072 -1873460 -1876759 -1878772 
3993.266 -1879893 -1880124 -1879860 -1879596 -1879531 -1880124 -1881345 
3996.642 -1883786 -1887316 -1892397 -1898632 -1905922 -1913774 -1921361 
4000.017 -1927596 -1931818 
##END=
