
##TITLE=Z357a_1_c
##JCAMP-DX=5.01  $$ Nicolet v. 1
##DATATYPE=INFRARED SPECTRUM
##ORIGIN=UniL
##OWNER=Nicolet
##LONGDATE=2011/09/22
##TIME=09:01:35
##SPECTROMETER/DATA SYSTEM=Nicolet iS5
##DATA PROCESSING=
Ratio against background
%Transmittance->Absorbance
Truncated
ElementMultiply or ElementDivide
##COMMENTS=
Number of sample scans: 32
Collection length: 51.24 sec
Sample gain: 2.0
Background collected on: Jeu Sep 22 08:56:13 2011 (GMT+02:00);
Number of background scans: 32
Background gain: 2.0
Sample spacing:  1.000
Number of scan points: 12415
Resolution points: 8192
Number of FFT points: 65536
Apodization: N-B fort;
Phase correction: Mertz;
Laser frequency: 15798.0 cm-1
Number of rejected sample scans: 0
Number of rejected background scans: 0
Bench serial number: ASB1000141;
##RESOLUTION=4.000
##XUNITS=1/CM
##YUNITS=ABSORBANCE
##FIRSTX=649.893372
##LASTX=4000.122314
##FIRSTY=0.095945
##MAXX=4000.122314
##MINX=649.893372
##MAXY=0.287303
##MINY=-0.003341
##XFACTOR=1.000000
##YFACTOR=1.000000E-009
##NPOINTS=6950
##DELTAX=0.482117
##ZPD=6100
##XYDATA=(X++(Y..Y))
649.893 95944688 95554952 95215704 94952896 94778848 94692024 94682624 
653.268 94742168 94873448 95088360 95401976 95822840 96346144 96954040 
656.643 97625304 98345552 99115824 99952328 100878072 101910576 103059368 
660.018 104324104 105703792 107206704 108851600 110659824 112646920 
662.911 114807832 117118936 119545888 122062480 124661424 127339320 
665.803 130078304 132798496 135309552 137328464 138549616 138789952 
668.696 138090496 136674640 134815520 132711456 130469320 128121880 
671.589 125671536 123133424 120553512 117996168 115534216 113218008 
674.481 111064296 109063272 107192536 105432792 103777672 102231248 
677.374 100800216 99483440 98269272 97135800 96059008 95021016 94012192 
680.749 93029712 92073096 91138400 90218920 89306600 88397888 87498088 
684.124 86619856 85780120 84992984 84264104 83590352 82962120 82369680 
687.498 81806008 81270512 80764888 80290184 79841608 79407808 78971144 
690.873 78515032 78025848 77496856 76929456 76329856 75707576 75073976 
694.248 74442872 73832008 73262080 72755424 72331192 72000944 71766472 
697.623 71619528 71546112 71531232 71564664 71644496 71774880 71962464 
700.998 72211328 72518312 72872072 73256392 73652912 74048616 74437168 
704.373 74818360 75195184 75570648 75944192 76312480 76671912 77021000 
707.747 77362608 77704408 78056184 78428696 78834576 79290632 79819504 
711.122 80454968 81234832 82192320 83343440 84672136 86121904 87593544 
714.497 88969536 90128472 90972944 91455880 91582928 91412488 91035824 
717.872 90569360 90137728 89853888 89827616 90148904 90875512 92023048 
721.247 93542680 95315672 97142056 98776984 99973304 100515472 100288872 
724.621 99299992 97684384 95662656 93499536 91448880 89685296 88301856 
727.996 87307000 86651040 86255656 86044056 85961136 85970544 86051568 
731.371 86189664 86367864 86567032 86770584 86967040 87154656 87338072 
734.746 87524032 87716072 87911936 88105128 88290280 88466576 88639080 
738.121 88817352 89010128 89221096 89448048 89683432 89919424 90152816 
741.496 90384864 90620912 90865712 91120336 91380792 91640456 91894024 
744.870 92140320 92383632 92630576 92885328 93145568 93401248 93638416 
748.245 93844160 94011736 94142880 94246272 94332888 94409976 94480480 
751.620 94542336 94593096 94633712 94669928 94710112 94762696 94831320 
754.995 94913896 95003736 95093976 95181296 95268432 95362352 95471192 
758.370 95601040 95753440 95926296 96116264 96321120 96540600 96775512 
761.744 97025464 97287616 97557640 97832576 98115360 98419488 98769120 
765.119 99201840 99764464 100504816 101468416 102683008 104145080 105803040 
768.494 107550240 109233256 110657936 111644912 112071872 111913688 
771.387 111265448 110327440 109365072 108612368 108220200 108201496 
774.279 108431656 108677552 108667504 108190488 107133040 105519224 
777.172 103478016 101204976 98891800 96672216 94613776 92713056 90923144 
780.547 89179224 87428872 85645064 83826720 81994896 80182376 78428296 
783.922 76767632 75230880 73841744 72615232 71558416 70672456 69954240 
787.297 69399528 69005584 68773464 68707472 68814736 69102464 69577880 
790.671 70247368 71118368 72201464 73511648 75067752 76890696 78997024 
794.046 81393024 84067312 86988488 90101560 93327752 96577640 99753712 
797.421 102763480 105542544 108063832 110356704 112503424 114641184 
800.314 116932176 119516784 122483264 125811264 129352408 132802904 
803.206 135747392 137736176 138336560 137274016 134494832 130199104 
806.099 124791024 118792856 112744976 107046712 101921264 97389728 93313584 
809.474 89466128 85620128 81633920 77470912 73204192 68967256 64917856 
812.849 61185856 57845844 54924708 52406740 50254820 48422928 46868384 
816.224 45554244 44445964 43513864 42731944 42078524 41539496 41106424 
819.598 40774260 40538736 40393224 40329408 40339152 40417004 40562964 
822.973 40781360 41079944 41466696 41947272 42524260 43197128 43961772 
826.348 44808904 45722148 46677308 47639676 48571568 49439556 50223280 
829.723 50927080 51584556 52261716 53043960 54031476 55326472 57008432 
833.098 59123540 61658524 64529612 67559568 70481136 72981336 74709568 
836.473 75362624 74758288 72863288 69821800 65910176 61503356 56975372 
839.847 52639928 48735084 45385960 42627764 40429368 38723128 37426468 
843.222 36456496 35744300 35229888 34863840 34610148 34442392 34344408 
846.597 34308944 34331752 34407456 34527876 34680264 34851992 35034308 
849.972 35225288 35430340 35658824 35921232 36223948 36568404 36952016 
853.347 37371464 37825408 38315940 38848008 39427788 40061636 40755008 
856.721 41515324 42353240 43283328 44325996 45504716 46844324 48372112 
860.096 50118396 52114836 54396960 56993736 59916160 63138328 66582828 
863.471 70112736 73521616 76571472 79017288 80639360 81301640 80965944 
866.846 79708184 77696520 75176240 72430920 69720168 67276336 65271140 
870.221 63802712 62914720 62600240 62817568 63497676 64552644 65882064 
873.596 67362224 68858408 70232296 71342656 72076712 72361680 72176192 
876.970 71555056 70581152 69372816 68051904 66733496 65506248 64416720 
880.345 63473248 62648236 61893752 61152440 60376140 59540340 58646676 
883.720 57723892 56816428 55976512 55247708 54657636 54217408 53923908 
887.095 53767240 53737200 53829760 54046596 54393204 54874024 55489428 
890.470 56233688 57097116 58068824 59139408 60304828 61564552 62921688 
893.844 64379908 65942144 67607696 69369632 71208616 73087608 74949256 
897.219 76707256 78257384 79490208 80299352 80611672 80396352 79673432 
900.594 78507768 77000072 75275248 73454504 71654112 69973664 68484080 
903.969 67235760 66256740 65556148 65131604 64973808 65072060 65416292 
907.344 65999804 66818616 67870064 69151960 70662240 72399056 74361624 
910.719 76550208 78963840 81596688 84433384 87443384 90584712 93805416 
914.093 97052680 100288584 103495840 106686632 109898608 113192472 116638520 
917.468 120296856 124206568 128361776 132699352 137076240 141273968 
920.361 145019296 147990528 149897360 150537632 149849552 147956896 
923.254 145167600 141963968 138892096 136521888 135369872 135784528 
926.146 137931008 141733984 146897632 152894176 159028560 164582560 
929.039 168836560 171229984 171448992 169419184 165299600 159397008 
931.932 152114736 143864368 135027744 125970464 117005528 108404352 
934.824 100409616 93201296 86909968 81616368 77346568 74091960 71819088 
938.199 70482544 70026448 70378144 71444000 73083256 75103320 77278832 
941.574 79341776 81031944 82139432 82516784 82116376 80986264 79262512 
944.949 77131752 74797256 72459624 70272920 68342664 66725880 65433748 
948.324 64447432 63729764 63240460 62938652 62787928 62758528 62822812 
951.698 62956624 63140316 63358604 63602352 63868800 64159580 64477720 
955.073 64825332 65201752 65603852 66027932 66470684 66931164 67409904 
958.448 67907648 68424112 68957352 69504464 70063520 70635032 71222088 
961.823 71828936 72459112 73112944 73787664 74477720 75178128 75886736 
965.198 76605064 77337944 78089936 78864608 79661568 80478224 81311224 
968.573 82159328 83024208 83909880 84820664 85759136 86724784 87715472 
971.947 88728936 89765312 90827640 91921248 93050856 94219144 95425088 
975.322 96665800 97939008 99245312 100589056 101977456 103418224 104917120 
978.697 106477592 108102208 109795552 111566120 113428120 115398016 
981.590 117491688 119720768 122089472 124594984 127226488 129966336 
984.482 132785768 135638784 138463008 141170400 143653488 145804160 
987.375 147517648 148716592 149365152 149471408 149088624 148303280 
990.268 147235040 146015600 144776128 143647072 142733968 142115024 
993.160 141839664 141924608 142361712 143125968 144187200 145515536 
996.053 147085136 148877344 150874800 153060352 155417312 157928000 
998.946 160576240 163348160 166226976 169187888 172195008 175193408 
1001.839 178115696 180892640 183458480 185768176 187803280 189572576 
1004.731 191108784 192464272 193709200 194919968 196180528 197576432 
1007.624 199178896 201043392 203199840 205651056 208376960 211342848 
1010.517 214511696 217846448 221313296 224880272 228507488 232148928 
1013.409 235756624 239283408 242694832 245969824 249093504 252046160 
1016.302 254788432 257249952 259339216 260952624 261996416 262416128 
1019.195 262207024 261425728 260178832 258623328 256950944 255355808 
1022.087 254039504 253177936 252897776 253276848 254329952 256018080 
1024.980 258256368 260937872 263952224 267184464 270528096 273876544 
1027.873 277107936 280095904 282708928 284819712 286329696 287169952 
1030.766 287303040 286717728 285418656 283421216 280751520 277452224 
1033.659 273585152 269223680 264451440 259346304 253970720 248378080 
1036.552 242613648 236724640 230772288 224828144 218970768 213284112 
1039.446 207842128 202708368 197937136 193563776 189603696 186040208 
1042.339 182817696 179830032 176921280 173916736 170631184 166912448 
1045.232 162679648 157930144 152748912 147281040 141720032 136264736 
1048.125 131087960 126336632 122106504 118445616 115364304 112840264 
1051.018 110830472 109278896 108128976 107326656 106821992 106573456 
1053.911 106541056 106681456 106947232 107279528 107609328 107867120 
1056.804 107981352 107889856 107548336 106929928 106032152 104875728 
1059.697 103508456 102000960 100439384 98927168 97566272 96449032 95657328 
1063.072 95247552 95253248 95684584 96528600 97750360 99291032 101075320 
1066.448 103005264 104965592 106842712 108522384 109909016 110938560 
1069.341 111574944 111812520 111668472 111174840 110370800 109295088 
1072.234 107986632 106479448 104803856 102990144 101068504 99074616 97055288 
1075.609 95065344 93170376 91443768 89952760 88758696 87907880 87425072 
1078.984 87314008 87554960 88108416 88911144 89879528 90918936 91918504 
1082.359 92769992 93384408 93699256 93698424 93414152 92928872 92358064 
1085.735 91834408 91500008 91476120 91859424 92715104 94066504 95896048 
1089.110 98142192 100710712 103471288 106270976 108963192 111406664 
1092.003 113489264 115139600 116319816 117025048 117272392 117094896 
1094.896 116533168 115631496 114441856 113020544 111429744 109742144 
1097.789 108031920 106371120 104823048 103425000 102181104 101053160 
1100.682 99966256 98812344 97468760 95831720 93827912 91438984 88704384 
1104.057 85719488 82618328 79543288 76641480 74036400 71816000 70040000 
1107.433 68733592 67896144 67507856 67536544 67942008 68675880 69687728 
1110.808 70921712 72313808 73798112 75299520 76735088 78025576 79092416 
1114.183 79869520 80314304 80406680 80152960 79580728 78735224 77671080 
1117.558 76443168 75107456 73712272 72295688 70887224 69505160 68158608 
1120.934 66851696 65585740 64363808 63192284 62080216 61039092 60078640 
1124.309 59204260 58416344 57710568 57081812 56527432 56051304 55664272 
1127.684 55384700 55233784 55229608 55384700 55700580 56166448 56758312 
1131.059 57440868 58170716 58895304 59563220 60127652 60552504 60821972 
1134.435 60942544 60945024 60875756 60792816 60754744 60807452 60980828 
1137.810 61281960 61695800 62185468 62697196 63170864 63539056 63739776 
1141.185 63723588 63453236 62908976 62088244 61002332 59673256 58131624 
1144.560 56416000 54567572 52630948 50653292 48677152 46742172 44882016 
1147.936 43120860 41475916 39957040 38568004 37309432 36179832 35176708 
1151.311 34296608 33535394 32887578 32346908 31907246 31563372 31311776 
1154.686 31151092 31080686 31100262 31209300 31406656 31691342 32063856 
1158.061 32525640 33079940 33729760 34477400 35322824 36264256 37297336 
1161.437 38415512 39610508 40869156 42172572 43496832 44809164 46072416 
1164.812 47249020 48300224 49192608 49899644 50401004 50685352 50750408 
1168.187 50603404 50260104 49743900 49084712 48312524 47458348 46551812 
1171.562 45618056 44681672 43765812 42891376 42079436 41349036 40714616 
1174.938 40187888 39775948 39482468 39309844 39260772 39338612 39548264 
1178.313 39895396 40384748 41021020 41808728 42753080 43861652 45143692 
1181.688 46609760 48270896 50135428 52209324 54494312 56986972 59675232 
1185.063 62532932 65518848 68565672 71581240 74458880 77072432 79298384 
1188.438 81031304 82185632 82713680 82607744 81900584 80658912 78975120 
1191.814 76962176 74730736 72387240 70028320 67728192 65545784 63523336 
1195.189 61685144 60043600 58600032 57346708 56269216 55347060 54556712 
1198.564 53869404 53254232 52679612 52111512 51518072 50871944 50150564 
1201.939 49341512 48443712 47468548 46438376 45382832 44337040 43332748 
1205.315 42397148 41550032 40801812 40155940 39610656 39161440 38802172 
1208.690 38526148 38326472 38195192 38123632 38104680 38132532 38205068 
1212.065 38324156 38494868 38724140 39018996 39385156 39826136 40343044 
1215.440 40934068 41594444 42316676 43088916 43897580 44727212 45562556 
1218.816 46391956 47206352 48001296 48775084 49528752 50265348 50990272 
1222.191 51712708 52446032 53206212 54012524 54882448 55829392 56860996 
1225.566 57976724 59168872 60421260 61712796 63016416 64299680 65529868 
1228.941 66674152 67704176 68601880 69360072 69984760 70493224 70914840 
1232.317 71289200 71662048 72091136 72640840 73377488 74372672 75692512 
1235.692 77392576 79518976 82101640 85156336 88685816 92680696 97118848 
1239.067 101959984 107149024 112610248 118246680 123956472 129628632 
1241.960 135152112 140427216 145355472 149843328 153807312 157168784 
1244.853 159862272 161839632 163067440 163527632 163215120 162137024 
1247.746 160314816 157785136 154602576 150831184 146536512 141779872 
1250.639 136608416 131059248 125168128 118978320 112552192 105978808 
1253.532 99362344 92825304 86495048 80482208 74885832 69777752 65195708 
1256.908 61149848 57620400 54566632 51928756 49638464 47625548 45817540 
1260.283 44150704 42573196 41044436 39541112 38053860 36585236 35144840 
1263.658 33746412 32403882 31128702 29930232 28815286 27788246 26851244 
1267.033 26003670 25241492 24557814 23944526 23394136 22901230 22464010 
1270.409 22082760 21759568 21495902 21292002 21147540 21062876 21040060 
1273.784 21083814 21199792 21392720 21663742 22007882 22412580 22856872 
1277.159 23314486 23752178 24133424 24424250 24594068 24622330 24503472 
1280.534 24246788 23875664 23420712 22916352 22391264 21865100 21349492 
1283.910 20848818 20365632 19904800 19474328 19086138 18752848 18484292 
1287.285 18286882 18162936 18112704 18136782 18237188 18416946 18678750 
1290.660 19022852 19445462 19938830 20491214 21088020 21709824 22333284 
1294.035 22931512 23473624 23931572 24284244 24522754 24653682 24698258 
1297.411 24690226 24666588 24663956 24714812 24842852 25064468 25388094 
1300.786 25812974 26326694 26902674 27502680 28074708 28561668 28913304 
1304.161 29087120 29059592 28827290 28405468 27823854 27121006 26342536 
1307.536 25532674 24732596 23979120 23297948 22705570 22207622 21800746 
1310.912 21476890 21226306 21042424 20921516 20862758 20865506 20927738 
1314.287 21045242 21213014 21427040 21685824 21990280 22342110 22740938 
1317.662 23183330 23661862 24168172 24694996 25238366 25797818 26373942 
1321.037 26964614 27562730 28154032 28717502 29230454 29670534 30020124 
1324.413 30271502 30428342 30507424 30536892 30556408 30611016 30742298 
1327.788 30985130 31357288 31856648 32461506 33137116 33844728 34548004 
1331.163 35223168 35860052 36459992 37032296 37589200 38143708 38706064 
1334.538 39285616 39889876 40523640 41188492 41880308 42590152 43303648 
1337.914 44004376 44677120 45308608 45889680 46414448 46879972 47286368 
1341.289 47635608 47933320 48187924 48408928 48607252 48791584 48967792 
1344.664 49138768 49305728 49469524 49631632 49792876 49950420 50092520 
1348.039 50197392 50230124 50147852 49910496 49485376 48859508 48043004 
1351.415 47071288 46000284 44896860 43837500 42893312 42123756 41575412 
1354.790 41271344 41211376 41369192 41698856 42139272 42622168 43088076 
1358.165 43487456 43786664 43970424 44039212 44008448 43905716 43773948 
1361.540 43667720 43644968 43764676 44069652 44575516 45266648 46097100 
1364.916 47000060 47890920 48684084 49296300 49650724 49693224 49397012 
1368.291 48770784 47857180 46727156 45467700 44159472 42874332 41665556 
1371.666 40565548 39595556 38770912 38106232 37619152 37325172 37231628 
1375.041 37331456 37603072 38017112 38542948 39159120 39857624 40643584 
1378.417 41533192 42551192 43731000 45110680 46734052 48642572 50858532 
1381.792 53365788 56085984 58879556 61536720 63806744 65449072 66240564 
1385.167 66028236 64759096 62508820 59491168 56018168 52463532 49150380 
1388.542 46292824 43988904 42228076 40937200 40015420 39366580 38906168 
1391.917 38563624 38285580 38027528 37754956 37447596 37098944 36717868 
1395.293 36322428 35932928 35563804 35220508 34901828 34604300 34328200 
1398.668 34080660 33876108 33732160 33665668 33687076 33799952 34001752 
1402.043 34286568 34647144 35075472 35564488 36107524 36697316 37326112 
1405.418 37985832 38668288 39367416 40080676 40810040 41561300 42342428 
1408.794 43160200 44017980 44914388 45844716 46802692 47781536 48774344 
1412.169 49770280 50749924 51685276 52541940 53285732 53896788 54375780 
1415.544 54749900 55064832 55379956 55757240 56247228 56884448 57677872 
1418.919 58607236 59626768 60676476 61699160 62647128 63490124 64217156 
1422.295 64834952 65371656 65874428 66405736 67023872 67767768 68646424 
1425.670 69638520 70705008 71802632 72899144 73974560 75021248 76040264 
1429.045 77038848 78030728 79036728 80090048 81233160 82506848 83945456 
1432.420 85564808 87363024 89324784 91435504 93692920 96107544 98700656 
1435.796 101487704 104462560 107583648 110786896 114010360 117206544 
1438.689 120342280 123379512 126262712 128896936 131149080 132877096 
1441.582 133931848 134190056 133575856 132060320 129671856 126492752 
1444.475 122665032 118371600 113809128 109188176 104695384 100486816 
1447.368 96691384 93390200 90612016 88326904 86461728 84921216 83618032 
1450.743 82503120 81573776 80869136 80443248 80340336 80565800 81081896 
1454.118 81806888 82632112 83446256 84139296 84637752 84930568 85089344 
1457.494 85241768 85519128 86027216 86821984 87926256 89345952 91071576 
1460.869 93076600 95307624 97689280 100109472 102417664 104452696 106048896 
1464.244 107086992 107537384 107476224 107060584 106462816 105839360 
1467.137 105293808 104877456 104608112 104475880 104449160 104466776 
1470.030 104435880 104232096 103704208 102721624 101221832 99255760 96981464 
1473.406 94611544 92339080 90282224 88496352 86999544 85799136 84910544 
1476.781 84350728 84120712 84196328 84523264 85031712 85645312 86302816 
1480.156 86968816 87634824 88318496 89053928 89886248 90862400 92031936 
1483.531 93454088 95193464 97318080 99884432 102916016 106378016 110152976 
1486.906 114050856 117792784 121035248 123426440 124615904 124334968 
1489.800 122468720 119093168 114480800 109017832 103125792 97145456 91292264 
1493.175 85688936 80375064 75361472 70679624 66391184 62594652 59402144 
1496.550 56897068 55105456 53987952 53467524 53451708 53857288 54621788 
1499.925 55695232 57033028 58592828 60324284 62170516 64072356 65951324 
1503.301 67710648 69227848 70323880 70773528 70325824 68770976 66065192 
1506.676 62414512 58235388 53963676 49898824 46158452 42733224 39571236 
1510.051 36631916 33900860 31394794 29142430 27162660 25459060 24015224 
1513.426 22804350 21796706 20965152 20286050 19733578 19280380 18902226 
1516.802 18582358 18319230 18124312 18012950 17993230 18058680 18186190 
1520.177 18343978 18502826 18651736 18804676 18993740 19249760 19584714 
1523.552 19991874 20453216 20952286 21481488 22046610 22662594 23346336 
1526.927 24105682 24936470 25825210 26758024 27727352 28735274 29792948 
1530.302 30916102 32119188 33412532 34798860 36271240 37814092 39402172 
1533.678 41005980 42597460 44157272 45675328 47147368 48566824 49921764 
1537.053 51198056 52371416 53414312 54296776 54987392 55456220 55680772 
1540.428 55658544 55410480 54979724 54418292 53766488 53042540 52238696 
1543.803 51332620 50306084 49164148 47943200 46703284 45504272 44377736 
1547.179 43323560 42311488 41302572 40268912 39213372 38170228 37193944 
1550.554 36331324 35601316 34992932 34475788 34018772 33604552 33237688 
1553.929 32937936 32726344 32609246 32569710 32568172 32552994 32460116 
1557.304 32218028 31760280 31044810 30092098 28998876 27903698 26919206 
1560.680 26094160 25422662 24868256 24386116 23933044 23474604 22991598 
1564.055 22484596 21973026 21488138 21061136 20707180 20421716 20182670 
1567.430 19961138 19729870 19473390 19192580 18903506 18630086 18392644 
1570.805 18203224 18064414 17973268 17925062 17913806 17930586 17961078 
1574.181 17985390 17981696 17932624 17837192 17713960 17597148 17517864 
1577.556 17490750 17511654 17564888 17631998 17699360 17762282 17823002 
1580.931 17887942 17962908 18050216 18148114 18252808 18360706 18469150 
1584.306 18576272 18677230 18763400 18823950 18847340 18827686 18768142 
1587.682 18682174 18589760 18513578 18474024 18484396 18551960 18679858 
1591.057 18868624 19116052 19414484 19747518 20087192 20395912 20635354 
1594.432 20770886 20782564 20669858 20450854 20156916 19823430 19485798 
1597.807 19172564 18904960 18701062 18574646 18535846 18590034 18736348 
1601.183 18967536 19273382 19644266 20072306 20551380 21074248 21627696 
1604.558 22188998 22728404 23207866 23588250 23836354 23927092 23848710 
1607.933 23603538 23205840 22677572 22044380 21336022 20583690 19820550 
1611.308 19081740 18395998 17783200 17250244 16791086 16389940 16026463 
1614.684 15680846 15336601 14984603 14626208 14273313 13946228 13666095 
1618.059 13449877 13305540 13231237 13217779 13250469 13312612 13387953 
1621.434 13466213 13544725 13630022 13733632 13866240 14032767 14230616 
1624.809 14452567 14691906 14945574 15214113 15498164 15795907 16100110 
1628.185 16399162 16682956 16946094 17191260 17427696 17666370 17914460 
1631.560 18172126 18431362 18678682 18899354 19077518 19200788 19260670 
1634.935 19253536 19182746 19059548 18901604 18727180 18550406 18377850 
1638.310 18207818 18032326 17840056 17621094 17370756 17093266 16800212 
1641.686 16508045 16230589 15973592 15733786 15499745 15254915 14982888 
1645.061 14672644 14322314 13940788 13546538 13163062 12814049 12517457 
1648.436 12284187 12117852 12015683 11968780 11959652 11963126 11940784 
1651.811 11845773 11640669 11320967 10934252 10556131 10247437 10025420 
1655.187 9874658 9767526 9679901 9597308 9513815 9430001 9349147 9272810 
1659.044 9199364 9124238 9041480 8946086 8835531 8709555 8569893 8419264 
1662.901 8262406 8104625 7953888 7818281 7704202 7614632 7547736 7496459 
1666.759 7449805 7395473 7322646 7224901 7102085 6959203 6805362 6649489 
1670.616 6498818 6358689 6232992 6123226 6028304 5943143 5857596 5758434 
1674.474 5634689 5482927 5311831 5139829 4987033 4865485 4775627 4708665 
1678.331 4652196 4596538 4538844 4485042 4446008 4432384 4446912 4481560 
1682.188 4515775 4522070 4473391 4355534 4179127 3978915 3795775 3654109 
1686.046 3558589 3498128 3457913 3424549 3389952 3350249 3304639 3253827 
1689.903 3199650 3146079 3099023 3065687 3053240 3064752 3097622 3141707 
1693.761 3181625 3199917 3182860 3129693 3055710 2987778 2948612 2948111 
1697.618 2979137 3022977 3053707 3045265 2981038 2862285 2712589 2566043 
1701.476 2450702 2376202 2336591 2318536 2307210 2290055 2257247 2204626 
1705.333 2133697 2051827 1969040 1895155 1836721 1795163 1768047 1749716 
1709.190 1734414 1717947 1699552 1681689 1668950 1666056 1675336 1696525 
1713.048 1727295 1763423 1801551 1838750 1872459 1898449 1910397 1900679 
1716.905 1862210 1795462 1708932 1619559 1544237 1494927 1475144 1480597 
1720.763 1502940 1533031 1565186 1596379 1627608 1661366 1700250 1744760 
1724.620 1794065 1846237 1899614 1954229 2010015 2066475 2121777 2172390 
1728.478 2214384 2246023 2268738 2286492 2304679 2325598 2346252 2355313 
1732.335 2335192 2266773 2137593 1952731 1736709 1527312 1356204 1236398 
1736.192 1164664 1127556 1109683 1097559 1082544 1060688 1032457 1001337 
1740.050 971781 947772 931235 922868 921872 926786 935519 946178 957800 
1744.389 970386 985861 1006485 1034018 1067863 1105132 1139847 1165328 
1748.247 1175661 1167189 1138751 1091115 1026711 948502 860647 769523 682102 
1752.586 606046 547188 507081 483495 469398 455832 433941 398387 349870 
1756.926 295059 243769 203291 176540 160066 146377 126325 92718 42413 -22563 
1761.748 -96376 -171335 -240320 -298269 -342868 -373591 -390971 -397360 
1765.605 -396896 -394513 -395374 -403021 -416361 -430628 -438605 -434368 
1769.463 -416891 -391832 -369121 -362202 -380510 -425762 -489743 -558214 
1773.320 -616749 -657411 -680305 -691189 -697276 -702965 -708589 -711070 
1777.177 -707133 -694431 -674747 -652647 -633987 -622870 -620091 -623565 
1781.035 -628561 -632234 -633491 -633756 -635708 -641696 -651688 -663929 
1784.892 -675243 -682918 -685631 -683315 -676401 -664921 -647486 -623003 
1788.750 -590941 -553747 -516120 -485672 -469983 -474750 -501227 -545275 
1792.607 -599676 -655625 -706075 -747721 -779209 -801038 -813705 -818467 
1796.465 -816747 -811390 -806065 -804709 -810100 -822535 -840525 -860466 
1800.322 -878885 -893500 -904180 -911983 -918497 -924482 -929309 -931987 
1804.179 -931359 -927028 -919952 -911521 -902329 -892673 -881398 -867245 
1808.037 -850181 -831431 -813440 -799285 -791083 -789363 -792571 -798425 
1811.894 -804577 -809769 -814267 -818169 -821410 -822766 -819823 -810034 
1815.752 -792174 -766012 -734027 -699492 -664855 -632002 -601529 -572940 
1819.609 -545342 -518602 -491960 -464886 -436321 -405040 -370479 -333962 
1823.467 -298633 -268600 -247507 -235452 -228465 -219921 -202236 -171004 
1827.324 -127381 -77294 -30647 2915 17097 12524 -4605 -23590 -34855 -33033 
1832.146 -17196 10337 46323 88211 135473 187943 245692 307725 371956 436627 
1836.968 501209 567161 637900 716916 807033 908922 1021563 1142903 1270525 
1841.307 1403337 1539947 1678563 1816756 1950701 2076829 2193869 2303513 
1845.165 2409219 2514918 2621642 2726359 2822897 2902878 2959153 2987811 
1849.022 2988812 2965258 2921724 2862085 2787514 2697552 2591509 2469729 
1852.879 2335059 2192537 2047033 1902542 1760695 1621355 1484387 1350587 
1856.737 1222542 1103405 995226 897533 806800 718376 627913 533719 437821 
1861.076 344565 258754 183800 120458 67035 22299 -14280 -41614 -57715 -61856 
1865.898 -56158 -45656 -37439 -38201 -50592 -73186 -100682 -126520 -145400 
1870.238 -156596 -161498 -163419 -164711 -166002 -166466 -165837 -164909 
1874.095 -166665 -175111 -193890 -224127 -264726 -311811 -361375 -410601 
1877.953 -458730 -506357 -554442 -603018 -650331 -694265 -733398 -767567 
1881.810 -799550 -832919 -870155 -911686 -955064 -996389 -1031925 -1060120 
1885.667 -1081571 -1099055 -1115250 -1131444 -1147471 -1162078 -1174371 
1889.043 -1184945 -1196312 -1210619 -1228428 -1247657 -1263945 -1271610 
1892.418 -1268075 -1252712 -1229386 -1203482 -1179525 -1160095 -1144993 
1895.793 -1131708 -1118389 -1104806 -1092776 -1084711 -1082299 -1084315 
1899.168 -1087157 -1086794 -1080117 -1067062 -1050667 -1035561 -1025116 
1902.544 -1020422 -1019893 -1019794 -1017612 -1013083 -1007463 -1003893 
1905.919 -1004191 -1008025 -1012521 -1014901 -1013017 -1008422 -1005182 
1909.294 -1007860 -1019595 -1040420 -1066434 -1092049 -1112242 -1124206 
1912.669 -1127742 -1124437 -1115349 -1101237 -1082034 -1058104 -1032553 
1916.045 -1011695 -1001976 -1009215 -1034404 -1072317 -1113135 -1147703 
1919.420 -1169612 -1179261 -1182665 -1187357 -1199285 -1220201 -1246237 
1922.795 -1270685 -1287930 -1295198 -1294636 -1290837 -1287930 -1287368 
1926.170 -1287368 -1284461 -1276070 -1262888 -1248615 -1237844 -1234607 
1929.546 -1239034 -1248384 -1258824 -1267546 -1275046 -1284957 -1301574 
1932.921 -1326283 -1357498 -1389503 -1416024 -1432702 -1439968 -1441982 
1936.296 -1444426 -1450766 -1459782 -1465990 -1463315 -1447860 -1421771 
1939.671 -1392179 -1368959 -1360074 -1368497 -1390692 -1418402 -1443435 
1943.047 -1460343 -1467641 -1468467 -1465462 -1458758 -1446737 -1426559 
1946.422 -1396538 -1359513 -1321856 -1290110 -1268901 -1258263 -1254034 
1949.797 -1250399 -1243990 -1235267 -1229584 -1234408 -1254133 -1288194 
1953.172 -1331040 -1372626 -1404828 -1423554 -1430060 -1429664 -1429697 
1956.548 -1433990 -1444360 -1460112 -1479661 -1503436 -1533879 -1572276 
1959.923 -1617965 -1666555 -1710122 -1740022 -1752167 -1745138 -1723323 
1963.298 -1693257 -1659689 -1624766 -1589806 -1554679 -1523082 -1501686 
1966.673 -1498384 -1517568 -1559268 -1614763 -1671638 -1718208 -1747679 
1970.049 -1760186 -1762463 -1762265 -1764278 -1768139 -1769888 -1763915 
1973.424 -1749626 -1730650 -1713620 -1703455 -1698834 -1690781 -1666819 
1976.799 -1615688 -1535364 -1435707 -1335301 -1253208 -1203944 -1191355 
1980.174 -1209099 -1245179 -1288591 -1330973 -1369851 -1405390 -1438184 
1983.550 -1467080 -1489766 -1504459 -1511658 -1515455 -1520374 -1529917 
1986.925 -1543421 -1555769 -1559268 -1548934 -1525162 -1494058 -1466254 
1990.300 -1451163 -1452682 -1467905 -1487718 -1500860 -1500662 -1485572 
1993.675 -1460574 -1432636 -1407735 -1388017 -1372328 -1358951 -1347027 
1997.051 -1339463 -1340883 -1354096 -1378769 -1409485 -1437227 -1454894 
2000.426 -1459683 -1454795 -1449412 -1454993 -1477746 -1518757 -1572111 
2003.801 -1627671 -1674806 -1706822 -1720485 -1717251 -1700518 -1673354 
2007.176 -1639092 -1603969 -1573068 -1553623 -1551146 -1564881 -1588420 
2010.552 -1612288 -1623841 -1615060 -1586604 -1545699 -1504459 -1474906 
2013.927 -1461796 -1463315 -1471703 -1476194 -1470481 -1452054 -1424017 
2017.302 -1390957 -1355912 -1319115 -1277623 -1230444 -1178435 -1125924 
2020.677 -1079456 -1043660 -1019331 -1003530 -990571 -975364 -957544 -940881 
2024.535 -930235 -930598 -941641 -958734 -974537 -983066 -981050 -970669 
2028.392 -956453 -942005 -927490 -910330 -885134 -848660 -801005 -746001 
2032.250 -688112 -630546 -571815 -506953 -430793 -341312 -242076 -141525 
2036.107 -49631 25977 83306 125165 157547 184231 205778 218872 218739 202231 
2040.929 171734 133948 98750 75121 66969 72967 88079 105876 120823 132688 
2045.750 144156 160066 186518 227624 285311 359819 447473 541615 634549 
2050.090 715522 775631 811713 825158 824394 821473 828976 853775 896039 
2054.430 948137 997651 1033619 1050159 1048200 1035678 1023323 1018474 
2058.287 1025515 1043085 1066634 1092642 1119084 1147222 1178784 1214302 
2062.145 1251119 1283885 1306782 1315556 1309474 1291894 1266903 1239489 
2066.002 1212043 1184931 1157621 1130313 1104368 1082179 1066036 1055474 
2069.859 1047403 1037472 1020932 996422 966135 935552 910781 896073 892420 
2074.199 897201 906465 916459 925026 933527 943754 957269 974570 994761 
2078.539 1015850 1037272 1059293 1082744 1108355 1135528 1161475 1183435 
2082.396 1199350 1209318 1215930 1223373 1234837 1250654 1268698 1284416 
2086.253 1293156 1292193 1281924 1264677 1244141 1222642 1200613 1177555 
2090.111 1152338 1125396 1099286 1077861 1064375 1061220 1067996 1082079 
2093.968 1101611 1124865 1152172 1184532 1221678 1260955 1298108 1327454 
2097.826 1345003 1350420 1347097 1340582 1336860 1339552 1348559 1362187 
2101.683 1378008 1395094 1415703 1444193 1483689 1535824 1598507 1666189 
2105.541 1733150 1794730 1848966 1897218 1941681 1984251 2025961 2066242 
2109.398 2104796 2142055 2180649 2222776 2270437 2322800 2376435 2426212 
2113.255 2467863 2498921 2520717 2537014 2551978 2568710 2588175 2608675 
2117.113 2628176 2645910 2663446 2683782 2710688 2746298 2790182 2839772 
2120.970 2891070 2940038 2985342 3026580 3064652 3101092 3136468 3171078 
2124.828 3205424 3240774 3279066 3322368 3371586 3425351 3480191 3531364 
2128.685 3574758 3608201 3632625 3650200 3664535 3678870 3695044 3714326 
2132.542 3738588 3769570 3809579 3859955 3918628 3980185 4037169 4082454 
2136.400 4111788 4127175 4134267 4141291 4154873 4176316 4200906 4221482 
2140.257 4229211 4220077 4195018 4159757 4121990 4088241 4061049 4039076 
2144.115 4019311 3998644 3975002 3949590 3922908 3893420 3858651 3813925 
2147.972 3753761 3677199 3586418 3485802 3382004 3280468 3182159 3087410 
2151.830 2993850 2899942 2805255 2709521 2611275 2508319 2397724 2277798 
2155.687 2152111 2032585 1934658 1878782 1879680 1940749 2051827 2191838 
2159.544 2335425 2461632 2559611 2627676 2671614 2698185 2711388 2713322 
2163.402 2703687 2682582 2651544 2613809 2572043 2527982 2480726 2428178 
2167.259 2367840 2299849 2226073 2150379 2076496 2007186 1941781 1879680 
2171.117 1818819 1758666 1699685 1643605 1590792 1541410 1494262 1447949 
2174.974 1402606 1360558 1323466 1293190 1267867 1243011 1212142 1170478 
2178.832 1116958 1055806 996422 947274 914932 900422 898397 899360 896073 
2183.171 883522 862307 836943 813107 794618 783564 778950 779016 782834 
2187.511 789572 798701 809190 818186 822535 821307 815796 810419 811912 
2191.850 825955 853343 891756 934058 972046 1001968 1024020 1042553 1064242 
2196.190 1093938 1130811 1170611 1205696 1229354 1238758 1235302 1223772 
2200.047 1209816 1197390 1186691 1176126 1163501 1147322 1129017 1110780 
2203.905 1095101 1082943 1074274 1067066 1061021 1057267 1057998 1066667 
2207.762 1085135 1111677 1142837 1173468 1199217 1217525 1229852 1238292 
2211.620 1246400 1256170 1268698 1283320 1300434 1319777 1342344 1368469 
2215.477 1397154 1425044 1448980 1465204 1472884 1473116 1469426 1464206 
2219.334 1459519 1454100 1445257 1430363 1409221 1383892 1359228 1340383 
2223.192 1329947 1327321 1329016 1329980 1326723 1318447 1307779 1298673 
2227.049 1295483 1299803 1310105 1323865 1337491 1348659 1357334 1363948 
2230.907 1369399 1374385 1378141 1379836 1379969 1379504 1380833 1386351 
2234.764 1397021 1412512 1431494 1452205 1473748 1497454 1525583 1559300 
2238.622 1599439 1643938 1688442 1729191 1763190 1789141 1808671 1824209 
2242.479 1837186 1849165 1860113 1869830 1879480 1891028 1907202 1930232 
2246.336 1960619 1996767 2034715 2070670 2101100 2124840 2142321 2154675 
2250.194 2163466 2169659 2173422 2176286 2180615 2189540 2207090 2235398 
2254.051 2273601 2317703 2361343 2397758 2421614 2431410 2427944 2414983 
2257.909 2396058 2374136 2350116 2324665 2297284 2268505 2239429 2211853 
2261.766 2186776 2165497 2148381 2136228 2130301 2132631 2144352 2166263 
2265.624 2196333 2230403 2263676 2291188 2310175 2321001 2325964 2328596 
2269.481 2332160 2337890 2345652 2353881 2361243 2367173 2372204 2377801 
2273.338 2385230 2394626 2405887 2418115 2430243 2442272 2454334 2466397 
2277.196 2478860 2490357 2499754 2506020 2508652 2507986 2505686 2503387 
2281.053 2502687 2504653 2509819 2518150 2529948 2545212 2563744 2585042 
2284.911 2607742 2630176 2651211 2670813 2689650 2709521 2732361 2758202 
2288.768 2786680 2815059 2840873 2862619 2880129 2895339 2911584 2932065 
2292.625 2958653 2991581 3029717 3070993 3113674 3157027 3201152 3246650 
2296.483 3293288 3340031 3385310 3427188 3464293 3496892 3526554 3555483 
2300.340 3586451 3621231 3660726 3704634 3752157 3802226 3854072 3907160 
2304.198 3961560 4017572 4076267 4138816 4206493 4280573 4361827 4449858 
2308.055 4543632 4641379 4741023 4841326 4941988 5043110 5145529 5249615 
2311.913 5354800 5459976 5563501 5664028 5761255 5856186 5950970 6048126 
2315.770 6150480 6259480 6375703 6498616 6626914 6758749 6892374 7026648 
2319.627 7160221 7292454 7421964 7547062 7664675 7770615 7859745 7927566 
2323.485 7971098 7990538 7990099 7977072 7961447 7953280 7960637 7988378 
2327.342 8037013 8102701 8178393 8257037 8331135 8395685 8448352 8488930 
2331.200 8518664 8540223 8556748 8571313 8587196 8607441 8633702 8667232 
2335.057 8707966 8754821 8806316 8861029 8917540 8975514 9034544 9094225 
2338.915 9153881 9212326 9267665 9318103 9361775 9396886 9421197 9431456 
2342.772 9422483 9387032 9315834 9199973 9032447 8812808 8548265 8257104 
2346.629 7964990 7702010 7499493 7382261 7366927 7460221 7657964 7946294 
2350.487 8302629 8701779 9116862 9524077 9907539 10257920 10572494 10852813 
2354.344 11101766 11322838 11518640 11692132 11846352 11984243 12108039 
2357.719 12218340 12314319 12394465 12457440 12503508 12534781 12554153 
2361.095 12564521 12567011 12560496 12542659 12511147 12465043 12405341 
2364.470 12335556 12259305 12179219 12096489 12009381 11915003 11810397 
2367.845 11693663 11564507 11424402 11275194 11119341 10958513 10793433 
2371.220 10624612 10451986 10275121 10093648 9907606 9716833 9521808 9323959 
2375.078 9125355 8928330 8735484 8548705 8369302 8198010 8035562 7882823 
2378.935 7741573 7613924 7501751 7406426 7328072 7265432 7216546 7179085 
2382.793 7151228 7132028 7121216 7118555 7123742 7135969 7153585 7175245 
2386.650 7199432 7225069 7251483 7278134 7303776 7327331 7347752 7363827 
2390.508 7375588 7383778 7389170 7393349 7397158 7401169 7405516 7410505 
2394.365 7416335 7423649 7432952 7444716 7458435 7473637 7489548 7506033 
2398.222 7524069 7545309 7571439 7604246 7644239 7690610 7742416 7798074 
2402.080 7856641 7918185 7983045 8051831 8125387 8203953 8287667 8376531 
2405.937 8471327 8572124 8679536 8792825 8910404 9030620 9151343 9271625 
2409.795 9392145 9514560 9641177 9773219 9911031 10052886 10195603 10336127 
2413.652 10471231 10598739 10717181 10825601 10922462 11006565 11076408 
2417.027 11131306 11172169 11200796 11220074 11232655 11240305 11244046 
2420.403 11244148 11241360 11236667 11232927 11233334 11241121 11258123 
2423.778 11284783 11319573 11360760 11406271 11455222 11508262 11566957 
2427.153 11633419 11709798 11797765 11898248 12011766 12138568 12278120 
2430.528 12429446 12591057 12760713 12936647 13117844 13303831 13495436 
2433.904 13694168 13900895 14116209 14339471 14569154 14803963 15042775 
2437.279 15285288 15532298 15784808 16043689 16309466 16582290 16861658 
2440.654 17147000 17437872 17733426 18032844 18335268 18639422 18944346 
2444.029 19249448 19554730 19860540 20167084 20474438 20782216 21090178 
2447.405 21398150 21705992 22014470 22324040 22634216 22943704 23250266 
2450.780 23550574 23842478 24124072 24395368 24657680 24912676 25161364 
2454.155 25403834 25639126 25865264 26080260 26282548 26471268 26645870 
2457.530 26805778 26949632 27075546 27180898 27263340 27320534 27351656 
2460.906 27355820 27333660 27286378 27215288 27122768 27012002 26886706 
2464.281 26751612 26611560 26471304 26335354 26208000 26092644 25992764 
2467.656 25912038 25853870 25821308 25817018 25842864 25899414 25987206 
2471.031 26105312 26252278 26426404 26624840 26843948 27079600 27326780 
2474.406 27580594 27836960 28092026 28343036 28588174 28825626 29053570 
2477.782 29270612 29474712 29663796 29835782 29988452 30119550 30227240 
2481.157 30309978 30366866 30398348 30405670 30390602 30355850 30303940 
2484.532 30237116 30157480 30067064 29967402 29860378 29747244 29629350 
2487.907 29506628 29379688 29247680 29110080 28966856 28817376 28661400 
2491.283 28498474 28327298 28146008 27952354 27743952 27518884 27276006 
2494.658 27015140 26736776 26442040 26132126 25808086 25471076 25122252 
2498.033 24762832 24394702 24019600 23639608 23256802 22873392 22491086 
2501.408 22111836 21737238 21368390 21006464 20651928 20305284 19966930 
2504.784 19637402 19317478 19008276 18710954 18426176 18154436 17895642 
2508.159 17649080 17414040 17190086 16977000 16775105 16585113 16407350 
2511.534 16242009 16089210 15948361 15818723 15700014 15591607 15492705 
2514.909 15403643 15323935 15253474 15192734 15142468 15103254 15075946 
2518.285 15060715 15056668 15062499 15076049 15094917 15118074 15144766 
2521.660 15175269 15210544 15251346 15298090 15350709 15408518 15470352 
2525.035 15534976 15600984 15666144 15728563 15785048 15832985 15870100 
2528.410 15895223 15908180 15909968 15901787 15885014 15860099 15827315 
2531.786 15785839 15735779 15677445 15611803 15540299 15465030 15387233 
2535.161 15308318 15229932 15153344 15080097 15012145 14950342 14895371 
2538.536 14846716 14803037 14762791 14724982 14689062 14655303 14624220 
2541.911 14596498 14571621 14548801 14526051 14501898 14475108 14445443 
2545.287 14413005 14378890 14344232 14309884 14276977 14246400 14219044 
2548.662 14195318 14175497 14158654 14143456 14127984 14110424 14089921 
2552.037 14066717 14042007 14017710 13995432 13976030 13959401 13945099 
2555.412 13931892 13919199 13907019 13895182 13883721 13872501 13860835 
2558.788 13847289 13831177 13811577 13787942 13760615 13729357 13693861 
2562.163 13653888 13609030 13559459 13506168 13450731 13395061 13341448 
2565.538 13291294 13245756 13205516 13171121 13142740 13121225 13106643 
2568.913 13098277 13095204 13095716 13098003 13101384 13105892 13112756 
2572.289 13123957 13140964 13164291 13193152 13225704 13259659 13292967 
2575.664 13324639 13354501 13383135 13411704 13440580 13470348 13501075 
2579.039 13533240 13567390 13604688 13645955 13692219 13743994 13801145 
2582.414 13862819 13928196 13995911 14065006 14134659 14204117 14272902 
2585.790 14341355 14409922 14479801 14552296 14628367 14707947 14790764 
2589.165 14875346 14959910 15043358 15125107 15205122 15284361 15363478 
2592.540 15442987 15522614 15601637 15678922 15753301 15824290 15891682 
2595.915 15955957 16017972 16078381 16138315 16198844 16260412 16323812 
2599.291 16389251 16456662 16525323 16594959 16665157 16736295 16809408 
2602.666 16885566 16966214 17052186 17144000 17241176 17343478 17450356 
2606.041 17562094 17679208 17802288 17931622 18066936 18206816 18349128 
2609.416 18491934 18633130 18771462 18906726 19039226 19170106 19300088 
2612.792 19430110 19560520 19691104 19821314 19949758 20075048 20195548 
2616.167 20309624 20416332 20515494 20607104 20692446 20772762 20849132 
2619.542 20922732 20994258 21063850 21131850 21197880 21261970 21323948 
2622.917 21383636 21440826 21495796 21548718 21600220 21650682 21701012 
2626.292 21751102 21801548 21852138 21903012 21954418 22007222 22061844 
2629.668 22119054 22179062 22241310 22304542 22367540 22428734 22486934 
2633.043 22542142 22594320 22644200 22692862 22740868 22788740 22836616 
2636.418 22884360 22931862 22979126 23025766 23071816 23117348 23162674 
2639.793 23208286 23254846 23303228 23354344 23408752 23467188 23529412 
2643.169 23595212 23664276 23736116 23810592 23887742 23967252 24049402 
2646.544 24134404 24222158 24312730 24406164 24502174 24600626 24701308 
2649.919 24803736 24907378 25012450 25118284 25225268 25333122 25441776 
2653.294 25550876 25660850 25771448 25883306 25997304 26114356 26235312 
2656.670 26360950 26490954 26624768 26761514 26900276 27040386 27181494 
2660.045 27323214 27465192 27606898 27747484 27886066 28022220 28156118 
2663.420 28288538 28420818 28554202 28689574 28827324 28967032 29107422 
2666.795 29247928 29387168 29525070 29661276 29796072 29929594 30062164 
2670.171 30194524 30327104 30461288 30597860 30737996 30882090 31030040 
2673.546 31181244 31334676 31489118 31643726 31797786 31951002 32103598 
2676.921 32255784 32408166 32561496 32716878 32875388 33038322 33206142 
2680.296 33379610 33558732 33743192 33932996 34128116 34328920 34535876 
2683.672 34749608 34970164 35197512 35431488 35671668 35917988 36170868 
2687.047 36430480 36697532 36972148 37253976 37542160 37835856 38133796 
2690.422 38435312 38740372 39048756 39361244 39678572 40001072 40329592 
2693.797 40664724 41006672 41355304 41710236 42070568 42435180 42803352 
2697.173 43174584 43548992 43927496 44310804 44699852 45094872 45495368 
2700.548 45900064 46307972 46717452 47127420 47537008 47945496 48352184 
2703.923 48756328 49156988 49553260 49944060 50328372 50704900 51072328 
2707.298 51428728 51772392 52101648 52415412 52713060 52994736 53261048 
2710.674 53512724 53750700 53975908 54188840 54390388 54581396 54762380 
2714.049 54933356 55093608 55241572 55374988 55491236 55588236 55664388 
2717.424 55718776 55751780 55764096 55757540 55733920 55696136 55647472 
2720.799 55591884 55533972 55478132 55428664 55389552 55363884 55354176 
2724.175 55362376 55389708 55436948 55503924 55590344 55695532 55818312 
2727.550 55958648 56116076 56290904 56483316 56692916 56918444 57158112 
2730.925 57409104 57668224 57933028 58201516 58472144 58744304 59016792 
2734.300 59288720 59558508 59824468 60084920 60338676 60584884 60823228 
2737.676 61053316 61275128 61488468 61693472 61890656 62080752 62265228 
2741.051 62445924 62624700 62803744 62985612 63172392 63366884 63571356 
2744.426 63787864 64017640 64261184 64517504 64785176 65062432 65346232 
2747.801 65633720 65921748 66205984 66481648 66743924 66987528 67208264 
2751.177 67403832 67573200 67716920 67836912 67935192 68013344 68072568 
2754.552 68112872 68133840 68134344 68112752 68067288 67996184 67897456 
2757.927 67769824 67612296 67424608 67206904 66959536 66682996 66377400 
2761.302 66043204 65681240 65293088 64881384 64450472 64004472 63548536 
2764.677 63087976 62627456 62171660 61725436 61293060 60879112 60487832 
2768.053 60122248 59784880 59477300 59199892 58952912 58736528 58550736 
2771.428 58395160 58268960 58170568 58097232 58045568 58011940 57992628 
2774.803 57984488 57984792 57990468 57999028 58006904 58010124 58004332 
2778.178 57985092 57947720 57888848 57805644 57696456 57561340 57402108 
2781.554 57221724 57025092 56817940 56605788 56393744 56185984 55984808 
2784.929 55791184 55605404 55425996 55251244 55078824 54905984 54728964 
2788.304 54544764 54349980 54142524 53921396 53686848 53440316 53183780 
2791.679 52919460 52650100 52378144 52106540 51838996 51579408 51332024 
2795.055 51100988 50889488 50699724 50533420 50390956 50272936 50179908 
2798.430 50112484 50071284 50056672 50068236 50105052 50164776 50245708 
2801.805 50345116 50460544 50590076 50731672 50883080 51042812 51208792 
2805.180 51379496 51553364 51728832 51904144 52077556 52246320 52408124 
2808.556 52559816 52698992 52822532 52928068 53012964 53074852 53111320 
2811.931 53120420 53100576 53051524 52973960 52869684 52741040 52591564 
2815.306 52424460 52244080 52054804 51861880 51671616 51490536 51325720 
2818.681 51184336 51072812 50996492 50959272 50963668 51010428 51098792 
2822.057 51226648 51390612 51586496 51809612 52054284 52315088 52586184 
2825.432 52861264 53134236 53398872 53649276 53880168 54087804 54269592 
2828.807 54424528 54552840 54655868 54735540 54794516 54835980 54862936 
2832.182 54879176 54888952 54895644 54902976 54914292 54932156 54959828 
2835.558 54999844 55055204 55128928 55224304 55344160 55491912 55671280 
2838.933 55886476 56143860 56450976 56817296 57253628 57771464 58382728 
2842.308 59100264 59936776 60906632 62025784 63310488 64776980 66437012 
2845.683 68294464 70338248 72538320 74843864 77175480 79434816 81510816 
2849.059 83281136 84637432 85491944 85787632 85509488 84682048 83368568 
2852.434 81653472 79640752 77439864 75148544 72857488 70640600 68550000 
2855.809 66622540 64878040 63320568 61943964 60733632 59670860 58734292 
2859.184 57903156 57159172 56484640 55865260 55288424 54743060 54220448 
2862.560 53713916 53218612 52732476 52255476 51789564 51338660 50907928 
2865.935 50504012 50133944 49805432 49525484 49299972 49132572 49024616 
2869.310 48974620 48978140 49027840 49115132 49228492 49355912 49485416 
2872.685 49605256 49705820 49781056 49828436 49848988 49847316 49830072 
2876.061 49803908 49775188 49748804 49727588 49713508 49707416 49709868 
2879.436 49721496 49743120 49774964 49817996 49872700 49939676 50019492 
2882.811 50112708 50219116 50337672 50467056 50604412 50747056 50892728 
2886.186 51039868 51188136 51338544 51492740 51652956 51821484 52000272 
2889.562 52191240 52396536 52618904 52861860 53130152 53429676 53767916 
2892.937 54153372 54596128 55106960 55696288 56373820 57145412 58011980 
2896.312 58965776 59990336 61058236 62130144 63161164 64101316 64901812 
2899.687 65524824 65945616 66158480 66176468 66031128 65766700 65430468 
2903.063 65072596 64737328 64459040 64265788 64177320 64206900 64364424 
2906.438 64656876 65089456 65666364 66391804 67270424 68307648 69509752 
2909.813 70882040 72427912 74145440 76025024 78045992 80179104 82381696 
2913.188 84600432 86778040 88849016 90748424 92419872 93814296 94899504 
2916.563 95662408 96109080 96261232 96151448 95818624 95297808 94617152 
2919.939 93796000 92842816 91758808 90541200 89187768 87701112 86091848 
2923.314 84378536 82589312 80759976 78926880 77128592 75399592 73765992 
2926.689 72247400 70854496 69589160 68446728 67417368 66487908 65642932 
2930.064 64868108 64150052 63477696 62843644 62242936 61673112 61133328 
2933.440 60622828 60140972 59686412 59257008 58850684 58465208 58098024 
2936.815 57746220 57406800 57076068 56750008 56426188 56103104 55781576 
2940.190 55464956 55158800 54869588 54603412 54365756 54159600 53985624 
2943.565 53841608 53722016 53618876 53520968 53416112 53292024 53138392 
2946.941 52949516 52725964 52475232 52209848 51947204 51705432 51499532 
2950.316 51341196 51235932 51183480 51178672 51213116 51276684 51358052 
2953.691 51446708 51533032 51608324 51666092 51701476 51711628 51695468 
2957.066 51653664 51588024 51501728 51398552 51283248 51160516 51035212 
2960.442 50911876 50794056 50684384 50584564 50495564 50417748 50351032 
2963.817 50295372 50250284 50214872 50188500 50170388 50159940 50157184 
2967.192 50162768 50177268 50201668 50236188 50280488 50334024 50396312 
2970.567 50467576 50548680 50641792 50748508 50870488 51007824 51158540 
2973.943 51318412 51481548 51640640 51787400 51913740 52011512 52073032 
2977.318 52092460 52065116 51989252 51865840 51698712 51495240 51264044 
2980.693 51015572 50760724 50509448 50270112 50049088 49849692 49672012 
2984.068 49512448 49365268 49221552 49071468 48906492 48719296 48505728 
2987.444 48265788 48001964 47718696 47420612 47110876 46789920 46455632 
2990.819 46103732 45729548 45329720 44904316 44456684 43994440 43527600 
2994.194 43065976 42618004 42188528 41777828 41382492 40996516 40613240 
2997.569 40226780 39833616 39432684 39025416 38614828 38204128 37796416 
3000.945 37394684 37000432 36614904 36239220 35873796 35519036 35175056 
3004.320 34841544 34518044 34203856 33898604 33602156 33315246 33038822 
3007.695 32774292 32522746 32284692 32059756 31846772 31643226 31446480 
3011.070 31253948 31063496 30873802 30684830 30497400 30312502 30131482 
3014.446 29955332 29784360 29618636 29457728 29301238 29148630 28999866 
3017.821 28854874 28713858 28577028 28444380 28316298 28192888 28074318 
3021.196 27960764 27852362 27748792 27649764 27555456 27465898 27382112 
3024.571 27305890 27239774 27186858 27150068 27131446 27131514 27149044 
3027.947 27180332 27219558 27259882 27293434 27312348 27310406 27283062 
3031.322 27228130 27146118 27039718 26912932 26770536 26617336 26457464 
3034.697 26294412 26131036 25969022 25810126 25655296 25505160 25360274 
3038.072 25220738 25086548 24957980 24835064 24717934 24606728 24501472 
3041.448 24401642 24306634 24215850 24128204 24043308 23960984 23880810 
3044.823 23803066 23728240 23656718 23589124 23526648 23470022 23419976 
3048.198 23376826 23339658 23306830 23276624 23246910 23216012 23183470 
3051.573 23149360 23114728 23080552 23047638 23016368 22986916 22959422 
3054.948 22934134 22912058 22893860 22880166 22870806 22864904 22860714 
3058.324 22857188 22853416 22849572 22847374 22848700 22855160 22867804 
3061.699 22886908 22911288 22940036 22972314 23007772 23046974 23090756 
3065.074 23139294 23192592 23249602 23308402 23367036 23423614 23476246 
3068.449 23523536 23564532 23598080 23623236 23639748 23647446 23647306 
3071.825 23640938 23630372 23618198 23606372 23596716 23590208 23587236 
3075.200 23587620 23590768 23595736 23601544 23606756 23610534 23612110 
3078.575 23610816 23606862 23600460 23592028 23582338 23572018 23561768 
3081.950 23552638 23545572 23541094 23539696 23541094 23544628 23549280 
3085.326 23554562 23560090 23566700 23576146 23590104 23610290 23637474 
3088.701 23671062 23709274 23749694 23789872 23828092 23863728 23897194 
3092.076 23930102 23964274 24001250 24042222 24087680 24137172 24189648 
3095.451 24244300 24299766 24355448 24411630 24468696 24527908 24590422 
3098.827 24656908 24727194 24800542 24875202 24949276 25021400 25091008 
3102.202 25158274 25224390 25290484 25357428 25425544 25494372 25562790 
3105.577 25629778 25694736 25757384 25818388 25878768 25939368 26001314 
3108.952 26065342 26131702 26200714 26272130 26345810 26421546 26498984 
3112.328 26577600 26657180 26737410 26817866 26898196 26977942 27056360 
3115.703 27132714 27206788 27278018 27347104 27414650 27481464 27548430 
3119.078 27616184 27684442 27752676 27820286 27886420 27950692 28013280 
3122.453 28074672 28135966 28198296 28262862 28330268 28401152 28474980 
3125.829 28551266 28629086 28707486 28785616 28863444 28941248 29019350 
3129.204 29098176 29177688 29256930 29335124 29411030 29484074 29554612 
3132.579 29624028 29694094 29766974 29843980 29925548 30010642 30097958 
3135.954 30185610 30272570 30358444 30443838 30529606 30617024 30706274 
3139.330 30797250 30889276 30981216 31071644 31159992 31245722 31329264 
3142.705 31411108 31492290 31573738 31656594 31741888 31830158 31921904 
3146.080 32016952 32114800 32214460 32314926 32415234 32514568 32612890 
3149.455 32710016 32806772 32903768 33001498 33100572 33200740 33301328 
3152.831 33401546 33500530 33597644 33692808 33786812 33880444 33974988 
3156.206 34071488 34169768 34269536 34369940 34469512 34567736 34664332 
3159.581 34759444 34854004 34948868 35044688 35142108 35241604 35343560 
3162.956 35448312 35556292 35667168 35780204 35894276 36007368 36117604 
3166.332 36223768 36325276 36422588 36516824 36609424 36701500 36793776 
3169.707 36886652 36979616 37072672 37165496 37258088 37350596 37442972 
3173.082 37534976 37626524 37717044 37805924 37893120 37978236 38061020 
3176.457 38141504 38219796 38296180 38371352 38446244 38521368 38597484 
3179.833 38674516 38752144 38829456 38905988 38981552 39056552 39131816 
3183.208 39208292 39286160 39365532 39445348 39524564 39602488 39678500 
3186.583 39753184 39827300 39901392 39976076 40051428 40126868 40202064 
3189.958 40276872 40351696 40427292 40504836 40584828 40667672 40753480 
3193.333 40841308 40930172 41018944 41106244 41190644 41271344 41347616 
3196.709 41419452 41487948 41554480 41620884 41688716 41758896 41831492 
3200.084 41905960 41981252 42056696 42132372 42208536 42285484 42363832 
3203.459 42443144 42522652 42601260 42678020 42752312 42824160 42894084 
3206.834 42962736 43030780 43098612 43166532 43234680 43303536 43372984 
3210.210 43443216 43513680 43583384 43651048 43715976 43777904 43837392 
3213.585 43895968 43955280 44016624 44080760 44147588 44216476 44286548 
3216.960 44357260 44428200 44499412 44570888 44641940 44712300 44781172 
3220.335 44848436 44914568 44980748 45048228 45118140 45191232 45266980 
3223.711 45344944 45424292 45503940 45583904 45663880 45743684 45822844 
3227.086 45901060 45977260 46051232 46122780 46192352 46260204 46327400 
3230.461 46393944 46460060 46526184 46591984 46657976 46724608 46791764 
3233.836 46859156 46926376 46992496 47057180 47121032 47185260 47251420 
3237.212 47321284 47395040 47472392 47551680 47631096 47708972 47784904 
3240.587 47859476 47933396 48008032 48083460 48159084 48234056 48307412 
3243.962 48378664 48448488 48517732 48587540 48658284 48729972 48801964 
3247.337 48873784 48945352 49017124 49090428 49166188 49244528 49325144 
3250.713 49406588 49487308 49566148 49642888 49717780 49792168 49867420 
3254.088 49944732 50024772 50107576 50192708 50278964 50365392 50450272 
3257.463 50531968 50609548 50682524 50751524 50818304 50884756 50952900 
3260.838 51023956 51097636 51172108 51245700 51316060 51382144 51443908 
3264.214 51502216 51558440 51614184 51670608 51728496 51788260 51850792 
3267.589 51916508 51986004 52059360 52135492 52212988 52289860 52364348 
3270.964 52435528 52503872 52570360 52636748 52704676 52774860 52847568 
3274.339 52922044 52997468 53072868 53148240 53223220 53298396 53374856 
3277.715 53453168 53534384 53619660 53709344 53803656 53902564 54004948 
3281.090 54110360 54218008 54327976 54440828 54557840 54679660 54806584 
3284.465 54938320 55073744 55211320 55350148 55489692 55630264 55773140 
3287.840 55919228 56069776 56225580 56387100 56554528 56728292 56908736 
3291.216 57096020 57290112 57490568 57696756 57908456 58125260 58347592 
3294.591 58575840 58810392 59051068 59297304 59548432 59803552 60062736 
3297.966 60326608 60596276 60873276 61158428 61451708 61752480 62059572 
3301.341 62371976 62689312 63011976 63340472 63675472 64017796 64367340 
3304.717 64723984 65087728 65458440 65836140 66220880 66612460 67009992 
3308.092 67412992 67820912 68234008 68653416 69080168 69515816 69960936 
3311.467 70415752 70879424 71351128 71829840 72314752 72805688 73302088 
3314.842 73803096 74308424 74817296 75329944 75847704 76372288 76905216 
3318.218 77447192 77997376 78553144 79111256 79668176 80221824 80771632 
3321.593 81318424 81863176 82406896 82949560 83490152 84027464 84561296 
3324.968 85091760 85620248 86148000 86675024 87200176 87720784 88233312 
3328.343 88734296 89221824 89694472 90152040 90594872 91022424 91434080 
3331.719 91828848 92205456 92562296 92898384 93211968 93500728 93762568 
3335.094 93995360 94198072 94371096 94516392 94636312 94733152 94807288 
3338.469 94857864 94882144 94877240 94840720 94771672 94670632 94538312 
3341.844 94375912 94183576 93960680 93705624 93416656 93092160 92731184 
3345.219 92332776 91896600 91422744 90912112 90366176 89787888 89180896 
3348.595 88548760 87894528 87220512 86528048 85817944 85091112 84348760 
3351.970 83593120 82826096 82049608 81265240 80474312 79678136 78879072 
3355.345 78080576 77286784 76502112 75730768 74975048 74235968 73513840 
3358.720 72807728 72117040 71441624 70781288 70135704 69504496 68886904 
3362.096 68282136 67690240 67111720 66548036 66000656 65470920 64958952 
3365.471 64464456 63986196 63523256 63074796 62641120 62222172 61818028 
3368.846 61428388 61051944 60687180 60332356 59985772 59646340 59313028 
3372.221 58984260 58658512 58333648 58007396 57678364 57345652 57009148 
3375.597 56669168 56325724 55978512 55626232 55267876 54902148 54528428 
3378.972 54147140 53758992 53365232 52966136 52561836 52151448 51734248 
3382.347 51309240 50876412 50435796 49988188 49534360 49075252 48611776 
3385.722 48144944 47675836 47205872 46736600 46269716 45806900 45349324 
3389.098 44898032 44453672 44016256 43585548 43160968 42742000 42328000 
3392.473 41919316 41516308 41119760 40730372 40347768 39970916 39598128 
3395.848 39227332 38856780 38486140 38116184 37748852 37386056 37029732 
3399.223 36680048 36336300 35996924 35659836 35324008 34988692 34653852 
3402.599 34320492 33988712 33658792 33330734 33004570 32680508 32359652 
3405.974 32042846 31730660 31423468 31120694 30821010 30523952 30229016 
3409.349 29936480 29647476 29363132 29083896 28809798 28540226 28274390 
3412.724 28011264 27751052 27494242 27241466 26993842 26751506 26514130 
3416.100 26281354 26052220 25826512 25604576 25386724 25173758 24966508 
3419.475 24765076 24569490 24379350 24193780 24011722 23832082 23653568 
3422.850 23474672 23294978 23113784 22931616 22750086 22570410 22394228 
3426.225 22222546 22055500 21892280 21731734 21572780 21414684 21256960 
3429.601 21099464 20942342 20785622 20629134 20472840 20317298 20163406 
3432.976 20012658 19866610 19726540 19592582 19464174 19339512 19216302 
3436.351 19092612 18967294 18839764 18710816 18581702 18453178 18326004 
3439.726 18200216 18075086 17949854 17824176 17698256 17572996 17449634 
3443.102 17329444 17212598 17098538 16985440 16870374 16751206 16626423 
3446.477 16496377 16363308 16230693 16102208 15980776 15867522 15760859 
3449.852 15658380 15556577 15452772 15345628 15235800 15124867 15014957 
3453.227 14907784 14803655 14701434 14599342 14495183 14387624 14276360 
3456.603 14162043 14046730 13932029 13819650 13710309 13604243 13500665 
3459.978 13398889 13298433 13198856 13100564 13004515 12911251 12821352 
3463.353 12734815 12650342 12566431 12480934 12391806 12298469 12200858 
3466.728 12100714 12000456 11903084 11810566 11723584 11641656 11562976 
3470.104 11484684 11405013 11322396 11236872 11149324 11061181 10973975 
3473.479 10888553 10804778 10721970 10639314 10556131 10472012 10387843 
3476.854 10304367 10222842 10144385 10069265 9996972 9926725 9857338 9787655 
3480.711 9717070 9646123 9575493 9506669 9440836 9378940 9321285 9267868 
3484.569 9218046 9171174 9126742 9083906 9041818 8999295 8955219 8908273 
3488.426 8858120 8804355 8748230 8691233 8635392 8582499 8534106 8490518 
3492.284 8451798 8417508 8387104 8360013 8336471 8316172 8298879 8284222 
3496.141 8271321 8259367 8248155 8237687 8228704 8222458 8220195 8222188 
3499.999 8228907 8239713 8253423 8268958 8285776 8303676 8323737 8347313 
3503.856 8376396 8412677 8457306 8510419 8571482 8638501 8708878 8779841 
3507.713 8848854 8914632 8977171 9038231 9100180 9166435 9239301 9319965 
3511.571 9408194 9502402 9600323 9699858 9799382 9898284 9996701 10094970 
3515.428 10193364 10291101 10387537 10480837 10569846 10653508 10731615 
3518.803 10804031 10871226 10933267 10989505 11038749 11078618 11106457 
3522.179 11119646 11115805 11093846 11053670 10996234 10923107 10836064 
3525.554 10736472 10625019 10502459 10369347 10226947 10076861 9921301 
3528.929 9762138 9600559 9436739 9270170 9100350 8927315 8751982 8575909 
3532.787 8401292 8229244 8059662 7891089 7721099 7547534 7369152 7186564 
3536.644 7001965 6818623 6639463 6466867 6302207 6146078 5998638 5860484 
3540.501 5731977 5613509 5504571 5403443 5307370 5213128 5117231 5016897 
3544.359 4911225 4799849 4683712 4564157 4442527 4320260 4198531 4078909 
3548.216 3962563 3850795 3744103 3642314 3544492 3449296 3355190 3261973 
3552.074 3170511 3082238 2999555 2924193 2856482 2795851 2739996 2685950 
3555.931 2630909 2572876 2511285 2446737 2380866 2315305 2251652 2190972 
3559.789 2133064 2078027 2025528 1975531 1928302 1884838 1845372 1810368 
3563.646 1778727 1748419 1715918 1676800 1626244 1560630 1477904 1379205 
3567.503 1268465 1152405 1037903 931302 836511 755018 685487 625324 571241 
3571.843 519852 469066 418021 367081 317838 271850 230408 193645 160829 
3576.183 130136 99579 67466 32704 -4771 -43999 -83390 -120988 -154973 
3580.522 -184384 -208859 -228962 -245884 -260785 -275091 -289064 -302607 
3584.380 -315321 -327174 -339325 -353859 -374518 -405139 -448072 -503279 
3588.237 -567612 -634814 -698400 -752583 -794126 -822965 -841319 -852662 
3592.094 -861359 -870750 -883580 -901237 -924449 -952651 -984885 -1019794 
3595.952 -1054964 -1087653 -1116076 -1138516 -1155237 -1168158 -1180517 
3599.327 -1195684 -1216732 -1244518 -1277986 -1314556 -1350429 -1382072 
3602.702 -1407272 -1424446 -1433098 -1433726 -1427121 -1415000 -1399973 
3606.078 -1385837 -1377382 -1379199 -1394887 -1425205 -1468136 -1518459 
3609.453 -1570460 -1618890 -1660778 -1695996 -1725996 -1752860 -1778137 
3612.828 -1801863 -1822320 -1837234 -1844559 -1843602 -1834759 -1820572 
3616.203 -1804833 -1791601 -1785562 -1791403 -1811795 -1847858 -1897576 
3619.579 -1956458 -2017609 -2074364 -2121617 -2156170 -2177666 -2186930 
3622.954 -2185381 -2174238 -2154060 -2124485 -2085378 -2037759 -1984891 
3626.329 -1932115 -1887778 -1861814 -1863035 -1897576 -1963715 -2052006 
3629.704 -2147730 -2236478 -2309454 -2363930 -2402024 -2428647 -2449438 
3633.080 -2467987 -2486470 -2504523 -2520402 -2532030 -2538355 -2539442 
3636.455 -2537564 -2535686 -2535818 -2539540 -2546952 -2556834 -2567935 
3639.830 -2579331 -2590991 -2604034 -2619053 -2635684 -2651295 -2662623 
3643.205 -2664698 -2653633 -2628044 -2588521 -2538520 -2483076 -2427659 
3646.581 -2377573 -2337731 -2312024 -2304510 -2319077 -2357998 -2420773 
3649.956 -2502744 -2594285 -2682744 -2756567 -2806839 -2830081 -2828402 
3653.331 -2807695 -2776485 -2744187 -2719788 -2709647 -2716693 -2739248 
3656.706 -2771448 -2805457 -2833373 -2850292 -2855230 -2850193 -2839397 
3660.082 -2828533 -2822114 -2821917 -2826953 -2833373 -2836467 -2831430 
3663.457 -2816156 -2790313 -2755348 -2712907 -2663183 -2605318 -2536543 
3666.832 -2454973 -2359514 -2250850 -2129068 -1991553 -1831955 -1636847 
3670.207 -1389140 -1073705 -679643 -201342 361808 1008345 1732052 2518084 
3674.065 3326208 4083859 4690946 5035065 5040528 4696440 4055798 3206159 
3677.922 2240761 1246500 292804 -564634 -1284362 -1847990 -2258761 -2539574 
3681.780 -2722093 -2839232 -2916813 -2968285 -2998823 -3008958 -2998132 
3685.155 -2969601 -2930109 -2887586 -2851214 -2827875 -2821390 -2831924 
3688.530 -2857501 -2894136 -2937613 -2985133 -3033833 -3081179 -3124802 
3691.905 -3161973 -3190359 -3209041 -3217626 -3217593 -3210850 -3199635 
3695.281 -3186347 -3172762 -3159802 -3147434 -3134999 -3120920 -3104570 
3698.656 -3086311 -3067920 -3052423 -3044000 -3045711 -3059004 -3082824 
3702.031 -3113057 -3144703 -3172499 -3192563 -3202167 -3201049 -3189471 
3705.406 -3168091 -3138289 -3101444 -3059464 -3015308 -2971872 -2931920 
3708.781 -2898119 -2872149 -2855493 -2849469 -2855921 -2876132 -2910823 
3712.157 -2958445 -3014716 -3073217 -3127039 -3170986 -3201970 -3220059 
3715.532 -3227361 -3227130 -3221967 -3213843 -3202924 -3188846 -3170558 
3718.907 -3147894 -3122038 -3094700 -3067953 -3043145 -3020869 -3000303 
3722.282 -2980263 -2959893 -2939259 -2919841 -2904010 -2894531 -2893609 
3725.658 -2901937 -2917735 -2936856 -2953936 -2962657 -2958774 -2940674 
3729.033 -2909605 -2870503 -2830344 -2795942 -2773358 -2765028 -2768979 
3732.408 -2779712 -2791564 -2800782 -2808321 -2820172 -2843215 -2883011 
3735.783 -2940246 -3009089 -3079534 -3141973 -3189471 -3220059 -3235320 
3739.159 -3237161 -3226933 -3204108 -3167104 -3115459 -3052193 -2984870 
3742.534 -2925995 -2890515 -2891174 -2931755 -3002310 -3079731 -3139473 
3745.909 -3167104 -3159506 -3124045 -3072526 -3017414 -2968976 -2934486 
3749.284 -2917570 -2919314 -2939061 -2974801 -3025048 -3085752 -3150986 
3752.660 -3212791 -3262846 -3294547 -3305859 -3298658 -3278270 -3251138 
3756.035 -3223480 -3200325 -3184011 -3175788 -3175393 -3182169 -3195688 
3759.410 -3215126 -3238411 -3262090 -3282084 -3294251 -3295895 -3286918 
3762.785 -3269653 -3248212 -3226834 -3209107 -3196773 -3188912 -3183156 
3766.161 -3176479 -3166874 -3154375 -3141217 -3131052 -3128223 -3135756 
3769.536 -3154835 -3183781 -3218612 -3254493 -3286589 -3311942 -3329139 
3772.911 -3338708 -3341371 -3338477 -3331244 -3319932 -3304577 -3286096 
3776.286 -3265181 -3244397 -3227295 -3216507 -3215060 -3223282 -3239628 
3779.662 -3259788 -3279190 -3293528 -3299743 -3297901 -3289516 -3276987 
3783.037 -3263931 -3252849 -3245910 -3244561 -3248935 -3258341 -3271396 
3786.412 -3285833 -3298888 -3308490 -3312797 -3311416 -3305201 -3296191 
3789.787 -3286918 -3279190 -3274323 -3271133 -3267779 -3261629 -3250514 
3793.163 -3233708 -3212495 -3189767 -3169012 -3153914 -3146085 -3144802 
3796.538 -3146085 -3144506 -3134473 -3112991 -3079830 -3039690 -3000665 
3799.913 -2972069 -2963908 -2981086 -3021231 -3073513 -3122466 -3154736 
3803.288 -3162697 -3146644 -3113452 -3074335 -3041269 -3024423 -3030082 
3806.664 -3057687 -3100260 -3146184 -3185327 -3210686 -3220520 -3216573 
3810.039 -3202167 -3179965 -3151381 -3116347 -3074039 -3024258 -2968844 
3813.414 -2911382 -2858126 -2816287 -2792683 -2790543 -2808057 -2837026 
3816.789 -2866553 -2886006 -2889232 -2876428 -2852629 -2826229 -2807366 
3820.165 -2805588 -2825472 -2865302 -2916846 -2968778 -3011064 -3038440 
3823.540 -3050910 -3052390 -3048738 -3044559 -3043638 -3047159 -3053838 
3826.915 -3061372 -3066834 -3068282 -3064366 -3055516 -3041598 -3023633 
3830.290 -3002475 -2978651 -2953311 -2927641 -2902595 -2879094 -2857501 
3833.666 -2837685 -2819118 -2801802 -2785375 -2770362 -2757818 -2748764 
3837.041 -2744351 -2745668 -2752879 -2765752 -2783992 -2806477 -2832451 
3840.416 -2860628 -2889956 -2919314 -2948210 -2976545 -3004318 -3032089 
3843.791 -3059958 -3086739 -3111544 -3132104 -3146546 -3153289 -3151381 
3847.167 -3140131 -3119110 -3087232 -3042915 -2985232 -2913818 -2830706 
3850.542 -2741750 -2656564 -2588060 -2551564 -2559700 -2617307 -2716101 
3853.917 -2836368 -2954068 -3050285 -3117729 -3157664 -3176610 -3181347 
3857.292 -3177137 -3166742 -3150822 -3129078 -3101214 -3067689 -3030378 
3860.667 -2991550 -2954430 -2921849 -2896341 -2879983 -2874124 -2878732 
3864.043 -2892786 -2912732 -2933104 -2947585 -2950843 -2940345 -2917274 
3867.418 -2887125 -2857238 -2836302 -2831529 -2844400 -2871030 -2901871 
3870.793 -2926621 -2937942 -2934783 -2921881 -2907334 -2900225 -2906775 
3874.168 -2928431 -2961473 -2997671 -3027549 -3044000 -3043441 -3027187 
3877.544 -2999777 -2967923 -2939357 -2920466 -2915464 -2924416 -2944360 
3880.919 -2968022 -2987931 -2997802 -2994249 -2978058 -2953508 -2927740 
3884.294 -2908717 -2902924 -2912896 -2936033 -2964764 -2989247 -3001883 
3887.669 -2999481 -2983126 -2958248 -2931294 -2909243 -2896012 -2893346 
3891.045 -2899073 -2908782 -2917932 -2923066 -2923165 -2918755 -2911876 
3894.420 -2903220 -2893873 -2883570 -2871852 -2858225 -2842524 -2825307 
3897.795 -2807004 -2788733 -2771251 -2755348 -2741849 -2731741 -2725748 
3901.170 -2724925 -2730029 -2741257 -2758575 -2781424 -2808749 -2838672 
3904.546 -2869647 -2899534 -2926687 -2949494 -2966771 -2977631 -2982007 
3907.921 -2980164 -2972596 -2960814 -2946301 -2930669 -2915727 -2902364 
3911.296 -2891174 -2881925 -2873301 -2864019 -2852399 -2837816 -2820666 
3914.671 -2803021 -2787185 -2776123 -2772271 -2775926 -2785901 -2799268 
3918.047 -2812765 -2823003 -2828073 -2827579 -2821719 -2811942 -2798905 
3921.422 -2784321 -2769637 -2756468 -2746920 -2742903 -2745372 -2753966 
3924.797 -2766806 -2781029 -2792650 -2799432 -2800189 -2795580 -2787547 
3928.172 -2778230 -2769176 -2761406 -2754887 -2749290 -2745010 -2743199 
3931.548 -2745306 -2753044 -2766543 -2784617 -2804765 -2823497 -2837948 
3934.923 -2846540 -2849371 -2847461 -2843050 -2837751 -2832451 -2827513 
3938.298 -2822213 -2816189 -2809341 -2802527 -2796897 -2794132 -2795580 
3941.673 -2801243 -2810592 -2821752 -2832451 -2840417 -2844235 -2843314 
3945.049 -2838475 -2831068 -2823563 -2817439 -2814279 -2814279 -2816781 
3948.424 -2820534 -2824287 -2826986 -2828402 -2829093 -2829521 -2830146 
3951.799 -2830805 -2830640 -2828764 -2824320 -2817275 -2808485 -2799432 
3955.174 -2791235 -2785342 -2781852 -2779844 -2778428 -2776485 -2773292 
3958.550 -2768880 -2763843 -2758904 -2754459 -2750969 -2747940 -2744812 
3961.925 -2741619 -2737766 -2733321 -2728481 -2723443 -2717846 -2711919 
3965.300 -2705695 -2699209 -2692590 -2686234 -2680077 -2674314 -2668254 
3968.675 -2661964 -2655312 -2648363 -2641481 -2635190 -2630151 -2626825 
3972.051 -2625442 -2625837 -2627583 -2630053 -2632259 -2632852 -2630876 
3975.426 -2625639 -2617241 -2606274 -2594614 -2584009 -2576070 -2572052 
3978.801 -2571788 -2574325 -2577882 -2581077 -2582460 -2582098 -2580023 
3982.176 -2577520 -2575675 -2575148 -2576993 -2581341 -2588126 -2596953 
3985.552 -2606998 -2617241 -2626035 -2631963 -2633873 -2631699 -2626496 
3988.927 -2619876 -2614112 -2610852 -2610819 -2613487 -2617307 -2620864 
3992.302 -2622544 -2622181 -2620337 -2617867 -2616055 -2615562 -2616385 
3995.677 -2617900 -2619711 -2621358 -2623202 -2625639 -2629130 -2634071 
3999.052 -2639900 -2645762 -2650636 -2653633 
##END=
