
##TITLE=Z357a_3_d
##JCAMP-DX=5.01  $$ Nicolet v. 1
##DATATYPE=INFRARED SPECTRUM
##ORIGIN=UniL
##OWNER=Nicolet
##LONGDATE=2011/09/22
##TIME=09:40:07
##SPECTROMETER/DATA SYSTEM=Nicolet iS5
##DATA PROCESSING=
Ratio against background
%Transmittance->Absorbance
Truncated
ElementMultiply or ElementDivide
##COMMENTS=
Number of sample scans: 32
Collection length: 51.18 sec
Sample gain: 2.0
Background collected on: Jeu Sep 22 09:32:15 2011 (GMT+02:00);
Number of background scans: 32
Background gain: 2.0
Sample spacing:  1.000
Number of scan points: 12415
Resolution points: 8192
Number of FFT points: 65536
Apodization: N-B fort;
Phase correction: Mertz;
Laser frequency: 15798.0 cm-1
Number of rejected sample scans: 0
Number of rejected background scans: 0
Bench serial number: ASB1000141;
##RESOLUTION=4.000
##XUNITS=1/CM
##YUNITS=ABSORBANCE
##FIRSTX=649.893372
##LASTX=4000.122314
##FIRSTY=0.090043
##MAXX=4000.122314
##MINX=649.893372
##MAXY=0.280526
##MINY=-0.002526
##XFACTOR=1.000000
##YFACTOR=1.000000E-009
##NPOINTS=6950
##DELTAX=0.482117
##ZPD=6100
##XYDATA=(X++(Y..Y))
649.893 90042728 89689496 89332040 89004352 88731824 88527184 88397328 
653.268 88350664 88403208 88578008 88894152 89356696 89949832 90643120 
656.643 91402584 92208120 93062520 93989152 95019328 96172624 97450760 
660.018 98838512 100317808 101883888 103555432 105365888 107350800 109527616 
663.393 111888352 114405072 117051592 119817200 122697640 125678208 
666.285 128680976 131500032 133810776 135242672 135560272 134803888 
669.178 133242992 131209912 128945440 126575904 124136088 121619096 
672.071 119026872 116390760 113767152 111227312 108827248 106593784 
674.963 104527432 102612040 100831304 99175320 97643144 96237088 94954296 
678.338 93784240 92708504 91704992 90754384 89841016 88952744 88078584 
681.713 87207144 86326664 85429088 84515128 83596664 82694160 81833488 
685.088 81036376 80313664 79664680 79078864 78540208 78033936 77549376 
688.463 77080824 76624792 76177216 75730536 75273952 74796000 74287000 
691.838 73742352 73163176 72555824 71930792 71299512 70675608 70075040 
695.212 69513600 69008888 68576848 68228552 67969560 67797864 67705192 
698.587 67678512 67703832 67769320 67866888 67993272 68148568 68334600 
701.962 68552832 68803272 69084672 69394432 69729544 70086096 70458848 
705.337 70840376 71221304 71593232 71949520 72289704 72619424 72950336 
708.712 73298280 73678944 74109728 74610016 75202952 75919880 76795944 
712.086 77862536 79136544 80604696 82212896 83860032 85419848 86753472 
715.461 87739032 88305992 88442528 88202424 87687200 87037600 86409456 
718.836 85945592 85778304 86006856 86686072 87819048 89341112 91121232 
722.211 92950664 94582472 95770912 96301648 96060168 95050824 93405720 
725.586 91344440 89133216 87031160 85219424 83798064 82779704 82114816 
728.961 81722368 81519816 81446296 81460488 81538520 81664704 81822568 
732.335 81994496 82164936 82324896 82474192 82619568 82770040 82931552 
735.710 83103808 83282712 83464328 83648600 83841064 84049944 84281360 
739.085 84535136 84803672 85073744 85332208 85571992 85793440 86003904 
742.460 86212328 86425904 86647480 86876128 87110120 87350592 87600568 
745.835 87863576 88139424 88421120 88694392 88943264 89155104 89325528 
749.209 89460016 89571176 89672800 89772720 89871456 89963400 90041792 
752.584 90103392 90151840 90195712 90244856 90305480 90378664 90460104 
755.959 90545808 90634184 90729472 90838752 90968984 91123488 91300400 
759.334 91494528 91699960 91914160 92137856 92374288 92625328 92889472 
762.709 93162368 93440736 93726960 94033744 94384688 94814296 95363216 
766.083 96070712 96972184 98088200 99416704 100919288 102516208 104092064 
769.458 105500456 106608984 107337312 107692632 107786136 107815688 
772.351 108021168 108586792 109583432 110910024 112312808 113418184 
775.244 113834112 113285528 111667024 109091176 105827984 102246936 98700912 
778.619 95437792 92593624 90176392 88111576 86282328 84580904 82933400 
781.993 81303712 79690392 78112472 76597880 75174072 73866640 72699288 
785.368 71691120 70857816 70209080 69748144 69473896 69383664 69477944 
788.743 69761880 70246824 70946016 71873704 73042768 74464064 76151312 
792.118 78122544 80400224 83009608 85968968 89279208 92910984 96800184 
795.493 100842968 104892144 108782256 112330144 115356960 117727040 
798.385 119362056 120274704 120569952 120449080 120174096 120001312 
801.278 120153992 120748216 121759640 123004488 124166296 124865008 
804.171 124704392 123401128 120848424 117149648 112593808 107586072 
807.063 102565888 97869808 93694072 90064624 86866488 83899424 80951368 
810.438 77877208 74617096 71208072 67748136 64364768 61170596 58238040 
813.813 55601488 53260376 51195112 49378896 47786420 46397412 45192592 
817.188 44154924 43268392 42518596 41894796 41390436 41001320 40723712 
820.563 40552596 40481524 40503600 40614440 40814188 41108100 41506136 
823.938 42020264 42660476 43432892 44336636 45361096 46482812 47664744 
827.312 48857432 49997332 51019488 51867332 52503052 52923240 53162472 
830.687 53296784 53427392 53674472 54161552 54987392 56217660 57861136 
834.062 59858348 62065464 64257800 66169248 67498176 67981064 67453096 
837.437 65873004 63348828 60103412 56446676 52692072 49105040 45887432 
840.812 43143332 40898500 39120616 37746936 36704096 35921916 35344208 
844.186 34924484 34624892 34417964 34282660 34206152 34182708 34210384 
847.561 34287576 34410112 34570176 34758296 34966716 35191872 35435656 
850.936 35703648 36002936 36338028 36710696 37119696 37564016 38043984 
854.311 38563116 39126812 39741312 40412460 41145764 41948476 42831840 
857.686 43811440 44908504 46148020 47554600 49155020 50976596 53047408 
861.060 55397348 58050568 61014152 64260832 67714792 71243672 74648144 
864.435 77697432 80152328 81795168 82486576 82179192 80934320 78904224 
867.810 76318288 73448544 70549504 67855304 65546356 63732216 62470944 
871.185 61768484 61594108 61887524 62567980 63542128 64695096 65902576 
874.560 67037172 67968280 68589696 68829944 68662184 68110544 67243416 
877.935 66163272 64978348 63793188 62691412 61720356 60894700 60198096 
881.309 59596396 59046092 58509828 57966880 57415000 56870624 56360088 
884.684 55913312 55552912 55289704 55123324 55046628 55052044 55138144 
888.059 55312472 55589968 55989444 56525548 57205284 58025424 58974392 
891.434 60035456 61191460 62428516 63736320 65106780 66533432 68008272 
894.809 69520560 71055624 72590056 74089016 75503504 76763600 77787224 
898.183 78489504 78790952 78640936 78026128 76976888 75560872 73875600 
901.558 72037160 70156000 68335568 66662288 65196284 63978284 63029364 
904.933 62353960 61946144 61793464 61882712 62201412 62740648 63496260 
908.308 64466148 65650136 67048384 68660632 70485888 72523088 74768520 
911.683 77214784 79845704 82632752 85538056 88514424 91514080 94501976 
915.058 97462296 100406856 103371848 106417088 109613072 113023592 116696040 
918.432 120639496 124811960 129101080 133322672 137238320 140554512 
921.325 142993072 144341824 144502960 143543680 141703136 139389824 
924.218 137088608 135323840 134588960 135235072 137457216 141238416 
927.110 146358528 152383200 158708656 164679728 169596384 172852448 
930.003 174031248 172907200 169484080 163950080 156644512 147989408 
932.896 138438624 128475112 118538120 109011912 100225728 92405272 85693176 
936.271 80157024 75796376 72571176 70418904 69272656 69058568 69688776 
939.646 71054136 72993136 75287424 77684592 79889152 81620360 82660328 
943.020 82868400 82218304 80789432 78754088 76331240 73746752 71213376 
946.395 68885504 66861168 65185620 63858324 62851108 62120624 61623128 
949.770 61316604 61163504 61133712 61198596 61332556 61515228 61730288 
953.145 61967924 62225344 62504040 62807760 63139476 63500016 63887880 
956.520 64300216 64733944 65187276 65659232 66148952 66655024 67175184 
959.894 67707168 68249520 68803512 69372392 69960464 70571216 71205808 
963.269 71862672 72537808 73227760 73930088 74645192 75375152 76121624 
966.644 76885632 77666048 78460928 79269312 80092312 80933608 81798168 
970.019 82689632 83608832 84553288 85518808 86501360 87499752 88516336 
973.394 89556280 90625160 91727536 92865184 94038768 95248912 96498104 
976.768 97790856 99132024 100525576 101972552 103472168 105023776 106629912 
980.143 108298856 110045256 111886504 113839320 115916520 118123752 
983.036 120459616 122915704 125477168 128118664 130799352 133462760 
985.929 136028560 138398576 140474464 142160720 143386688 144119312 
988.821 144364752 144169552 143610592 142794496 141840352 140867792 
991.714 139996624 139324848 138924768 138841408 139088544 139656864 
994.607 140521216 141653312 143026784 144620544 146421104 148415616 
997.500 150589744 152927456 155410112 158019344 160739664 163554048 
1000.392 166440464 169367888 172289280 175146256 177877872 180425648 
1003.285 182749712 184833472 186684832 188333504 189826112 191225104 
1006.178 192597552 194017424 195560096 197288032 199250176 201472256 
1009.070 203954928 206678240 209608832 212711664 215952112 219300128 
1011.963 222728160 226202976 229686592 233139296 236522640 239808640 
1014.856 242980768 246026512 248927152 251644368 254110016 256235776 
1017.748 257922288 259078944 259651424 259631360 259066160 258048624 
1020.641 256717376 255243920 253803376 252579744 251737056 251395648 
1023.534 251633920 252472672 253882736 255792864 258108848 260731280 
1026.427 263554272 266478128 269401056 272207744 274780064 276997216 
1029.320 278745376 279939968 280525888 280478112 279796480 278495136 
1032.213 276598912 274140928 271168992 267745024 263936512 259812800 
1035.106 255429440 250820160 246000432 240975104 235750288 230345552 
1037.999 224797648 219158336 213492384 207866528 202347456 197003552 
1040.892 191894400 187069104 182554896 178343152 174381552 170570624 
1043.785 166786336 162889168 158758944 154327312 149584592 144588320 
1046.678 139443808 134294672 129290416 124561832 120220680 116340000 
1049.571 112955984 110075136 107677560 105726832 104174976 102974264 
1052.464 102079000 101447904 101047352 100845432 100806656 100891744 
1055.357 101049688 101219408 101338096 101340528 101168672 100781032 
1058.250 100151072 99274000 98166824 96870344 95446504 93971832 92538152 
1061.626 91236664 90150328 89352304 88893576 88804624 89095912 89757616 
1065.001 90761408 92058224 93584728 95257248 96976784 98644480 100160584 
1068.376 101440912 102428112 103088944 103415952 103421168 103128856 
1071.269 102568736 101770120 100762648 99573400 98226760 96749504 95170152 
1074.645 93522504 91851480 90208968 88654728 87254704 86067208 85142624 
1078.020 84516456 84204096 84202080 84487680 85023816 85755576 86613224 
1081.395 87519288 88383312 89116616 89646360 89921992 89933240 89712800 
1084.770 89338872 88920336 88582280 88459224 88665824 89293168 90400816 
1088.146 92005968 94083656 96561088 99330392 102243160 105125992 107812336 
1091.521 110143880 111999184 113308280 114048272 114242160 113943976 
1094.414 113231944 112190912 110902200 109445416 107888960 106291584 
1097.307 104707448 103180576 101745784 100425392 99220912 98108928 97035936 
1100.682 95927288 94689224 93225032 91460824 89353848 86909272 84177824 
1104.057 81254856 78262816 75326672 72572424 70103696 67993856 66291972 
1107.433 65018444 64171636 63734016 63677312 63966496 64559796 65413216 
1110.808 66478252 67699112 69016464 70362488 71660328 72835392 73812880 
1114.183 74528696 74940640 75027776 74794464 74265024 73481312 72494272 
1117.558 71355304 70117056 68825136 67515520 66217260 64948640 63720016 
1120.934 62537328 61403612 60322040 59297572 58335920 57442196 56618696 
1124.309 55862736 55167528 54523728 53924324 53367892 52862572 52424832 
1127.684 52078860 51850828 51762200 51827308 52048044 52414404 52903180 
1131.059 53481428 54109532 54739676 55324852 55822040 56197144 56433696 
1134.435 56535472 56528188 56452868 56361636 56308672 56337152 56476448 
1137.810 56735808 57103916 57549048 58023680 58472752 58833836 59048144 
1141.185 59068108 58857320 58396448 57682148 56724896 55545644 54172476 
1144.560 52640676 50987548 49253172 47479712 45705804 43967344 42294980 
1147.936 40710172 39227588 37854616 36592372 35439468 34393108 33450570 
1151.311 32609426 31867166 31221618 30669790 30209160 29837876 29555322 
1154.686 29361500 29256470 29239316 29307510 29457870 29687458 29994950 
1158.061 30381612 30851354 31408828 32058400 32802452 33640640 34569744 
1161.437 35583656 36674352 37828948 39029328 40252808 41468624 42642236 
1164.812 43738880 44723320 45565172 46240560 46730660 47024688 47119004 
1168.187 47018524 46735860 46291092 45711072 45024008 44259104 43444500 
1171.562 42603820 41759040 40930572 40136568 39395640 38725696 38141468 
1174.938 37655432 37276248 37008696 36855808 36819492 36902052 37106812 
1178.313 37437700 37898760 38494032 39227984 40106116 41135928 42326284 
1181.688 43687320 45229104 46959528 48884240 51005660 53322708 55827808 
1185.063 58503044 61317980 64220384 67136936 69979544 72641592 75014512 
1188.438 77001024 78515152 79498600 79923648 79794864 79147912 78045320 
1191.814 76573488 74825520 72898280 70886288 68866944 66905036 65048428 
1195.189 63325592 61750300 60323180 59035348 57871432 56812688 55840428 
1198.564 54935088 54077632 53250372 52434292 51610828 50763184 49876340 
1201.939 48941164 47956188 46929956 45879444 44828636 43806380 42838748 
1205.315 41947928 41148568 40446568 39840844 39325808 38893992 38537592 
1208.690 38249576 38024092 37855124 37736884 37664428 37634620 37646976 
1212.065 37704180 37811888 37977188 38206552 38506200 38880188 39330992 
1215.440 39859476 40464756 41143216 41887864 42688916 43534120 44410036 
1218.816 45305664 46212252 47124580 48040860 48961712 49890020 50831004 
1222.191 51793484 52790280 53837036 54951856 56151668 57448892 58849660 
1225.566 60352000 61946180 63613936 65331056 67066208 68780368 70431064 
1228.941 71972128 73356888 74547584 75514704 76242888 76732952 77003160 
1232.317 77090400 77047232 76946944 76877136 76930608 77209440 77808672 
1235.692 78809624 80282328 82276080 84821952 87935024 91614720 95845312 
1239.067 100590312 105796024 111383280 117245776 123265296 129304840 
1241.960 135217248 140862592 146095920 150778608 154791312 158029728 
1244.853 160420032 161923952 162536256 162282064 161207728 159380800 
1247.746 156881072 153796160 150223360 146251376 141952992 137377920 
1250.639 132545072 127450032 122077096 116418616 110489536 104341288 
1253.532 98056552 91751192 85559968 79610064 74023072 68893352 64276548 
1256.908 60195736 56638064 53563472 50910684 48608216 46584196 44765340 
1260.283 43089280 41505628 39975676 38476584 36998304 35541220 34112416 
1263.658 32722558 31383466 30105452 28897756 27768184 26722188 25763360 
1267.033 24891832 24104108 23393086 22750156 22167414 21639398 21164204 
1270.409 20743184 20379174 20074770 19830920 19647422 19524092 19461642 
1273.784 19462858 19531094 19669090 19876044 20146538 20468880 20825318 
1277.159 21194678 21550982 21865972 22113476 22269384 22316854 22250690 
1280.534 22077498 21814996 21486848 21119118 20732758 20340214 19946566 
1283.910 19551196 19153206 18755410 18366340 17999240 17670200 17392794 
1287.285 17176988 17028926 16951262 16945716 17015004 17161406 17386930 
1290.660 17690492 18067834 18510502 19006824 19543674 20103780 20667218 
1294.035 21210892 21707838 22132548 22465474 22697016 22831518 22886488 
1297.411 22891380 22878562 22880832 22927322 23038692 23229782 23508112 
1300.786 23873318 24315116 24811138 25328660 25823452 26246998 26555936 
1304.161 26714366 26702140 26515854 26167070 25679726 25084476 24418534 
1307.536 23719036 23021502 22359344 21757582 21232636 20791948 20434322 
1310.912 20153028 19940218 19789860 19698766 19666176 19691348 19772034 
1314.287 19904104 20082960 20304902 20568924 20876524 21229366 21627070 
1317.662 22065504 22536452 23030482 23539870 24060362 24592070 25136540 
1321.037 25693364 26257416 26816668 27352680 27845544 28275488 28628164 
1324.413 28897722 29089176 29219788 29316692 29417766 29565394 29797420 
1327.788 30144090 30617664 31209192 31889058 32614138 33339034 34022536 
1331.163 34639644 35182960 35660732 36091432 36497832 36903276 37326184 
1334.538 37781812 38281636 38832900 39438560 40095688 40796356 41527284 
1337.914 42272960 43018380 43750276 44458408 45135420 45776268 46377504 
1341.289 46937300 47456132 47935320 48376444 48779016 49139100 49448876 
1344.664 49697420 49874628 49973912 49993204 49935436 49804504 49601212 
1348.039 49319312 48944280 48455528 47833988 47067412 46158416 45126744 
1351.415 44011344 42864168 41742116 40706316 39810664 39098352 38601180 
1354.790 38332988 38288544 38441392 38748700 39154444 39596536 40021524 
1358.165 40385220 40658864 40830496 40901956 40888192 40813864 40716576 
1361.540 40644676 40650240 40788276 41100524 41605824 42295860 43135316 
1364.916 44070380 45031948 45949012 46751324 47369508 47748100 47848080 
1368.291 47653652 47176136 46451432 45534116 44481792 43353360 42200652 
1371.666 41063956 39980364 38985540 38114952 37407216 36895668 36600412 
1375.041 36522340 36643020 36932644 37358360 37896556 38537732 39287176 
1378.417 40162740 41191592 42410336 43858760 45580148 47611944 49968484 
1381.792 52620516 55471960 58365936 61075472 63337976 64908700 65567896 
1385.167 65173604 63689396 61212332 57978620 54320132 50623992 47217468 
1388.542 44310840 41992748 40241428 38974448 38082832 37465584 37035400 
1391.917 36720504 36467776 36234252 35988108 35711812 35401688 35068396 
1395.293 34730048 34405628 34107576 33838816 33595852 33373170 33168658 
1398.668 32986804 32839436 32741852 32709662 32752856 32874852 33073254 
1402.043 33342290 33674260 34062208 34500864 34987332 35520368 36099244 
1405.418 36722016 37385296 38084276 38814276 39572760 40359696 41176728 
1408.794 42025816 42907248 43818476 44755532 45714012 46690000 47678276 
1412.169 48669480 49643516 50570980 51414928 52138560 52719456 53156968 
1415.544 53476708 53723028 53952948 54225928 54589588 55078784 55707740 
1418.919 56468788 57334764 58265248 59217248 60150448 61033788 61850044 
1422.295 62596188 63289636 63966616 64679796 65480516 66404192 67459128 
1425.670 68625896 69867376 71141168 72414248 73663320 74874096 76040024 
1429.045 77157752 78229528 79264704 80286520 81331128 82439056 83651808 
1432.420 84998184 86492344 88136376 89930352 91883216 94016064 96361496 
1435.796 98948512 101786120 104844000 108060984 111367648 114702280 
1438.689 118014784 121248880 124332856 127154160 129561856 131399008 
1441.582 132506104 132758544 132088352 130482528 127988832 124705360 
1444.475 120783704 116406400 111760872 107043360 102427896 98065072 94090904 
1447.850 90605688 87664904 85266808 83357928 81852568 80662384 79729920 
1451.225 79038312 78610360 78484784 78691928 79228584 80055784 81097432 
1454.601 82257264 83440640 84552528 85525992 86339800 87037072 87707640 
1457.976 88449104 89346320 90447048 91773960 93335600 95128040 97132688 
1461.351 99307032 101588096 103877192 106037600 107920264 109372056 
1464.244 110286816 110645880 110533088 110106864 109533544 108957104 
1467.137 108466528 108099912 107864448 107743664 107702056 107674288 
1470.030 107560856 107225576 106501296 105243264 103384000 100985976 
1472.923 98233080 95368296 92607936 90079952 87839080 85898944 84266080 
1476.299 82961280 82012632 81434872 81215904 81309992 81652272 82171176 
1479.674 82810496 83541152 84360632 85289712 86359616 87605384 89058488 
1483.049 90750992 92722904 95022712 97704216 100811040 104356792 108296856 
1486.424 112503984 116778888 120832408 124311320 126854880 128107992 
1489.317 127804144 125840304 122315880 117533376 111906568 105877496 
1492.210 99795192 93872496 88222640 82871848 77815848 73071736 68689344 
1495.586 64760060 61394684 58680964 56652484 55277852 54486164 54188692 
1498.961 54304772 54774556 55551592 56597636 57877752 59351164 60971408 
1502.336 62689424 64438404 66134252 67668168 68875840 69543736 69422776 
1505.711 68283488 66037804 62831236 59026088 55031544 51148400 47511464 
1509.087 44131120 40971788 38004312 35221192 32644964 30311224 28245820 
1512.462 26460070 24944154 23674982 22623918 21762562 21064266 20499272 
1515.837 20037190 19651616 19325168 19057540 18861008 18752192 18739044 
1519.212 18813570 18949988 19113870 19273936 19419230 19566584 19752616 
1522.588 20012346 20359556 20787222 21274532 21801930 22358262 22946988 
1525.963 23582652 24283262 25059870 25911090 26826994 27794922 28808028 
1529.338 29867690 30983778 32170284 33439654 34800008 36251860 37785900 
1532.713 39384356 41021820 42670528 44305668 45912216 47482816 49013636 
1536.089 50495564 51912624 53245356 54463476 55534688 56425808 57105616 
1539.464 57546664 57730516 57658120 57354008 56863752 56242060 55532692 
1542.839 54755800 53904892 52958012 51895596 50722400 49475352 48215432 
1546.214 47003420 45870564 44813828 43799016 42782476 41732160 40650280 
1549.590 39573448 38562356 37670280 36919980 36300744 35778440 35316712 
1552.965 34892456 34507284 34182352 33944176 33805720 33756264 33759160 
1556.340 33761560 33693524 33471864 33015084 32264776 31233154 30025448 
1559.715 28801832 27698040 26776104 26033960 25432570 24921660 24451518 
1563.091 23981712 23487300 22964384 22430302 21917372 21459694 21076090 
1566.466 20765012 20505178 20266294 20018418 19742524 19437250 19118718 
1569.841 18813120 18544492 18328736 18170570 18067970 18015712 18006352 
1573.216 18029874 18069352 18101790 18101858 18048594 17938598 17792036 
1576.592 17648078 17544360 17502238 17521764 17589004 17685592 17798182 
1579.967 17921470 18058126 18214762 18396930 18606012 18838240 19086138 
1583.342 19341104 19594454 19837232 20057730 20241264 20371846 20435294 
1586.717 20425292 20347158 20220262 20073938 19942820 19861718 19857140 
1590.093 19946670 20139494 20435920 20827856 21294958 21805658 22311938 
1593.468 22755114 23078002 23229538 23179626 22926204 22494890 21933332 
1596.843 21296976 20643624 20019840 19459460 18986782 18616734 18357354 
1600.218 18210304 18171262 18230622 18376468 18598334 18888764 19242904 
1603.594 19656192 20119154 20613950 21115292 21589564 21999830 22312914 
1606.969 22499428 22539594 22424476 22154410 21737692 21188938 20530120 
1610.344 19789756 19003224 18212724 17457600 16768321 16162490 15640484 
1613.719 15190161 14790935 14420403 14057819 13689347 13312954 12939071 
1617.094 12588635 12285244 12048249 11887249 11800965 11779822 11807877 
1620.470 11866919 11938502 12009245 12074004 12137068 12209650 12304127 
1623.845 12428900 12584985 12767776 12971912 13193699 13431558 13684388 
1627.220 13948897 14217434 14480041 14728067 14958538 15176161 15390529 
1630.595 15612833 15850304 16102966 16363412 16618919 16854872 17055288 
1633.971 17205702 17293480 17310306 17254830 17136934 16975966 16794978 
1637.346 16613239 16441178 16279399 16120262 15951455 15761890 15544935 
1640.721 15303615 15048298 14795324 14558772 14345156 14152014 13967339 
1644.096 13774262 13554160 13292728 12984714 12635878 12264589 11896443 
1647.472 11559947 11278050 11065906 10929427 10866402 10866571 10910570 
1650.847 10969490 10999088 10944480 10759160 10433658 10020198 9607064 
1654.222 9268817 9029672 8874623 8772437 8694511 8622346 8547117 8468488 
1658.080 8390144 8316341 8248324 8184066 8118601 8045957 7960198 7856439 
1661.937 7731623 7585869 7423919 7255055 7092992 6951729 6841242 6766287 
1665.794 6723481 6703224 6690336 6667961 6621665 6542241 6428899 6289096 
1669.652 6135895 5983051 5841711 5719790 5620793 5544908 5487927 5441120 
1673.509 5390459 5318774 5212055 5066475 4893766 4717072 4562382 4445774 
1677.367 4369491 4324008 4294627 4268995 4241758 4216898 4204988 4217601 
1681.224 4258923 4321666 4384519 4416718 4385322 4270032 4078407 3847753 
1685.082 3627012 3449497 3325741 3247585 3199917 3167573 3139671 3110103 
1688.939 3075097 3033754 2986944 2938437 2895406 2866888 2861985 2885933 
1692.796 2937002 3005294 3073695 3121349 3129559 3092516 3022910 2948745 
1696.654 2897941 2886133 2910416 2953682 2988178 2982973 2915253 2781411 
1700.511 2604475 2423646 2274700 2173556 2117615 2094042 2086750 2081124 
1704.369 2064344 2028990 1973334 1902276 1824742 1750814 1688209 1640113 
1708.226 1605791 1581414 1562659 1546598 1532831 1524020 1524485 1538085 
1712.083 1566815 1609815 1663927 1725265 1789906 1854656 1916587 1970904 
1715.941 2009483 2021999 1998897 1936922 1843442 1735711 1633661 1553448 
1719.798 1502973 1481295 1482824 1499581 1525716 1556939 1591923 1630401 
1723.656 1672276 1716350 1760895 1804512 1846969 1889697 1933959 1980590 
1727.513 2027492 2070770 2106094 2130733 2145751 2155807 2167095 2183413 
1731.371 2202428 2213351 2197000 2132265 2002759 1810568 1580217 1351883 
1735.228 1162073 1028305 949565 912707 901086 898031 891457 874027 843981 
1739.568 804676 763183 727138 702379 691793 695111 709946 731984 757142 
1743.907 782834 808593 836910 870939 913969 966534 1026113 1086896 1141807 
1748.247 1184133 1209119 1214236 1198819 1163069 1108056 1036973 956040 
1752.104 874126 801323 746289 713033 700786 702778 709249 708818 693352 
1756.444 660631 614839 565303 520483 485353 458983 436097 409000 370729 
1760.783 318103 251958 177170 100838 30815 -27500 -70039 -95514 -103962 
1765.123 -97800 -81999 -63115 -48306 -42873 -47677 -58610 -68118 -69178 
1769.463 -58875 -40289 -21602 -14379 -27334 -63049 -115059 -171368 -219888 
1773.802 -253302 -271547 -278899 -280422 -278601 -273269 -261944 -242473 
1777.660 -215582 -185312 -158252 -140730 -135927 -142651 -155238 -166267 
1781.517 -170540 -166267 -155801 -143811 -135265 -132780 -136755 -145235 
1785.375 -155437 -164611 -170673 -171732 -165340 -148812 -119928 -78686 
1789.232 -28328 24022 68394 93945 93083 63257 9410 -58808 -129302 -192896 
1794.054 -244725 -284561 -314295 -336544 -353462 -366639 -377464 -386866 
1797.911 -396334 -406728 -418645 -431886 -446318 -461676 -478159 -496627 
1801.769 -516749 -537565 -556924 -571715 -579525 -578995 -570987 -557751 
1805.626 -542231 -526511 -511089 -495435 -477993 -458465 -437149 -416527 
1809.483 -398883 -386104 -378292 -374154 -371571 -368923 -365778 -362566 
1813.341 -360017 -358329 -356144 -351641 -342967 -329095 -310884 -290455 
1817.198 -270124 -251182 -233432 -215483 -195546 -172825 -147984 -121916 
1821.056 -95879 -69840 -42773 -13352 18787 52056 83108 108461 126590 139251 
1825.877 151316 168685 195004 229812 267805 300563 319993 321187 306034 
1830.217 282095 260412 250300 256334 277619 309748 348113 388836 430889 
1834.557 475103 522473 573663 627581 682965 738887 796410 858356 929177 
1838.896 1012629 1111344 1225799 1354376 1494494 1643306 1797126 1951832 
1842.754 2102632 2244657 2374036 2490457 2597008 2699052 2801553 2906747 
1846.611 3012600 3113640 3202320 3272188 3318996 3341834 3342235 3322936 
1850.469 3285676 3230026 3154757 3058980 2943608 2812658 2672047 2527715 
1854.326 2384564 2244091 2106028 1969240 1833526 1700683 1573899 1455696 
1858.183 1347130 1246500 1150345 1055274 959527 863469 770419 683330 604885 
1862.523 535743 475435 424024 382269 352722 337336 336606 347184 362803 
1866.863 374410 374443 358724 328449 289654 250234 217546 194739 181380 
1871.202 175347 173955 175513 179457 184894 189700 190264 183037 164243 
1875.542 133086 91293 42281 -9873 -62320 -114131 -165804 -217801 -269660 
1879.881 -319096 -363758 -401630 -432912 -459756 -486334 -515326 -548419 
1883.739 -583859 -618602 -649339 -673854 -692148 -705546 -716495 -725923 
1887.596 -734556 -742561 -750202 -759099 -770808 -786022 -802923 -817739 
1891.454 -824883 -820319 -802559 -774909 -743520 -715767 -696978 -688741 
1895.311 -688707 -691552 -692512 -689534 -682488 -673820 -665087 -655757 
1899.168 -643681 -625782 -600205 -568439 -534156 -502352 -476934 -458763 
1903.026 -445722 -434401 -421856 -407655 -393487 -382595 -377001 -376636 
1906.883 -379053 -381404 -381635 -380940 -382364 -390540 -407456 -432448 
1910.741 -461775 -490173 -513439 -530218 -541403 -549379 -555732 -560134 
1914.598 -560795 -556659 -548320 -540675 -540146 -553284 -582304 -623664 
1918.456 -668263 -705843 -728900 -735780 -730289 -720432 -713617 -713981 
1922.313 -721556 -733233 -745075 -755262 -764458 -775538 -791281 -811952 
1926.170 -835895 -860102 -882853 -904081 -926598 -953048 -984157 -1016852 
1930.028 -1045213 -1061740 -1061773 -1045114 -1016852 -985281 -957974 
1933.403 -939591 -930995 -929871 -933177 -939724 -950072 -965710 -987463 
1937.260 -1012918 -1037445 -1055757 -1064417 -1063591 -1057278 -1051460 
1940.636 -1050998 -1057278 -1068516 -1079853 -1088281 -1091850 -1092445 
1944.011 -1092941 -1094726 -1096544 -1095519 -1086728 -1068912 -1042833 
1947.386 -1012984 -984785 -961115 -942038 -924184 -903783 -878918 -851372 
1951.244 -826470 -809901 -805668 -813142 -827958 -844659 -859342 -870849 
1955.101 -881861 -896608 -917671 -944782 -974405 -1001414 -1022703 -1037776 
1958.958 -1049444 -1061542 -1076977 -1095651 -1115712 -1134087 -1150413 
1962.334 -1165680 -1182301 -1200905 -1219672 -1233681 -1237448 -1228098 
1965.709 -1208802 -1186630 -1172024 -1172024 -1187258 -1211742 -1235168 
1969.084 -1249673 -1253307 -1250928 -1251589 -1263813 -1289482 -1323178 
1972.459 -1354459 -1371602 -1369521 -1349405 -1318685 -1285188 -1252250 
1975.835 -1216699 -1170108 -1106029 -1023165 -929408 -839599 -768030 -724202 
1979.692 -710144 -721060 -749441 -789231 -837284 -892673 -953973 -1016190 
1983.550 -1071127 -1110028 -1127280 -1122983 -1104608 -1081968 -1063327 
1986.925 -1051394 -1041015 -1022835 -989414 -938434 -876868 -817111 -772892 
1990.782 -752947 -757578 -777886 -801005 -815325 -814035 -797234 -770246 
1994.640 -739187 -709879 -684506 -664458 -650695 -645799 -651621 -668858 
1998.497 -695258 -725029 -750830 -767302 -771734 -767203 -759099 -753443 
2002.354 -753344 -757644 -762671 -764425 -761415 -754336 -746828 -741370 
2006.212 -737500 -733398 -725691 -713716 -700947 -694431 -699657 -718976 
2010.069 -747291 -774711 -789925 -785659 -761712 -727213 -693901 -671472 
2013.927 -663565 -665120 -666311 -658238 -636700 -605632 -574330 -553151 
2017.784 -546930 -554343 -567976 -578466 -578995 -567116 -544051 -512711 
2021.642 -473558 -424736 -364222 -290653 -208760 -127845 -59107 -11497 11298 
2025.981 11597 -3015 -25247 -50990 -79216 -112839 -152489 -195976 -236777 
2030.321 -267044 -279263 -271614 -246314 -208594 -163353 -111547 -50062 
2034.178 24553 113697 213468 314257 405683 478918 530402 563909 586105 
2038.518 604553 624229 646163 668562 689635 708652 727636 748513 771647 
2042.857 793954 809423 811315 796078 764843 724516 685852 660664 658209 
2047.197 683861 737493 815464 909354 1008810 1101611 1174797 1218190 1227161 
2051.537 1204102 1159149 1106660 1063479 1042553 1048133 1076067 1116228 
2055.394 1155760 1185097 1201643 1208820 1213538 1222875 1239555 1263148 
2059.251 1289833 1316088 1339918 1362319 1384656 1407725 1430264 1448681 
2063.109 1459452 1460948 1454665 1445523 1438674 1437245 1441334 1446852 
2066.966 1447384 1438176 1416966 1384889 1346233 1305619 1267036 1232743 
2070.824 1203869 1181110 1165328 1157621 1157421 1162936 1169780 1173103 
2074.681 1169714 1159548 1146358 1135994 1134997 1146458 1169880 1200380 
2078.539 1231879 1259327 1280362 1295383 1307314 1318215 1328418 1337026 
2082.396 1341812 1341214 1335564 1326723 1317384 1309939 1304888 1301265 
2086.253 1297776 1293356 1288304 1283752 1280329 1277371 1272686 1263049 
2090.111 1246002 1221379 1192672 1164830 1144199 1134764 1137588 1150843 
2093.968 1170810 1193901 1217791 1241781 1266039 1290863 1315124 1337325 
2097.826 1356303 1371560 1385121 1399614 1417565 1439904 1465968 1492932 
2101.683 1518268 1540546 1560431 1579519 1600470 1624049 1649825 1676467 
2105.541 1702778 1728592 1755805 1786845 1824043 1867933 1916686 1967709 
2109.398 2018437 2067474 2115450 2163998 2214151 2265341 2315105 2359677 
2113.255 2396092 2423546 2443638 2459932 2476394 2495589 2518584 2544546 
2117.113 2572243 2601242 2632576 2667880 2708321 2753901 2801687 2848544 
2120.970 2890736 2925727 2953149 2974566 2991881 3006628 3020007 3032152 
2124.828 3043797 3056510 3072094 3092449 3117578 3145145 3171245 3191338 
2128.685 3202453 3205024 3202086 3198581 3199416 3207661 3223516 3245548 
2132.542 3272289 3303170 3339463 3382605 3431829 3484567 3534671 3575527 
2136.400 3602020 3613213 3611776 3603357 3593066 3583478 3574591 3564235 
2140.257 3551006 3535272 3520808 3512123 3512457 3521309 3533335 3541218 
2144.115 3537610 3519472 3487639 3446992 3402809 3358830 3314923 3268449 
2147.972 3217441 3162667 3108201 3061149 3026714 3006361 2995685 2984975 
2151.830 2962790 2920524 2852880 2760136 2645444 2512585 2365474 2207756 
2155.687 2045668 1891028 1760329 1673440 1647230 1688076 1787743 1925672 
2159.544 2074998 2209421 2313739 2383598 2423913 2444838 2456667 2467263 
2163.402 2480259 2496788 2515218 2532914 2545612 2547612 2534547 2503087 
2167.259 2453368 2389295 2318736 2249720 2189007 2139424 2098437 2061015 
2171.117 2020634 1972468 1914856 1850064 1780890 1712392 1648162 1590326 
2174.974 1541277 1501975 1472917 1453402 1440004 1427538 1410019 1382595 
2178.832 1344139 1297876 1250454 1208953 1179748 1164631 1161441 1165461 
2182.689 1172339 1178817 1184798 1191077 1198254 1206029 1212009 1214568 
2186.546 1213206 1209983 1208853 1214202 1228258 1250255 1277139 1304688 
2190.404 1329947 1353345 1376845 1403537 1434751 1468927 1501909 1529074 
2194.261 1547994 1558868 1566184 1574630 1588963 1610879 1638616 1668251 
2198.119 1696392 1720841 1742231 1762092 1782553 1803181 1823178 1839882 
2201.976 1852060 1860013 1865105 1869996 1875720 1881277 1884705 1883174 
2205.833 1875088 1861477 1845206 1829933 1818487 1811732 1808438 1806974 
2209.691 1806641 1807773 1812398 1822646 1837719 1855854 1872925 1884838 
2213.548 1889996 1890196 1890362 1895920 1911195 1935857 1966743 1997499 
2217.406 2022099 2036879 2041373 2037246 2028823 2019502 2011314 2005688 
2221.263 2002958 2003391 2007419 2014975 2024729 2034250 2039742 2038078 
2225.121 2027159 2007652 1981522 1952997 1924907 1900213 1879414 1863407 
2228.978 1852060 1846636 1848134 1857152 1872991 1893557 1915289 1935058 
2232.835 1951133 1963282 1973600 1983952 1995902 2009982 2025461 2041773 
2236.693 2059251 2079026 2103031 2132731 2167095 2203227 2236664 2263676 
2240.550 2281295 2290322 2293053 2293286 2294219 2297683 2303846 2312340 
2244.408 2323033 2337257 2357046 2384564 2420681 2464164 2511019 2556444 
2248.265 2596042 2626076 2645610 2655178 2656178 2651111 2642077 2632176 
2252.123 2624809 2623675 2632209 2652378 2683749 2722725 2763404 2799552 
2255.980 2824931 2836504 2833536 2817961 2793283 2763571 2732461 2702553 
2259.837 2675981 2654011 2637710 2627342 2622576 2623142 2628343 2638077 
2263.695 2652344 2671847 2696218 2724992 2756002 2785646 2810924 2828766 
2267.552 2837938 2839205 2834903 2827766 2820496 2814793 2811324 2809957 
2271.410 2810491 2812325 2815393 2819795 2825298 2832001 2839806 2848977 
2275.267 2860084 2873525 2889469 2907514 2926228 2943874 2958920 2970196 
2279.125 2977369 2981672 2983807 2985009 2986143 2987577 2990013 2994417 
2282.982 3002124 3014335 3032319 3055743 3083339 3112773 3141741 3168074 
2286.839 3191438 3212167 3231928 3252125 3274559 3299832 3328278 3359398 
2290.697 3392557 3427087 3462155 3496825 3531130 3565104 3600617 3639675 
2294.554 3685019 3738922 3801758 3872492 3947884 4024427 4098008 4166314 
2298.412 4228542 4285257 4338399 4389372 4439715 4489929 4540552 4592050 
2302.269 4644761 4699622 4756968 4816801 4879089 4943564 5010696 5082030 
2306.126 5159745 5245893 5342053 5448166 5562695 5682928 5805813 5929203 
2309.984 6051654 6172661 6292054 6409362 6523540 6633306 6737581 6836563 
2313.841 6931898 7026648 7124247 7228304 7341416 7464974 7598919 7742517 
2317.699 7894059 8051358 8211720 8372343 8530356 8683525 8829816 8968072 
2321.556 9096594 9213341 9315124 9398544 9461018 9501623 9522926 9530411 
2325.414 9533087 9540063 9559539 9597443 9655271 9730794 9818462 9911335 
2329.271 10002058 10084797 10155103 10210935 10252458 10281838 10302434 
2332.646 10319195 10336568 10358760 10388250 10426158 10471673 10523574 
2336.021 10580609 10641725 10706857 10775838 10847785 10921068 10992631 
2339.397 11059176 11117573 11166152 11204434 11232994 11251560 11257987 
2342.772 11247072 11208990 11130966 11000380 10806477 10547032 10230781 
2346.147 9879675 9525432 9205321 8957925 8813552 8792689 8903065 9139973 
2350.005 9486146 9913539 10391507 10886888 11371236 11826331 12242742 
2353.380 12618992 12957368 13261367 13533103 13773680 13985029 14170464 
2356.755 14335088 14484563 14622541 14750107 14865059 14964162 15044593 
2360.130 15105312 15147545 15173382 15184842 15182475 15165456 15131900 
2363.506 15080784 15012453 14928428 14830979 14722103 14602323 14471306 
2366.881 14328273 14172758 14004979 13826149 13637442 13439726 13233013 
2370.256 13017079 12791799 12558655 12319466 12077172 11834333 11592581 
2373.631 11351849 11111556 10870581 10628753 10387265 10148319 9915132 
2377.007 9691218 9479271 9281747 9100621 8937495 8793670 8670106 8566852 
2380.864 8482983 8416697 8365554 8326947 8299352 8281689 8273111 8273483 
2384.721 8281487 8295097 8312119 8330020 8346840 8361973 8374944 8385855 
2388.579 8394367 8399637 8400346 8395178 8383591 8365824 8343125 8317117 
2392.436 8288984 8259941 8230561 8201319 8172923 8146656 8123969 8106212 
2396.294 8094363 8088287 8087915 8092642 8102735 8118871 8141997 8173058 
2400.151 8212563 8260346 8315226 8376294 8442474 8513900 8590813 8673790 
2404.009 8763376 8860183 8964047 9075345 9194490 9321894 9457632 9601305 
2407.866 9751667 9906963 10065501 10226540 10390184 10557353 10729170 
2411.241 10905439 11084703 11263496 11437430 11602280 11755005 11894093 
2414.616 12019498 12132060 12232177 12319875 12394226 12454098 12498735 
2417.992 12528199 12543444 12546206 12538328 12521856 12498837 12471284 
2421.367 12442232 12413728 12388158 12366884 12350419 12338317 12330442 
2424.742 12326897 12329215 12340192 12363099 12400771 12454780 12524788 
2428.117 12609033 12705029 12811114 12926373 13050984 13186423 13333966 
2431.493 13494581 13668420 13854814 14053164 14262185 14480932 14708633 
2434.868 14943997 15186490 15435365 15690912 15953757 16225360 16507220 
2438.243 16800316 17105466 17422524 17751340 18091910 18444292 18808552 
2441.618 19184684 19571576 19967000 20368340 20772832 21178954 21586430 
2444.994 21996938 22412720 22836128 23268374 23709136 24156542 24607252 
2448.369 25058290 25506460 25949112 26384928 26812614 27231588 27641572 
2451.744 28042508 28434226 28815746 29185802 29542022 29881566 30201238 
2455.119 30498076 30769400 31012888 31226852 31408970 31557064 31668320 
2458.495 31740318 31770724 31758000 31701252 31600002 31454314 31264738 
2461.870 31032212 30758838 30448494 30105878 29736776 29347816 28945144 
2465.245 28534422 28121580 27712202 27313018 26931932 26577072 26256396 
2468.620 25976900 25742442 25554144 25410156 25306358 25238014 25200758 
2471.996 25191452 25207922 25249148 25313874 25400424 25506214 25627704 
2475.371 25760266 25899518 26040892 26180054 26314302 26441442 26559882 
2478.746 26668914 26767470 26853782 26925834 26980938 27016338 27030480 
2482.121 27022932 26995114 26949418 26889172 26817268 26736284 26647774 
2485.497 26553050 26453626 26351092 26247244 26143808 26041454 25939862 
2488.872 25837590 25732248 25621694 25504386 25379524 25246970 25107472 
2492.247 24961244 24808366 24648422 24480614 24303936 24117698 23920754 
2495.622 23711968 23489818 23252958 23000926 22733920 22453646 22163126 
2498.998 21865900 21565676 21265312 20967100 20671976 20380528 20093092 
2502.373 19810042 19531890 19259320 18993116 18733718 18481458 18237258 
2505.748 18002070 17777090 17563646 17362102 17172264 16992642 16821600 
2509.123 16657272 16498443 16344592 16196024 16053453 15917012 15786836 
2512.499 15662193 15542635 15427812 15318031 15214318 15117937 15030083 
2515.874 14951473 14882478 14822785 14772424 14731564 14700200 14678746 
2519.249 14666647 14663117 14666716 14675935 14689096 14705308 14723988 
2522.624 14745103 14769133 14796627 14827824 14863482 14903463 14947632 
2526.000 14995304 15045039 15094643 15141713 15183607 15218299 15244551 
2529.375 15261470 15268540 15265726 15252547 15228936 15195274 15152657 
2532.750 15103390 15050082 14995784 14942420 14891428 14842944 14797037 
2536.125 14753501 14713157 14677169 14647078 14623775 14606812 14594818 
2539.500 14585258 14576247 14566618 14556270 14546540 14538865 14534103 
2542.876 14532252 14532047 14532081 14531191 14529032 14526394 14525023 
2546.251 14526805 14532732 14542839 14556270 14571244 14585636 14597732 
2549.626 14605955 14609348 14607771 14601192 14590844 14578165 14565145 
2553.001 14553769 14545615 14541503 14541709 14545615 14552193 14560828 
2556.377 14570490 14580221 14588548 14593653 14593208 14584916 14567132 
2559.752 14539242 14502069 14457466 14407524 14354540 14299782 14243969 
2563.127 14187513 14130893 14074520 14019626 13967339 13918275 13873014 
2566.502 13831383 13792799 13757161 13724672 13696220 13673241 13656965 
2569.878 13648075 13646810 13652315 13663291 13678472 13696630 13716704 
2573.253 13738351 13761505 13786164 13813151 13843320 13877289 13915983 
2576.628 13959367 14007033 14057784 14109842 14161187 14210793 14257802 
2580.003 14302624 14346321 14390605 14437324 14488229 14544450 14606914 
2583.379 14675592 14749902 14828613 14910185 14992595 15074540 15154957 
2586.754 15233363 15310721 15387783 15465992 15546378 15629286 15714685 
2590.129 15801715 15889311 15976170 16061326 16144024 16224295 16302310 
2593.504 16378585 16453806 16528284 16602051 16674727 16745524 16813886 
2596.880 16879710 16943750 17007458 17072864 17141828 17215768 17294928 
2600.255 17378654 17465880 17555228 17646216 17739052 17834704 17934488 
2603.630 18039752 18150810 18267702 18389534 18515170 18643746 18774852 
2607.005 18908388 19044800 19184442 19327490 19473876 19623086 19773906 
2610.381 19924918 20074180 20219916 20360424 20494792 20622602 20744194 
2613.756 20860150 20971098 21077308 21178256 21272964 21360524 21439572 
2617.131 21509722 21571282 21624876 21671684 21712820 21749396 21782386 
2620.506 21812520 21840988 21868444 21895834 21923502 21951978 21981010 
2623.882 22010498 22040508 22071046 22102668 22136000 22171424 22209398 
2627.257 22250062 22293626 22340156 22389972 22443456 22500786 22561756 
2630.632 22625698 22691396 22757838 22824078 22889632 22954602 23019268 
2634.007 23083906 23148626 23212794 23275610 23336338 23394906 23451380 
2637.383 23506920 23562956 23621100 23682154 23746720 23814722 23885220 
2640.758 23957238 24029790 24102250 24174128 24245562 24317426 24390600 
2644.133 24466066 24544840 24627486 24713832 24803524 24895974 24990444 
2647.508 25086864 25185168 25285776 25389290 25496022 25606088 25719134 
2650.884 25834600 25951926 26070726 26190650 26311626 26434116 26558226 
2654.259 26684416 26813566 26946246 27083480 27225944 27373782 27526754 
2657.634 27684194 27844802 28007838 28172168 28337378 28503534 28670744 
2661.009 28839152 29008474 29178218 29348064 29517126 29685506 29853172 
2664.385 30020158 30187032 30353752 30520328 30686822 30853132 31019328 
2667.760 31185624 31352234 31519118 31686458 31854044 32022160 32191050 
2671.135 32361616 32534636 32711554 32892722 33078256 33267520 33459052 
2674.510 33651236 33842688 34031892 34217948 34400284 34578892 34754024 
2677.885 34926532 35097312 35268016 35439972 35615268 35795496 35982600 
2681.261 36177744 36382092 36596844 36822844 37060476 37310296 37572544 
2684.636 37847024 38133364 38431188 38739572 39057752 39384900 39720000 
2688.011 40062148 40410712 40765236 41125332 41491224 41862760 42239980 
2691.386 42622936 43011428 43405356 43805100 44211044 44624132 45045104 
2694.762 45474656 45912956 46359288 46813060 47272956 47738448 48208620 
2698.137 48683380 49162440 49645636 50132864 50623656 51117988 51615788 
2701.512 52116928 52621264 53127608 53634208 54138432 54637380 55128028 
2704.887 55607776 56074600 56527132 56963964 57383424 57783648 58162348 
2708.263 58517564 58847608 59151820 59429880 59682304 59909352 60111288 
2711.638 60288196 60440340 60568276 60672624 60754208 60813320 60849836 
2715.013 60862568 60849760 60809776 60741212 60643668 60517652 60364336 
2718.388 60185764 59983948 59761688 59522100 59268516 59005556 58738160 
2721.764 58471576 58210992 57961316 57726880 57511636 57318428 57149756 
2725.139 57007072 56891248 56802004 56738600 56700316 56686388 56696428 
2728.514 56730444 56788480 56870588 56976204 57103916 57252080 57418896 
2731.889 57602312 57800796 58012812 58236448 58469984 58710736 58956440 
2735.265 59204372 59452564 59699560 59944572 60186984 60426212 60661460 
2738.640 60892184 61117464 61336832 61550008 61757408 61959364 62156636 
2742.015 62350480 62542416 62734216 62928468 63127676 63333876 63548916 
2745.390 63773736 64007884 64250960 64501436 64758092 65018752 65280804 
2748.766 65540536 65794000 66036568 66264460 66474700 66666616 66840456 
2752.141 66998004 67141224 67271584 67390248 67497368 67593328 67678624 
2755.516 67754024 67820056 67876736 67923376 67957816 67977312 67978824 
2758.891 67959328 67916400 67848680 67754712 67633864 67485448 67309344 
2762.267 67105808 66876128 66622272 66346676 66051884 65740452 65414636 
2765.642 65077216 64731136 64380408 64029776 63684292 63349096 63028404 
2769.017 62725752 62443436 62183476 61947212 61735900 61550276 61389992 
2772.392 61254448 61141264 61048092 60971600 60908920 60857460 60814688 
2775.768 60778256 60745444 60712936 60676856 60632924 60576772 60504020 
2779.143 60410752 60293104 60148428 59975044 59773396 59545736 59296432 
2782.518 59031632 58757432 58480068 58204284 57932840 57667356 57408196 
2785.893 57154784 56906508 56662336 56420716 56179760 55936640 55688868 
2789.269 55434164 55171552 54901096 54624420 54343448 54060932 53779388 
2792.644 53500840 53227636 52962164 52706508 52463228 52234324 52021560 
2796.019 51825852 51647656 51486772 51342764 51215504 51104456 51009164 
2799.394 50929388 50863896 50812196 50773348 50746644 50731600 50727392 
2802.770 50732756 50745828 50764224 50785640 50807576 50828992 50849296 
2806.145 50868740 50887440 50905508 50922276 50936504 50946712 50951184 
2809.520 50949024 50938816 50919776 50890680 50850004 50795624 50726388 
2812.895 50640972 50539448 50422620 50292284 50150752 50001164 49847016 
2816.271 49692148 49541152 49399164 49271504 49163480 49080000 49025024 
2819.646 49001732 49012748 49059560 49143260 49264308 49421960 49614320 
2823.021 49838064 50089208 50362228 50651840 50952380 51258228 51563960 
2826.396 51864344 52153500 52426292 52677780 52903816 53101732 53270148 
2829.771 53409216 53520144 53605116 53667124 53709152 53734956 53747888 
2833.147 53751528 53749612 53745792 53743504 53746688 53759664 53785916 
2836.522 53829760 53894612 53983448 54099436 54245864 54426672 54648200 
2839.897 54917716 55244736 55640692 56116340 56683820 57355484 58143216 
2843.272 59061200 60125408 61352324 62758944 64358660 66156364 68142832 
2846.648 70289320 72545720 74833240 77053480 79094328 80832576 82158328 
2850.023 82982456 83246464 82933808 82067936 80710776 78946712 76879104 
2853.398 74618040 72262776 69906248 67625848 65477432 63502088 61722420 
2856.773 60145044 58763764 57562704 56520640 55612900 54815156 54106268 
2860.149 53466176 52879340 52332500 51814352 51316396 50832420 50358432 
2863.524 49893068 49437368 48994532 48568828 48166232 47793556 47457312 
2866.899 47164652 46921648 46732580 46599616 46522604 46498412 46521532 
2870.274 46584788 46679372 46795344 46922276 47050016 47168456 47269704 
2873.650 47348588 47403096 47435028 47449920 47455020 47457716 47465000 
2877.025 47481448 47510132 47551904 47607028 47675320 47756680 47850928 
2880.400 47957928 48077240 48208136 48350516 48503912 48668740 48844712 
2883.775 49031404 49227604 49430756 49637984 49846236 50052956 50257388 
2887.151 50459872 50662268 50867064 51076652 51293540 51519784 51757464 
2890.526 52009200 52278384 52569056 52887012 53239064 53632556 54076360 
2893.901 54579932 55151800 55800224 56530072 57342096 58229708 59178972 
2897.276 60166088 61157440 62113972 62992052 63748256 64348668 64770020 
2900.652 65005748 65066552 64979428 64783632 64522236 64241088 63980856 
2904.027 63774200 63647428 63619228 63702748 63907532 64240896 64708016 
2907.402 65313884 66062800 66960120 68011800 69224896 70605864 72158816 
2910.777 73882360 75766512 77790048 79921728 82117176 84321360 86476008 
2914.153 88515768 90377232 92005232 93352728 94388840 95100856 95494272 
2917.528 95590640 95421616 95026536 94441720 93696872 92813600 91802032 
2920.903 90664392 89397688 87998960 86468808 84815960 83056864 81218176 
2924.278 79334496 77441960 75579200 73781112 72074400 70479576 69007448 
2927.654 67661120 66437052 65327168 64321080 63406916 62573224 61809892 
2931.029 61107624 60459268 59859224 59303080 58788120 58312160 57873628 
2934.404 57470936 57102256 56765336 56456864 56172932 55908712 55658884 
2937.779 55417672 55179756 54941140 54699236 54453936 54207536 53964616 
2941.155 53731428 53514184 53319076 53150336 53009336 52893900 52798436 
2944.530 52713656 52627548 52528144 52404236 52248000 52057308 51836008 
2947.905 51593848 51344552 51104456 50889412 50711936 50580660 50498988 
2951.280 50465420 50474092 50516372 50581924 50659252 50737300 50806312 
2954.656 50857600 50885016 50884532 50854284 50794168 50705308 50590112 
2958.031 50451128 50292024 50116836 49929864 49735612 49538964 49343628 
2961.406 49153756 48972168 48801408 48643424 48499944 48371888 48259752 
2964.781 48163600 48082684 48016140 47962772 47921852 47892292 47873536 
2968.156 47864652 47864764 47873160 47889072 47912528 47943944 47984460 
2971.532 48035124 48096784 48169336 48251864 48342592 48438932 48537664 
2974.907 48635308 48726820 48806304 48866220 48897292 48890060 48836036 
2978.282 48728784 48565972 48349668 48086164 47784680 47457092 47116048 
2981.657 46772984 46438304 46120424 45824720 45553728 45306772 45080500 
2985.033 44869156 44665916 44464428 44259692 44049224 43833064 43612876 
2988.408 43390780 43167484 42940604 42704636 42450632 42167640 41845648 
2991.783 41477484 41060936 40600324 40105860 39592756 39077000 38573944 
2995.158 38094588 37644484 37222892 36824324 36441580 36066372 35692712 
2998.534 35317896 34941900 34567092 34196436 33832800 33477660 33131502 
3001.909 32793626 32463294 32140028 31823740 31515058 31214890 30923964 
3005.284 30642838 30371556 30110422 29859242 29618564 29388656 29169466 
3008.659 28960834 28761824 28570834 28386118 28206180 28029784 27856636 
3012.035 27687268 27522590 27363584 27210810 27064330 26923156 26786324 
3015.410 26652672 26520998 26391054 26262978 26137262 26014750 25895896 
3018.785 25781434 25671394 25565776 25464296 25366632 25272256 25180850 
3022.160 25091920 25005430 24921556 24840852 24764762 24694540 24632150 
3025.536 24579236 24537092 24506452 24487766 24480334 24482612 24491868 
3028.911 24504314 24515040 24518370 24508870 24481700 24433818 24364210 
3032.286 24273698 24164986 24041172 23905982 23762502 23613684 23462188 
3035.661 23310780 23162220 23019442 22884778 22759826 22645246 22540360 
3039.037 22443876 22354076 22269314 22188198 22109954 22033816 21959784 
3042.412 21888028 21818968 21753436 21692234 21635986 21584514 21537018 
3045.787 21491828 21446918 21400900 21353078 21303970 21255220 21208874 
3049.162 21166638 21129414 21096962 21067884 21040858 21014600 20988380 
3052.538 20961814 20934936 20907502 20878888 20848436 20815446 20780236 
3055.913 20743914 20708534 20676392 20649494 20629030 20615234 20607280 
3059.288 20603562 20603110 20604812 20608182 20613324 20620342 20629620 
3062.663 20641678 20656930 20676182 20699778 20728310 20761502 20798902 
3066.039 20839396 20881672 20924400 20966542 21006916 21044928 21079466 
3069.414 21109136 21132824 21149036 21157244 21157558 21151018 21139850 
3072.789 21126562 21113796 21103884 21098700 21098978 21105100 21116684 
3076.164 21132372 21150844 21170430 21189182 21205568 21218614 21227834 
3079.540 21233438 21235908 21236256 21235142 21233264 21230828 21228184 
3082.915 21225574 21222686 21219556 21216320 21213154 21210684 21210056 
3086.290 21212632 21219660 21232464 21251392 21275890 21304458 21335362 
3089.665 21366510 21396722 21425302 21452696 21479782 21507634 21537332 
3093.041 21569402 21604398 21642428 21684048 21729226 21778134 21830778 
3096.416 21886390 21943856 22002166 22060136 22117380 22173936 22230428 
3099.791 22287626 22345982 22405742 22466662 22528148 22589364 22650028 
3103.166 22709934 22769360 22829144 22890016 22952890 23017800 23084396 
3106.542 23151456 23217408 23280398 23338926 23392422 23441380 23487684 
3109.917 23533644 23582126 23635410 23694822 23760578 23832014 23907906 
3113.292 23986754 24066948 24147226 24226292 24302850 24375812 24444474 
3116.667 24508694 24569382 24627872 24685876 24744768 24805312 24867026 
3120.042 24928852 24989496 25047970 25104558 25160098 25216526 25275766 
3123.418 25339058 25406784 25478386 25552528 25627246 25700888 25772574 
3126.793 25841386 25907644 25971624 26034100 26096094 26158202 26220986 
3130.168 26284838 26349648 26415032 26480706 26546426 26612580 26679730 
3133.543 26749040 26821638 26897986 26978258 27061792 27147352 27233670 
3136.919 27319158 27403180 27484958 27564284 27641044 27715592 27788140 
3140.294 27859216 27929316 27999000 28068876 28139114 28209894 28281182 
3143.669 28353188 28425842 28499960 28576108 28654852 28736230 28820102 
3147.044 28905654 28992144 29078866 29165638 29252996 29341860 29433048 
3150.420 29527020 29623460 29721518 29819706 29916816 30011922 30104848 
3153.795 30196266 30287454 30379444 30473054 30568352 30664776 30761254 
3157.170 30856832 30950436 31041928 31131514 31220124 31308748 31398534 
3160.545 31490330 31584642 31681470 31780812 31882248 31985454 32089830 
3163.921 32194938 32300436 32405776 32510712 32615140 32718840 32821640 
3167.296 32923460 33023414 33120920 33214870 33304368 33388880 33468608 
3170.671 33544306 33617332 33689656 33762848 33838136 33916264 33996628 
3174.046 34078224 34159372 34238096 34312424 34381492 34444580 34502512 
3177.422 34556864 34609572 34662824 34718312 34776964 34838564 34902260 
3180.797 34966932 35031652 35095804 35159644 35223492 35287528 35351900 
3184.172 35416388 35480780 35545036 35609300 35674692 35741816 35811328 
3187.547 35883116 35956324 36029576 36101476 36171044 36238176 36303516 
3190.923 36368108 36433144 36499380 36567212 36636712 36707812 36780292 
3194.298 36854044 36928676 37003320 37077040 37148860 37218052 37284624 
3197.673 37349328 37413644 37478656 37545052 37612216 37678812 37742672 
3201.048 37802092 37856064 37905268 37951336 37997116 38045356 38098348 
3204.424 38157276 38222472 38292816 38366320 38440488 38512860 38581044 
3207.799 38643840 38700924 38753408 38803188 38852608 38903632 38957380 
3211.174 39013740 39071960 39130476 39188312 39245248 39301504 39357876 
3214.549 39415120 39473504 39532692 39592068 39651200 39709688 39767892 
3217.925 39826320 39885592 39945852 40007028 40068540 40130208 40191632 
3221.300 40252952 40314792 40377332 40440680 40504616 40568600 40632380 
3224.675 40695544 40758576 40821832 40885392 40949396 41013880 41078452 
3228.050 41143216 41208168 41273424 41338616 41403052 41465416 41524548 
3231.426 41579496 41630328 41678176 41724972 41772648 41822880 41875932 
3234.801 41931360 41988220 42045672 42103788 42163480 42225884 42292132 
3238.176 42362116 42434960 42508840 42581672 42652436 42720648 42787044 
3241.551 42852352 42917052 42980880 43043036 43102528 43159100 43213380 
3244.927 43267364 43323120 43382760 43446956 43515512 43586424 43658048 
3248.302 43728176 43796084 43862024 43926832 43991876 44058612 44127600 
3251.677 44199124 44272536 44347168 44421816 44495776 44568244 44639332 
3255.052 44708704 44777240 44845092 44912400 44978952 45043856 45106048 
3258.427 45164980 45220460 45273304 45324536 45375736 45427932 45481424 
3261.803 45535588 45589424 45641908 45692256 45740888 45788676 45836648 
3265.178 45885444 45935160 45985068 46033952 46080780 46124624 46166188 
3268.553 46206172 46246160 46287556 46331384 46378316 46428164 46480340 
3271.928 46533960 46588296 46642484 46696160 46749256 46801880 46854692 
3275.304 46908140 46962740 47018780 47076828 47136728 47198704 47262688 
3278.679 47328936 47397624 47468696 47542368 47618004 47695180 47773548 
3282.054 47852856 47933064 48014212 48096820 48181040 48267716 48357444 
3285.429 48451120 48549560 48653688 48763740 48879456 49000136 49124336 
3288.805 49251096 49379188 49508700 49639764 49773552 49911132 50053736 
3292.180 50202192 50357132 50519016 50688220 50864528 51047544 51236008 
3295.555 51428168 51622132 51816520 52010544 52204952 52401020 52600692 
3298.930 52805620 53016484 53233556 53456020 53683432 53915844 54154156 
3302.306 54399888 54654592 54919556 55195296 55481220 55776416 56079464 
3305.681 56389028 56703188 57020748 57339904 57659448 57979224 58299956 
3309.056 58623240 58951812 59287924 59633156 59987444 60349296 60716864 
3312.431 61088248 61462892 61841336 62224736 62614596 63011320 63414080 
3315.807 63821324 64231524 64643688 65058200 65476312 65899724 66329496 
3319.182 66765488 67206744 67651248 68097136 68542976 68988424 69433032 
3322.557 69876944 70319320 70760032 71198424 71634688 72069552 72504056 
3325.932 72939080 73374152 73807896 74237624 74660424 75073744 75475752 
3329.308 75865704 76243680 76609848 76964192 77306224 77635456 77951032 
3332.683 78252576 78538896 78808872 79060536 79291864 79500784 79686888 
3336.058 79850528 79993592 80118088 80225416 80315264 80385944 80434392 
3339.433 80458000 80454456 80423432 80365328 80280936 80170216 80032672 
3342.809 79866656 79670488 79443488 79185688 78898312 78582536 78239328 
3346.184 77868840 77470232 77043832 76590248 76111640 75610912 75091744 
3349.559 74556352 74006536 73442544 72864232 72271584 71665600 71048160 
3352.934 70421632 69788608 69150912 68510080 67866888 67223000 66580012 
3356.310 65940568 65307336 64683296 64070820 63471408 62886036 62315216 
3359.685 61759088 61217712 60690572 60177124 59676068 59186260 58706564 
3363.060 58236604 57776760 57327880 56891664 56469620 56062760 55671804 
3366.435 55296136 54935272 54587860 54252660 53928748 53614412 53309184 
3369.811 53011620 52721064 52436688 52157652 51883388 51612952 51345296 
3373.186 51079448 50814132 50547936 50279824 50008448 49732496 49451068 
3376.561 49163552 48869888 48570384 48266084 47958000 47646700 47332184 
3379.936 47013392 46689004 46357044 46016084 45665536 45305740 44937424 
3383.312 44562224 44180816 43794288 43403120 43008280 42610436 42211132 
3386.687 41811792 41413984 41018544 40626264 40237140 39851340 39468932 
3390.062 39089868 38714612 38343628 37977152 37615612 37259572 36909664 
3393.437 36566092 36229280 35898664 35573048 35250764 34929872 34608888 
3396.813 34288076 33967784 33650200 33337318 33030882 32730882 32436836 
3400.188 32146520 31857752 31568930 31279088 30988120 30696922 30406024 
3403.563 30116602 29829430 29545108 29264410 28988178 28717078 28451100 
3406.938 28189882 27932108 27676320 27421250 27166010 26910746 26656758 
3410.313 26405734 26159538 25919426 25686158 25459166 25237490 25019786 
3413.689 24804506 24590842 24378474 24167858 23959864 23755818 23556836 
3417.064 23363574 23176166 22994184 22816118 22640848 22467462 22295368 
3420.439 22124946 21956612 21791062 21628532 21469128 21312010 21156792 
3423.814 21002570 20849444 20697310 20546376 20396676 20248278 20100588 
3427.190 19953400 19806608 19660146 19514214 19369478 19226140 19084510 
3430.565 18944656 18807202 18672350 18541034 18413974 18291616 18174200 
3433.940 18060718 17950062 17841022 17732184 17622682 17512346 17401518 
3437.315 17290514 17179952 17070002 16960910 16852840 16745696 16639093 
3440.691 16532311 16424555 16314661 16202282 16087148 15969913 15852332 
3444.066 15735608 15621214 15509290 15399832 15291569 15184121 15077593 
3447.441 14972840 14871472 14775029 14683954 14597491 14513547 14429412 
3450.816 14342142 14250611 14154341 14054601 13952729 13850504 13748679 
3454.192 13647391 13546538 13445570 13344626 13244286 13145506 13049072 
3457.567 12955559 12864763 12775864 12688004 12599959 12511284 12421672 
3460.942 12331669 12241651 12152538 12065146 11979713 11896409 11814550 
3464.317 11732775 11649722 11564065 11475192 11383412 11290156 11197532 
3467.693 11107919 11022708 10942645 10866979 10794214 10722751 10651369 
3471.068 10579454 10507043 10434745 10362832 10291067 10219077 10146115 
3474.443 10071707 9996464 9921132 9847170 9775761 9707617 9642363 9578778 
3478.301 9515373 9450690 9383816 9314751 9244243 9173644 9104309 9037386 
3482.158 8973450 8912366 8854062 8797728 8743124 8689880 8638333 8589123 
3486.015 8542419 8498728 8457508 8418014 8378964 8338869 8296516 8251228 
3489.873 8203008 8152767 8102094 8052472 8005253 7961143 7920851 7884172 
3493.730 7850838 7820643 7793722 7770379 7751085 7736311 7726395 7721268 
3497.588 7720695 7724101 7730982 7740696 7752502 7766567 7782051 7798580 
3501.445 7815515 7832383 7848645 7864705 7881440 7900706 7924597 7955474 
3505.302 7994487 8042515 8098279 8159925 8224618 8289761 8353697 8415751 
3509.160 8476767 8538161 8601898 8669260 8741299 8817541 8897822 8981061 
3513.017 9066786 9154727 9244479 9335740 9427799 9519471 9609232 9695690 
3516.875 9777760 9854795 9926760 9993921 10056650 10115759 10171316 10223249 
3520.732 10270846 10312647 10346069 10368397 10376507 10367481 10339961 
3524.107 10294087 10230814 10152559 10061940 9960729 9850457 9731640 9604421 
3527.965 9468943 9325889 9175810 9020098 8859675 8695863 8530187 8364472 
3531.822 8200408 8039781 7883330 7730476 7579362 7426953 7270553 7108485 
3535.680 6941123 6770763 6601177 6436701 6279582 6131022 5990408 5855984 
3539.537 5726303 5600822 5480142 5366004 5259777 5162059 5072073 4988005 
3543.395 4906634 4824674 4739381 4648646 4550998 4446778 4336692 4222854 
3547.252 4107941 3995300 3887703 3787251 3694910 3609170 3528324 3449129 
3551.109 3369215 3287245 3202987 3118012 3034588 2954750 2880096 2811091 
3554.967 2747699 2689083 2634476 2583176 2534747 2488357 2443205 2398124 
3558.824 2351815 2302880 2251085 2196500 2140723 2085785 2034582 1989877 
3562.682 1953829 1927203 1909098 1896386 1883806 1865204 1833626 1783285 
3566.539 1711859 1620557 1515275 1404069 1296014 1197755 1113371 1042885 
3570.396 983935 932929 886046 840230 794120 747749 702346 659204 619484 
3574.736 583451 550207 518094 485121 450060 412250 371889 330273 288958 
3579.076 249372 212872 179855 150520 124767 102926 85825 74392 70415 74491 
3583.897 86819 105544 127220 146178 155824 149327 122116 73166 5997 -71431 
3588.719 -149143 -217867 -270620 -305024 -322109 -325949 -321380 -314295 
3592.577 -309494 -310355 -318996 -336114 -361176 -393189 -430595 -470976 
3596.434 -511453 -549776 -582834 -609404 -629620 -645104 -658801 -673556 
3600.292 -691784 -714444 -740212 -766773 -790554 -808281 -817839 -818004 
3604.149 -809372 -793960 -774479 -755163 -740378 -734788 -741866 -763267 
3608.006 -797962 -842146 -889863 -935227 -973611 -1003530 -1026306 -1045312 
3611.864 -1064781 -1087091 -1112903 -1139705 -1163301 -1178799 -1182400 
3615.239 -1173115 -1153023 -1126751 -1100510 -1081869 -1077704 -1092049 
3618.614 -1126024 -1176518 -1237151 -1298964 -1354624 -1398553 -1428838 
3621.990 -1446275 -1453276 -1452054 -1443633 -1426493 -1398124 -1354822 
3625.365 -1294801 -1219375 -1134748 -1052386 -988389 -959726 -979926 
3628.740 -1051394 -1163036 -1292257 -1415166 -1515422 -1586175 -1630344 
3632.115 -1656322 -1674113 -1691870 -1714313 -1741738 -1771241 -1798200 
3635.490 -1819384 -1833869 -1843767 -1852477 -1863299 -1878046 -1896092 
3638.866 -1914796 -1930993 -1941912 -1947124 -1947421 -1945211 -1941714 
3642.241 -1936700 -1928057 -1911662 -1883555 -1841028 -1783846 -1714808 
3645.616 -1638960 -1563329 -1495709 -1443964 -1414736 -1413085 -1441619 
3648.991 -1499572 -1582213 -1681210 -1784539 -1878706 -1953292 -2000656 
3652.367 -2018664 -2010353 -1982780 -1945177 -1907836 -1881543 -1874120 
3655.742 -1889329 -1925418 -1974996 -2027964 -2074595 -2108460 -2127420 
3659.117 -2133618 -2131343 -2125606 -2120660 -2118253 -2117825 -2116770 
3662.492 -2112219 -2101404 -2083103 -2056887 -2022259 -1978360 -1922384 
3665.868 -1851091 -1761902 -1653616 -1528761 -1391056 -1245179 -1092313 
3669.243 -928251 -740907 -511718 -222868 141604 591878 1132605 1765286 
3673.100 2484992 3275961 4095298 4865083 5479706 5822906 5819480 5463600 
3676.958 4814757 3966041 3011399 2036546 1106029 270888 -431555 -984356 
3680.815 -1390395 -1669426 -1850200 -1963352 -2033505 -2074958 -2094710 
3684.190 -2095073 -2076673 -2042772 -1998908 -1952368 -1911497 -1883060 
3687.566 -1871448 -1878046 -1901403 -1937624 -1982945 -2033703 -2087324 
3690.941 -2141861 -2195073 -2244653 -2287931 -2322571 -2346926 -2360602 
3694.316 -2364556 -2360800 -2351638 -2339774 -2326690 -2312848 -2297490 
3697.691 -2279131 -2256454 -2229819 -2201040 -2173875 -2153236 -2143609 
3701.067 -2147466 -2164413 -2190985 -2221908 -2251938 -2277022 -2295018 
3704.442 -2305070 -2307377 -2301873 -2287503 -2263606 -2229259 -2184820 
3707.817 -2131805 -2073672 -2015399 -1963418 -1923934 -1903514 -1907176 
3711.192 -1937690 -1993334 -2068593 -2153500 -2236939 -2308465 -2361162 
3714.568 -2392006 -2402024 -2395302 -2377079 -2352561 -2325372 -2297654 
3717.943 -2269638 -2240170 -2208128 -2173282 -2136388 -2099557 -2064867 
3721.318 -2034461 -2009264 -1989278 -1973610 -1961142 -1951544 -1944914 
3724.693 -1942802 -1947289 -1960219 -1981494 -2008539 -2035978 -2056425 
3728.069 -2062757 -2049269 -2013948 -1959493 -1892331 -1820737 -1754510 
3731.444 -1701343 -1664277 -1641898 -1630179 -1625096 -1625888 -1636748 
3734.819 -1664013 -1714247 -1788664 -1881708 -1981757 -2075683 -2153632 
3738.194 -2209842 -2243532 -2255695 -2247389 -2218183 -2167050 -2094051 
3741.570 -2002932 -1903085 -1810706 -1745797 -1728736 -1769888 -1861616 
3744.945 -1976249 -2079410 -2145752 -2164677 -2140510 -2085807 -2017147 
3748.320 -1949993 -1897378 -1868676 -1867126 -1892430 -1940790 -2007121 
3751.695 -2085279 -2167809 -2245905 -2311200 -2357043 -2380869 -2384427 
3755.071 -2372531 -2351045 -2326295 -2302796 -2283548 -2270067 -2263672 
3758.446 -2265782 -2278307 -2302236 -2336281 -2375761 -2413820 -2442124 
3761.821 -2454743 -2449603 -2428746 -2398168 -2365578 -2337731 -2319275 
3765.196 -2310640 -2308663 -2308003 -2305235 -2298775 -2290898 -2286119 
3768.572 -2290140 -2306883 -2337369 -2378034 -2422881 -2464692 -2497473 
3771.947 -2518030 -2526463 -2525475 -2518491 -2508641 -2498033 -2486272 
3775.322 -2471644 -2452436 -2427066 -2396784 -2365941 -2340203 -2326394 
3778.697 -2329591 -2350584 -2385152 -2425155 -2460937 -2484724 -2492400 
3782.073 -2484954 -2466801 -2444100 -2423310 -2408878 -2402749 -2404396 
3785.448 -2411349 -2421399 -2432140 -2442651 -2452634 -2462222 -2471183 
3788.823 -2479617 -2487293 -2494047 -2500010 -2504886 -2508015 -2508180 
3792.198 -2503930 -2493718 -2477574 -2456357 -2432503 -2409536 -2390458 
3795.573 -2376815 -2367391 -2357867 -2343169 -2317496 -2278142 -2225929 
3798.949 -2166259 -2108823 -2064669 -2045608 -2058898 -2103251 -2167875 
3802.324 -2235291 -2289382 -2318715 -2320725 -2300126 -2267265 -2234665 
3805.699 -2213930 -2213666 -2236115 -2275604 -2321450 -2362118 -2390029 
3809.074 -2402090 -2400179 -2387822 -2368840 -2344322 -2313607 -2274747 
3812.450 -2225764 -2167182 -2102954 -2040464 -1989838 -1960582 -1958141 
3815.825 -1979679 -2014475 -2046927 -2062592 -2053325 -2020082 -1971500 
3819.200 -1921460 -1886360 -1881873 -1916149 -1987332 -2081256 -2178128 
3822.575 -2258992 -2312684 -2337006 -2337105 -2322175 -2301412 -2282823 
3825.951 -2271121 -2266243 -2265353 -2263211 -2255333 -2238851 -2213699 
3829.326 -2181755 -2146477 -2111758 -2080597 -2054776 -2034527 -2018400 
3832.701 -2003856 -1988750 -1970675 -1948971 -1924132 -1898302 -1874846 
3836.076 -1857624 -1850299 -1855248 -1872701 -1900644 -1935117 -1971961 
3839.452 -2007715 -2040200 -2069187 -2095337 -2119375 -2142554 -2165864 
3842.827 -2189700 -2214491 -2239576 -2263870 -2285855 -2302664 -2311761 
3846.202 -2311168 -2299500 -2276329 -2241983 -2196359 -2138861 -2068626 
3849.577 -1984759 -1887943 -1782427 -1677117 -1586637 -1530577 -1528761 
3852.953 -1592678 -1717515 -1880058 -2046993 -2188579 -2289744 -2348574 
3856.328 -2372169 -2370818 -2353879 -2328338 -2297984 -2264430 -2228171 
3859.703 -2189535 -2149214 -2108262 -2067901 -2029514 -1994522 -1965200 
3863.078 -1944287 -1934655 -1938349 -1954216 -1977437 -1999832 -2012068 
3866.454 -2007352 -1984231 -1947750 -1907638 -1877056 -1869039 -1889329 
3869.829 -1935315 -1994423 -2051214 -2092534 -2113934 -2118517 -2115682 
3873.204 -2115813 -2126233 -2148785 -2178985 -2207930 -2225962 -2226589 
3876.579 -2207798 -2172556 -2126793 -2078124 -2034461 -2002536 -1986276 
3879.955 -1986606 -2000722 -2022094 -2042475 -2054875 -2054413 -2040694 
3883.330 -2018202 -1994753 -1980405 -1983670 -2008308 -2050654 -2100382 
3886.705 -2143609 -2168699 -2170479 -2150401 -2115253 -2074859 -2039936 
3890.080 -2018532 -2015036 -2028789 -2054809 -2086005 -2115583 -2138696 
3893.456 -2152577 -2155907 -2148291 -2129332 -2098997 -2058008 -2008440 
3896.831 -1953721 -1898269 -1847495 -1806020 -1777048 -1761572 -1758404 
3900.206 -1764278 -1776191 -1791403 -1808825 -1829480 -1855215 -1887580 
3903.581 -1927068 -1972258 -2019587 -2064240 -2102129 -2130255 -2148093 
3906.957 -2156533 -2157984 -2155082 -2149774 -2143378 -2136487 -2128904 
3910.332 -2120562 -2111395 -2101404 -2090489 -2077761 -2062394 -2043498 
3913.707 -2020676 -1995214 -1969850 -1948212 -1934028 -1930334 -1937393 
3917.082 -1953556 -1974897 -1996699 -2015366 -2028030 -2034230 -2034165 
3920.458 -2028954 -2019719 -2007715 -1994654 -1982054 -1972258 -1967476 
3923.833 -1968597 -1975194 -1985451 -1996039 -2003691 -2006494 -2003955 
3927.208 -1997457 -1989179 -1980933 -1974138 -1968762 -1964342 -1959955 
3930.583 -1956195 -1954216 -1956096 -1963913 -1978558 -1999172 -2023644 
3933.958 -2048477 -2070638 -2087917 -2099327 -2105064 -2106350 -2104339 
3937.334 -2100118 -2093919 -2086401 -2077200 -2066252 -2053886 -2040760 
3940.709 -2028030 -2017510 -2010650 -2009166 -2013915 -2024007 -2037726 
3944.084 -2051874 -2063218 -2068956 -2067604 -2059195 -2045641 -2030042 
3947.459 -2015300 -2004482 -1999073 -1999469 -2005043 -2014443 -2026085 
3950.835 -2038188 -2049533 -2058700 -2064406 -2066714 -2065494 -2061536 
3954.210 -2056260 -2051313 -2047653 -2045608 -2044586 -2043135 -2039837 
3957.585 -2033274 -2023182 -2010089 -1995445 -1980867 -1968201 -1959130 
3960.960 -1954183 -1953655 -1957052 -1963253 -1970477 -1977107 -1980966 
3964.336 -1980933 -1976348 -1967310 -1955271 -1941615 -1928321 -1916281 
3967.711 -1906813 -1899490 -1894046 -1889593 -1885799 -1882170 -1878970 
3971.086 -1876396 -1874648 -1873757 -1873724 -1874384 -1875275 -1876132 
3974.461 -1876462 -1876033 -1874714 -1872470 -1869600 -1866499 -1863266 
3977.837 -1859966 -1856700 -1852675 -1847627 -1841127 -1833308 -1824630 
3981.212 -1815985 -1808495 -1803051 -1800048 -1799421 -1800972 -1804107 
3984.587 -1808264 -1813511 -1819747 -1827171 -1835815 -1845713 -1856436 
3987.962 -1867522 -1878673 -1889032 -1897906 -1904966 -1909353 -1910871 
3991.338 -1909452 -1905164 -1898731 -1890681 -1881807 -1872701 -1863826 
3994.713 -1855776 -1848980 -1844559 -1843140 -1845713 -1852741 -1863860 
3998.088 -1877947 -1893815 -1909386 -1923241 -1934028 -1941252 
##END=
