
##TITLE=Z357a_3_e
##JCAMP-DX=5.01  $$ Nicolet v. 1
##DATATYPE=INFRARED SPECTRUM
##ORIGIN=UniL
##OWNER=Nicolet
##LONGDATE=2011/09/22
##TIME=09:41:45
##SPECTROMETER/DATA SYSTEM=Nicolet iS5
##DATA PROCESSING=
Ratio against background
%Transmittance->Absorbance
Truncated
ElementMultiply or ElementDivide
##COMMENTS=
Number of sample scans: 32
Collection length: 51.19 sec
Sample gain: 2.0
Background collected on: Jeu Sep 22 09:32:15 2011 (GMT+02:00);
Number of background scans: 32
Background gain: 2.0
Sample spacing:  1.000
Number of scan points: 12415
Resolution points: 8192
Number of FFT points: 65536
Apodization: N-B fort;
Phase correction: Mertz;
Laser frequency: 15798.0 cm-1
Number of rejected sample scans: 0
Number of rejected background scans: 0
Bench serial number: ASB1000141;
##RESOLUTION=4.000
##XUNITS=1/CM
##YUNITS=ABSORBANCE
##FIRSTX=649.893372
##LASTX=4000.122314
##FIRSTY=0.101041
##MAXX=4000.122314
##MINX=649.893372
##MAXY=0.312291
##MINY=-0.002863
##XFACTOR=1.000000
##YFACTOR=1.000000E-009
##NPOINTS=6950
##DELTAX=0.482117
##ZPD=6100
##XYDATA=(X++(Y..Y))
649.893 101041032 100606560 100193720 99841104 99570448 99385128 99279416 
653.268 99250680 99308688 99473648 99764640 100187872 100730264 101364584 
656.643 102065080 102824192 103659152 104608448 105713680 106995464 
659.536 108447056 110036712 111727608 113499120 115360328 117343184 
662.428 119487728 121818544 124334128 127011952 129829584 132778880 
665.321 135856064 139043264 142251872 145251952 147685344 149147104 
668.214 149385296 148453584 146654752 144357584 141826528 139200464 
671.107 136517632 133771496 130964576 128129840 125324416 122618760 
673.999 120064472 117682808 115468384 113401840 111468248 109663824 
676.892 107995080 106470600 105089864 103839696 102695392 101627160 
679.785 100609864 99625616 98663480 97716120 96775720 95831640 94874888 
683.159 93902392 92922304 91952648 91018664 90143800 89341152 88613200 
686.534 87950760 87338928 86762616 86210840 85677312 85157864 84647736 
689.909 84138288 83617592 83073592 82497232 81885536 81242784 80578368 
693.284 79905648 79237776 78588168 77970688 77398408 76884808 76441816 
696.659 76077568 75795112 75591824 75460728 75392336 75378112 75413104 
700.034 75495776 75627752 75811048 76045704 76328000 76650760 77005096 
703.408 77382168 77775656 78180456 78592936 79007632 79417240 79813768 
706.783 80190384 80545704 80884736 81219536 81568096 81949200 82385184 
710.158 82899760 83520144 84279880 85214264 86351968 87704928 89253648 
713.533 90937200 92648256 94256768 95622512 96625360 97198536 97335496 
716.908 97095392 96584264 95946680 95341632 94914008 94798632 95096368 
720.282 95863488 97102312 98744992 100652760 102605832 104342344 105600928 
723.657 106152880 105874872 104770024 102979224 100737408 98331720 96042640 
727.032 94068352 92519696 91413096 90696808 90283120 90081216 90023040 
730.407 90061160 90167736 90324280 90512264 90712040 90907008 91087640 
733.782 91255144 91418576 91590376 91778704 91984800 92203280 92428064 
737.156 92654856 92885656 93125616 93379560 93647416 93923376 94197000 
740.531 94458520 94704512 94938416 95169248 95405648 95652368 95907912 
743.906 96166792 96423424 96676520 96929976 97189464 97458144 97731640 
747.281 97996760 98236320 98436024 98589424 98701120 98785048 98857392 
750.656 98929120 99003776 99078200 99146720 99207376 99264432 99326808 
754.031 99404072 99500984 99615280 99738200 99860328 99975808 100085776 
757.405 100197272 100319352 100459048 100618968 100797128 100990528 
760.298 101198320 101422120 101666048 101932744 102221608 102528624 
763.191 102850464 103188688 103554880 103971688 104473944 105103960 
766.083 105904344 106914840 108160096 109638616 111308648 113080512 
768.976 114823976 116374128 117582464 118359848 118717200 118781752 
771.869 118778264 118976496 119583280 120677640 122146008 123704944 
774.762 124936704 125404016 124800480 123009808 120158800 116548376 
777.654 112589040 108669984 105063408 101916904 99237856 96943480 94905808 
781.029 93008040 91170240 89353888 87557960 85802768 84118704 82535656 
784.404 81081856 79784232 78664608 77740904 77024240 76517688 76219000 
787.779 76124552 76233688 76551400 77089128 77860792 78881264 80163520 
791.154 81719888 83565936 85723360 88219552 91085352 94342848 97993944 
794.528 102004688 106301104 110764104 115226208 119501600 123386992 
797.421 126686424 129253880 131008744 131969976 132256624 132090912 
800.314 131758096 131534088 131657448 132249384 133280096 134550336 
803.206 135720112 136384512 136124752 134645440 131841224 127831576 
806.099 122931128 117573640 112223904 107232784 102799032 98939280 95522920 
809.474 92331624 89138944 85793320 82237240 78517104 74743416 71056512 
812.849 67578816 64387440 61519120 58972420 56726144 54751480 53021724 
816.224 51514488 50208848 49085564 48126692 47316224 46642740 46100084 
819.598 45684420 45392876 45219948 45157920 45197996 45333544 45563148 
822.973 45891336 46329060 46890456 47587988 48430600 49418988 50543096 
826.348 51778104 53083164 54403236 55667100 56801888 57743532 58449436 
829.723 58915456 59180376 59329704 59476692 59754804 60299808 61217980 
833.098 62577284 64381064 66558696 68947328 71298760 73322880 74695040 
836.473 75135064 74472848 72673432 69862856 66288540 62288904 58202656 
839.847 54313972 50837040 47880600 45469688 43567192 42103604 40998808 
843.222 40175164 39570800 39134464 38825108 38613560 38478608 38408456 
846.597 38398172 38446464 38551024 38705740 38900188 39122172 39362552 
849.972 39617624 39890748 40190032 40524732 40901048 41320792 41781768 
853.347 42281432 42818712 43396348 44020108 44697428 45436244 46243764 
856.721 47129344 48105668 49189564 50403308 51772656 53323644 55084992 
860.096 57086764 59360208 61939072 64849988 68100240 71658448 75439360 
863.471 79295880 83008288 86323800 88982304 90749160 91476528 91118048 
866.846 89745712 87529504 84721672 81619480 78498720 75612376 73153608 
870.221 71238408 69926488 69220968 69085680 69453064 70234432 71328168 
873.596 72609824 73944656 75194080 76215008 76890184 77140144 76934640 
876.970 76300040 75312136 74085440 72741048 71396192 70144704 69039616 
880.345 68097872 67301448 66612424 65982988 65372156 64757712 64137912 
883.720 63531624 62968420 62481388 62094628 61818676 61651308 61582460 
887.095 61602084 61707368 61906172 62215480 62657116 63248664 63999480 
890.470 64907164 65959924 67140032 68428808 69811488 71277056 72816856 
893.844 74424072 76089688 77801104 79540904 81281176 82980528 84581744 
897.219 86004152 87153936 87935752 88261528 88076960 87370608 86180616 
900.594 84586464 82699128 80649136 78558744 76541440 74691032 73072752 
903.969 71730904 70688600 69951400 69513400 69361160 69479736 69854688 
907.344 70475136 71335232 72432216 73765520 75335264 77140776 79180840 
910.719 81453696 83954496 86674104 89593704 92681144 95893952 99179736 
914.093 102485616 105772864 109024640 112254064 115501536 118832928 
916.986 122325360 126047896 130050672 134341936 138874304 143523440 
919.879 148088432 152309072 155867152 158462000 159866480 159979968 
922.771 158882928 156843072 154311344 151818736 149935888 149195872 
925.664 149975376 152479680 156683296 162340416 168970992 175909504 
928.557 182433136 187768976 191248576 192414416 191024352 187093024 
931.450 180841232 172657824 163020960 152440368 141452912 130541952 
934.342 120124856 110554536 102067472 94808776 88841984 84158600 80709824 
937.717 78425280 77231408 77048656 77781960 79312224 81462008 83990960 
941.092 86620904 89027296 90902560 92010264 92200000 91448552 89847944 
944.467 87591728 84922352 82087960 79319744 76784432 74586016 72771096 
947.841 71336608 70250216 69463560 68928536 68599312 68435440 68404248 
951.216 68475200 68621120 68820392 69055616 69316488 69599744 69906408 
954.591 70239536 70601536 70992680 71411072 71854392 72320384 72808592 
957.966 73319232 73852232 74406336 74978552 75565488 76164904 76777520 
961.341 77406328 78055912 78729904 79429376 80151800 80892880 81648232 
964.716 82415344 83195088 83989952 84802624 85634408 86484136 87349664 
968.090 88229456 89124512 90038368 90976288 91942336 92937904 93960888 
971.465 95007736 96075424 97164016 98276992 99420240 100599376 101817536 
974.840 103074616 104368928 105699480 107068128 108480144 109942088 
977.733 111460192 113037392 114674440 116371400 118131496 119963880 
980.625 121884208 123911120 126062288 128351000 130782512 133354608 
983.518 136057152 138873584 141775632 144718560 147639776 150451040 
986.411 153043808 155309232 157141632 158463760 159239392 159476656 
989.304 159228160 158579744 157649872 156570096 155472384 154488928 
992.196 153727776 153269024 153162800 153424944 154045392 154996400 
995.089 156246240 157765248 159529600 161523648 163733232 166143008 
997.982 168736176 171492960 174394176 177423312 180561456 183783136 
1000.874 187052736 190315472 193504016 196548736 199382880 201962064 
1003.767 204268320 206312496 208129696 209774464 211318544 212838576 
1006.660 214418496 216142960 218082448 220291216 222797504 225601328 
1009.552 228679200 231992576 235501280 239166208 242953552 246832944 
1012.445 250767584 254714880 258629648 262467328 266194224 269788896 
1015.338 273234144 276505984 279558880 282314688 284674560 286528672 
1018.231 287779488 288371488 288301792 287629888 286464608 284964480 
1021.123 283322688 281734752 280405728 279517632 279203776 279550272 
1024.016 280578208 282252576 284489344 287179008 290205568 293446240 
1026.909 296784992 300104672 303272256 306152256 308606272 310504768 
1029.802 311752960 312291488 312097248 311176256 309551296 307257088 
1032.695 304335968 300845856 296859520 292454400 287709568 282688160 
1035.588 277427616 271945312 266245840 260335296 254234848 247985424 
1038.481 241644672 235285408 228981904 222808288 216839552 211139328 
1041.374 205759184 200725536 196025984 191600752 187340208 183109872 
1044.267 178760416 174165520 169255792 164025824 158542192 152921088 
1047.160 147318192 141893824 136786304 132112608 127947536 124326768 
1050.053 121253432 118703616 116635656 114996400 113732920 112795928 
1052.947 112140760 111731552 111533912 111509576 111615176 111794344 
1055.840 111979416 112101040 112087616 111876344 111422760 110700048 
1058.733 109705536 108460536 107012880 105433304 103807968 102239384 
1061.626 100828136 99664752 98827768 98370864 98324320 98696416 99473648 
1065.001 100622392 102086624 103795472 105655736 107558056 109393960 
1067.894 111054536 112448216 113513712 114215992 114548384 114524448 
1070.787 114170912 113519864 112603464 111454456 110103408 108579520 
1073.680 106914712 105142712 103303504 101448400 99634952 97929664 96403976 
1077.055 95120736 94133496 93478864 93170832 93202976 93547824 94162592 
1080.431 94985800 95940888 96943024 97893968 98697624 99275296 99573360 
1083.806 99582232 99339808 98934032 98486032 98134544 98027200 98289584 
1087.181 99020264 100282328 102092152 104419616 107181888 110257384 
1090.074 113480360 116657504 119604008 122145000 124147072 125535072 
1092.967 126286464 126429856 126028088 125170336 123952856 122467576 
1095.860 120804352 119040728 117243136 115472616 113777832 112196312 
1098.753 110749904 109436720 108226664 107056504 105840752 104474368 
1101.646 102851224 100891872 98553048 95844824 92827232 89608520 86324928 
1105.022 83113632 80111360 77429216 75144760 73308640 71940880 71037976 
1108.397 70579440 70533400 70860736 71514824 72446976 73603688 74923904 
1111.772 76343960 77791032 79183496 80442088 81487232 82250216 82685416 
1115.147 82769440 82506048 81920872 81058616 79974752 78725616 77369376 
1118.523 75956464 74526536 73110824 71728592 70389992 69100488 67862632 
1121.898 66680060 65559076 64506508 63529088 62629640 61805080 61047328 
1125.273 60345072 59690096 59080524 58525788 58044852 57665500 57417804 
1128.648 57326104 57406228 57659900 58074920 58624340 59270416 59967892 
1132.024 60663292 61304624 61844928 62247984 62497648 62600204 62586008 
1135.399 62501632 62404988 62355376 62399136 62566796 62866464 63283928 
1138.774 63782528 64308860 64801864 65192976 65418064 65426276 65178840 
1142.149 64656184 63856056 62791260 61485184 59969036 58281616 56463772 
1145.525 54559232 52614568 50671948 48770600 46943836 45214396 43597304 
1148.900 42099552 40721780 39461928 38317028 37284516 36362600 35549600 
1152.275 34843304 34240640 33738572 33334564 33027202 32816172 32701478 
1155.650 32682546 32757572 32924068 33179712 33523902 33957964 34485940 
1159.026 35111824 35839360 36669696 37601268 38629568 39747300 40945356 
1162.401 42209816 43521444 44855780 46180156 47457424 48650132 49720084 
1165.776 50634084 51365772 51893992 52206488 52298712 52175844 51851612 
1169.151 51348392 50696000 49926072 49071392 48163712 47229588 46293560 
1172.527 45378160 44502900 43687580 42950556 42307180 41770420 41349436 
1175.902 41049680 40875124 40828676 40913280 41132760 41491264 41992600 
1179.277 42640776 43440324 44397300 45520536 46820444 48308520 49996184 
1182.652 51891640 54000636 56324816 58862216 61603764 64529688 67606880 
1186.028 70779104 73967168 77076352 79991280 82594520 84780352 86454736 
1189.403 87553056 88044000 87930560 87249840 86068896 84481072 82588032 
1192.778 80496128 78309440 76113376 73979624 71960856 70088088 68376096 
1196.153 66825152 65425112 64158888 63006072 61946216 60958064 60020960 
1199.529 59115260 58219816 57314004 56378992 55398328 54362184 53269816 
1202.904 52131088 50965568 49800196 48666736 47593972 46606036 45719132 
1206.279 44940032 44268096 43697400 43220296 42827780 42511616 42264376 
1209.654 42078452 41946652 41863488 41825512 41832948 41889652 42002856 
1213.030 42180676 42430904 42760392 43173156 43671896 44256796 44926032 
1216.405 45675176 46495868 47377044 48305300 49266456 50249016 51244360 
1219.780 52247368 53256552 54272672 55298624 56339680 57405244 58509524 
1223.155 59669760 60906632 62239684 63683376 65245448 66924208 68709144 
1226.531 70579704 72508328 74459160 76387256 78244280 79977576 81534600 
1229.906 82873088 83960408 84779944 85333056 85640304 85743104 85699912 
1233.281 85592520 85518408 85580744 85892448 86558336 87667656 89296704 
1236.656 91498864 94307816 97740072 101795120 106456208 111683984 117419472 
1240.031 123575576 130034536 136665024 143314880 149820176 156024704 
1242.925 161766336 166889536 171259920 174760240 177307776 178860240 
1245.818 179413792 178999808 177674048 175517312 172623744 169096864 
1248.711 165049696 160585024 155785744 150707312 145369456 139764336 
1251.604 133870648 127676312 121195048 114481144 107624912 100752992 
1254.497 94012688 87542272 81472680 75904408 70895576 66468948 62608352 
1257.872 59269276 56384156 53874732 51662432 49667216 47821116 46069872 
1261.247 44372600 42706244 41062172 39443060 37858272 36320448 34842692 
1264.623 33435360 32107524 30866154 29716160 28660870 27699980 26830132 
1267.998 26044338 25333860 24690964 24109886 23588670 23128322 22731128 
1271.373 22399356 22133420 21933122 21798482 21730758 21733476 21810466 
1274.748 21964560 22194368 22493320 22847968 23238278 23640588 24026534 
1278.124 24365086 24627662 24788300 24829066 24744942 24543964 24246298 
1281.499 23878568 23469636 23042396 22610130 22177876 21744414 21308494 
1284.874 20872944 20446894 20044962 19684828 19381396 19145900 18985190 
1288.249 18902398 18899768 18979996 19145864 19399030 19738260 20158582 
1291.625 20650886 21202576 21799316 22422488 23049700 23655142 24208250 
1295.000 24680124 25048920 25303830 25450030 25507408 25508954 25490894 
1298.375 25489628 25537206 25656526 25863894 26167844 26568302 27054212 
1301.750 27601002 28172522 28719414 29187646 29528828 29702856 29687530 
1305.125 29479250 29091550 28551408 27893382 27158956 26389222 25623310 
1308.501 24897482 24238834 23665080 23183750 22793244 22485924 22252818 
1311.876 22087154 21985472 21946992 21971182 22056266 22198242 22392694 
1315.251 22635856 22927182 23268026 23659972 24102356 24590210 25114458 
1318.626 25664610 26232144 26812298 27405226 28012288 28632908 29261182 
1322.002 29883840 30480658 31029650 31509072 31902824 32204610 32419770 
1325.377 32567602 32678402 32794554 32962960 33225886 33616440 34147256 
1328.752 34808084 35565244 36370812 37174304 37930400 38611536 39209744 
1332.127 39734336 40205880 40650024 41092984 41555980 42056368 42607476 
1335.503 43217076 43887904 44615868 45391328 46198948 47021148 47841608 
1338.878 48645724 49422588 50164068 50864416 51519972 52129140 52693228 
1342.253 53215016 53697604 54141512 54543152 54893428 55179380 55388200 
1345.628 55510624 55542672 55485776 55343032 55114560 54793124 54363160 
1349.004 53803168 53093796 52224012 51199096 50043104 48800704 47529908 
1352.379 46293596 45158804 44183644 43414800 42886000 42611060 42582844 
1355.754 42770848 43126496 43587084 44083772 44557488 44960096 45260212 
1359.129 45445260 45517632 45493824 45401260 45281504 45188288 45180052 
1362.505 45318352 45650152 46196924 46949448 47868428 48893692 49948300 
1365.880 50953236 51830632 52503688 52911488 53011204 52786052 52248748 
1369.255 51439248 50417972 49248980 47997708 46722060 45467260 44274880 
1372.630 43184464 42234792 41467348 40917356 40605200 40530664 40672876 
1376.006 40999500 41475076 42074728 42788800 43623204 44597292 45740444 
1379.381 47092116 48696164 50600460 52847080 55452460 58385188 61539320 
1382.756 64740784 67737680 70238640 71971728 72694040 72249472 70599864 
1386.131 67855696 64281084 60243772 56171240 52422328 49226488 46678748 
1389.507 44753804 43359988 42377568 41695684 41218768 40868500 40586608 
1392.882 40325916 40051172 39743088 39397380 39025740 38648148 38285724 
1396.257 37952276 37651240 37379088 37129620 36900500 36696992 36531964 
1399.632 36422264 36385224 36431524 36564904 36782780 37078372 37443476 
1403.008 37870020 38351916 38885656 39468896 40099976 40776264 41493560 
1406.383 42246920 43031840 43846480 44691920 45570800 46485540 47436320 
1409.758 48419744 49430648 50463520 51513444 52575184 53639304 54685932 
1413.133 55685216 56599444 57390688 58035952 58534852 58914468 59221388 
1416.509 59515832 59859680 60302812 60880904 61607280 62471900 63443572 
1419.884 64477524 65526476 66546724 67504800 68382688 69178224 69912048 
1423.259 70625360 71378000 72227832 73215168 74350576 75613792 76965696 
1426.634 78361504 79767064 81158776 82522592 83850872 85138600 86384712 
1430.010 87595536 88791864 90009256 91289120 92674504 94196672 95872008 
1433.385 97704960 99698896 101867432 104236904 106845472 109725416 112884440 
1436.760 116285728 119857896 123521456 127206592 130856632 134407264 
1439.653 137776496 140836432 143417120 145344224 146443760 146584112 
1442.546 145698720 143783472 140901152 137167312 132754456 127865744 
1445.439 122707224 117491600 112405680 107609712 103247064 99422576 96193088 
1448.814 93554272 91447168 89778760 88454184 87412296 86636320 86152048 
1452.190 86002008 86219448 86800408 87702208 88842344 90116400 91421280 
1455.565 92653008 93736712 94645456 95421704 96159720 96964768 97930368 
1458.940 99110880 100532800 102207480 104131896 106287568 108630152 
1461.833 111093992 113574992 115928024 117993608 119606320 120648592 
1464.726 121095456 121031184 120620208 120038096 119437512 118913656 
1467.619 118508000 118229016 118060048 117963952 117871456 117676248 
1470.512 117233104 116364984 114920792 112835112 110183080 107168752 
1473.406 104055520 101073736 98356280 95956840 93886104 92148672 90766344 
1476.781 89769832 89175816 88972544 89112144 89525576 90136704 90885520 
1480.156 91741208 92701208 93787696 95033880 96476920 98150744 100089864 
1483.531 102337848 104947368 107976304 111470688 115442496 119838720 
1486.424 124514912 129247008 133712616 137519456 140268976 141571728 
1489.317 141139728 138868640 134880096 129518464 123247384 116556312 
1492.210 109828200 103293504 97072352 91189656 85637280 80431128 75623336 
1495.586 71311336 67614312 64627268 62386704 60859596 59970328 59624068 
1498.961 59734808 60238176 61084012 62230052 63636796 65257772 67040340 
1502.336 68929000 70849424 72708728 74387656 75706752 76432856 76294032 
1505.711 75039912 72574936 69058608 64886884 60506152 56244172 52247516 
1509.087 48527772 45046540 41772792 38699108 35851308 33268846 30981074 
1512.462 29000930 27318346 25908100 24738978 23779582 23000052 22367018 
1515.837 21845934 21406888 21030042 20714826 20475618 20331948 20293930 
1519.212 20354728 20486942 20653212 20817914 20966612 21114598 21299726 
1522.588 21559512 21909458 22343330 22839514 23377420 23944878 24545298 
1525.963 25194156 25910844 26707494 27582748 28526214 29524502 30570308 
1529.338 31665608 32821496 34053820 35376344 36798644 38321336 39934372 
1532.713 41618404 43345124 45083368 46805532 48495056 50144432 51750740 
1536.089 53306524 54797484 56205704 57502180 58654564 59628552 60389048 
1539.464 60902860 61145460 61114220 60833180 60351200 59727276 59008400 
1542.839 58216444 57344064 56367712 55266412 54045812 52745380 51430632 
1546.214 50166744 48987448 47890328 46839556 45789008 44704552 43587232 
1549.590 42474128 41427800 40503272 39724352 39080300 38536176 38054544 
1552.965 37611852 37210076 36871176 36622616 36478084 36426628 36430804 
1556.340 36436500 36371824 36150736 35688072 34920392 33856976 32603960 
1559.715 31327196 30169732 29199128 28415972 27781110 27243124 26750202 
1563.091 26260090 25746520 25204936 24653190 24124668 23654374 23261766 
1566.466 22945172 22682250 22441608 22192208 21913780 21604642 21280620 
1569.841 20968420 20692480 20469574 20305388 20198880 20145600 20138660 
1573.216 20167848 20215472 20257130 20265530 20217554 20108882 19959610 
1576.592 19810700 19701992 19656574 19675330 19744362 19845384 19964640 
1579.967 20097292 20246124 20417930 20618502 20848922 21104786 21378450 
1583.342 21660748 21942532 22214176 22462544 22671184 22822402 22900006 
1586.717 22896514 22817408 22682878 22524448 22379506 22286404 22274860 
1590.093 22365622 22570132 22890016 23316688 23827672 24387026 24941100 
1593.468 25424208 25773382 25933142 25871770 25587918 25110876 24493024 
1596.843 23794842 23078630 22394438 21778346 21256890 20846940 20558258 
1600.218 20394314 20351776 20421438 20590532 20847776 21183684 21591618 
1603.594 22064562 22590478 23148240 23709590 24237258 24690996 25034704 
1606.969 25236470 25274994 25140614 24834222 24365332 23750428 23014272 
1610.344 22188478 21312462 20432864 19593170 18827202 18154714 17576516 
1613.719 17079824 16642055 16238604 15846146 15448172 15040991 14634707 
1617.094 14251536 13917386 13654503 13474484 13376711 13351255 13380914 
1620.470 13445365 13524045 13601748 13672010 13738899 13814417 13912083 
1623.845 14041733 14205178 14398653 14616955 14856522 15115947 15393482 
1627.220 15684761 15979985 16266912 16534960 16780204 17007804 17229042 
1630.595 17457292 17701398 17962908 18234218 18501824 18749770 18960372 
1633.971 19117576 19207610 19221464 19157916 19027802 18852116 18655230 
1637.346 18457360 18269258 18090942 17914218 17726074 17514726 17273964 
1640.721 17007322 16726894 16450400 16193202 15962282 15754949 15558534 
1644.096 15355068 15124799 14852476 14531430 14166699 13775561 13383716 
1647.472 13020391 12710454 12471352 12311660 12230916 12220215 12260430 
1650.847 12322125 12359248 12313058 12132093 11801749 11372052 10933776 
1654.222 10566180 10297718 10115455 9988802 9888928 9797077 9704466 9610925 
1658.080 9520114 9435994 9359337 9287467 9214661 9134424 9040634 8927957 
1661.937 8792892 8635358 8459873 8276252 8099056 7943966 7822263 7739650 
1665.794 7693005 7671757 7659415 7636888 7587758 7501414 7376464 7220993 
1669.652 7049749 6878135 6718669 6580286 6466766 6378225 6310141 6253564 
1673.509 6193297 6111128 5991919 5830965 5640329 5444374 5271046 5137851 
1677.367 5047937 4991658 4954053 4921814 4888974 4859587 4844376 4855466 
1681.224 4897485 4963538 5031813 5070531 5045021 4932806 4739616 4502250 
1685.082 4270735 4079845 3941866 3849492 3788120 3742732 3702429 3660659 
1688.939 3613647 3559692 3499698 3437641 3381270 3340599 3326041 3343871 
1692.796 3393024 3463357 3537377 3592899 3609504 3579836 3515296 3443853 
1696.654 3394260 3383540 3410022 3457012 3496357 3495756 3430527 3294557 
1700.511 3110003 2916754 2753434 2638277 2570676 2538613 2525782 2516851 
1704.369 2497855 2459833 2400256 2323766 2239595 2158837 2089980 2036680 
1708.226 1997932 1969240 1945941 1924541 1905172 1890928 1887334 1898682 
1712.083 1927137 1971237 2027092 2089913 2155474 2221044 2284593 2341988 
1715.941 2385997 2405587 2389695 2333026 2241294 2131299 2023497 1935623 
1719.798 1877317 1848866 1845339 1859348 1884738 1917419 1955660 1998864 
1723.656 2046434 2096772 2147882 2198265 2247922 2298416 2351282 2406820 
1727.513 2462398 2512785 2552311 2577376 2589142 2592842 2596408 2605475 
1731.371 2618942 2626942 2610075 2545612 2415083 2218213 1978160 1735611 
1735.228 1529007 1378141 1283885 1234371 1213638 1205198 1196792 1180179 
1739.085 1152471 1115563 1075104 1038335 1011101 997219 997418 1009972 
1742.943 1031028 1056537 1083574 1111577 1142505 1179814 1226796 1283885 
1746.800 1348393 1414241 1473715 1520096 1548227 1555443 1540945 1504602 
1750.658 1446686 1370097 1280761 1188220 1103671 1037272 994164 974172 
1754.515 970320 971980 966766 945182 904572 849558 790535 737460 696638 
1758.855 668231 646661 623765 591613 545231 483694 410326 331168 253814 
1763.194 184894 129639 91625 72205 70017 80655 97193 111278 116581 111344 
1768.016 99645 89736 89537 103257 127717 154034 169082 161889 128081 73331 
1772.838 10603 -46186 -87166 -110686 -120293 -121220 -117311 -109129 -95448 
1777.177 -74545 -47047 -16765 10603 29059 35554 31080 20609 10669 6328 9443 
1782.481 18157 28496 36482 39596 37343 30848 22366 13783 7190 5367 11530 
1787.785 29523 61965 108858 166033 225204 274933 303680 303580 272646 216551 
1792.607 145681 72602 6229 -48869 -92666 -126818 -153847 -175177 -192234 
1796.947 -205912 -217536 -228664 -240221 -252474 -265256 -277574 -289528 
1800.804 -301713 -315586 -331975 -350979 -370280 -386502 -396797 -398816 
1804.662 -392626 -380410 -365083 -348794 -332703 -316050 -297441 -276283 
1808.519 -253202 -230419 -210813 -196341 -187564 -183490 -181900 -181271 
1812.376 -180741 -180443 -180443 -180145 -177694 -170441 -156165 -134072 
1816.234 -105353 -72955 -40388 -9774 18621 45826 73563 102860 133219 164077 
1821.056 194440 224640 256201 290715 328449 367645 404456 434670 456495 
1825.395 471853 485851 505123 533852 571706 613213 649150 670819 673208 
1829.735 658076 633686 611820 602595 610924 636142 673839 719173 768029 
1834.074 819382 873628 931368 992570 1055706 1118918 1181077 1243244 1308544 
1838.414 1381798 1467165 1567813 1685049 1818054 1965445 2125373 2295152 
1842.271 2470696 2646577 2815860 2972164 3112773 3238905 3355391 3468100 
1846.129 3580304 3691368 3796644 3889073 3962095 4011352 4035698 4036501 
1849.986 4016268 3976307 3915987 3833814 3729030 3603022 3460452 3307811 
1853.844 3151753 2996852 2844442 2693618 2542580 2391261 2241660 2097637 
1857.701 1962616 1838018 1722238 1611943 1503372 1394961 1287540 1184764 
1861.559 1090550 1007581 936415 876151 826021 786419 759134 746322 748214 
1865.898 761756 780742 796045 800161 789074 763714 729959 694846 665012 
1870.238 642977 628078 618721 612948 610360 611421 615337 619816 620115 
1874.577 611256 588826 552331 503962 448800 392418 338165 286770 236608 
1878.917 185656 133053 80324 30086 -14910 -53640 -87431 -119928 -153416 
1883.257 -189949 -228200 -265653 -299395 -328068 -351741 -372333 -391699 
1887.114 -410038 -427020 -441452 -452871 -462735 -473194 -485804 -499671 
1890.971 -511420 -515094 -505893 -481733 -445523 -403981 -366142 -338729 
1894.829 -324857 -322936 -327505 -332703 -335153 -333531 -328797 -322009 
1898.686 -311878 -295786 -270587 -234558 -189717 -140598 -93957 -54833 
1902.544 -25413 -4506 11199 24685 37177 47682 54011 54906 51327 46489 43871 
1907.848 45197 48941 50830 45429 29854 4373 -26870 -57815 -83224 -100848 
1912.669 -111547 -117874 -121816 -123572 -121816 -115655 -105552 -96243 
1916.527 -93692 -103962 -128905 -164379 -201043 -228763 -240453 -235817 
1920.384 -220219 -203627 -194817 -199056 -216609 -243069 -273104 -302507 
1924.242 -329757 -356309 -383522 -411197 -437347 -459226 -475213 -486234 
1928.099 -496196 -508673 -525850 -545970 -563641 -572278 -567480 -548551 
1931.957 -519826 -488286 -460219 -438804 -424901 -415732 -409774 -407059 
1935.814 -409310 -418413 -434865 -454626 -471374 -479052 -474121 -458664 
1939.671 -439267 -424934 -422816 -435692 -460484 -490040 -517940 -538458 
1943.529 -550570 -555666 -555104 -549015 -535678 -513075 -481435 -443670 
1947.386 -405338 -371240 -343993 -321579 -298302 -269395 -231942 -187829 
1951.244 -143943 -107208 -82661 -70470 -66892 -66362 -66064 -65501 -68681 
1955.583 -80640 -104194 -137650 -175839 -210913 -237506 -253699 -262673 
1959.441 -268766 -276978 -289097 -302971 -314858 -322671 -324890 -322638 
1963.298 -316480 -306083 -290091 -266945 -238433 -210350 -190843 -187431 
1967.156 -202169 -230021 -259262 -275753 -271547 -247606 -213562 -184947 
1971.013 -175376 -190015 -224358 -266017 -300289 -317705 -315586 -297806 
1974.870 -269958 -234293 -187730 -124069 -39924 62892 172264 270789 343371 
1979.210 380943 383165 357961 314323 259715 198219 130899 58684 -12590 
1983.550 -74611 -118537 -138014 -134006 -114463 -90479 -70834 -58742 -48869 
1987.889 -30846 3114 56464 122977 190496 245194 277917 286604 278481 264026 
1992.711 252886 251560 260942 278348 301193 327620 357132 388007 417291 
1997.051 439148 448435 442962 425152 402831 385818 380479 389267 406977 
2001.390 425218 435500 434637 425118 413975 408436 412084 423195 436097 
2005.730 443891 442996 434372 422697 411753 402964 393346 379019 357099 
2010.069 329941 303879 287035 285046 297048 316379 333257 340419 336142 
2014.409 326592 321154 328316 351561 386481 423825 454472 474208 484623 
2018.749 493115 506782 529075 559795 593670 625689 654957 683430 715688 
2023.088 756412 804908 856597 904672 943588 971017 989647 1004060 1016714 
2027.428 1028006 1033652 1027807 1009108 980681 949698 925591 915463 920842 
2031.767 939205 965969 998547 1039464 1094636 1168684 1262218 1367870 
2035.625 1471986 1561162 1625712 1664559 1685847 1702179 1724234 1758599 
2039.482 1804945 1857218 1908666 1954828 1993505 2025494 2050895 2067674 
2043.340 2072368 2061748 2035348 1997998 1958323 1926005 1909664 1913026 
2047.197 1935690 1972768 2019769 2071069 2122376 2169160 2204926 2222876 
2051.054 2218746 2191838 2147582 2096705 2052859 2027725 2026460 2046766 
2054.912 2080291 2116316 2147083 2170725 2191072 2214284 2245190 2283893 
2058.769 2326331 2365541 2396158 2416516 2429010 2438707 2450569 2465664 
2062.627 2482159 2496288 2504820 2507153 2506186 2505220 2506419 2509919 
2066.484 2510919 2503620 2483725 2450069 2404821 2353714 2302214 2254649 
2070.342 2213018 2177685 2148415 2126039 2111788 2106061 2108458 2115417 
2074.199 2121976 2124374 2120844 2113120 2105861 2104629 2112487 2129801 
2078.056 2153076 2177219 2198265 2214450 2225807 2235299 2244957 2255549 
2081.914 2266873 2277598 2286858 2294885 2302647 2310541 2318170 2323433 
2085.771 2323300 2316004 2302014 2283261 2263742 2246389 2231568 2217115 
2089.629 2199264 2174688 2142587 2106361 2071369 2044070 2028823 2026526 
2093.486 2034915 2050795 2070903 2094441 2122176 2155074 2192537 2232334 
2097.344 2269704 2300248 2321967 2335458 2343787 2350882 2359344 2370072 
2101.201 2381566 2392460 2402322 2413084 2427878 2449703 2478993 2514151 
2105.058 2550978 2585709 2616142 2643310 2670247 2701619 2739763 2785113 
2108.916 2836137 2890536 2946410 3004192 3064686 3128591 3194910 3260471 
2112.773 3320298 3370484 3408853 3436405 3456744 3474045 3491714 3511188 
2116.631 3532266 3554380 3577732 3604292 3636768 3677600 3726791 3781201 
2120.488 3836454 3886666 3927555 3957882 3978948 3993628 4005433 4017739 
2124.345 4032655 4052554 4079946 4116638 4163872 4220244 4280874 4339102 
2128.203 4387129 4419362 4434593 4436200 4430375 4425455 4428266 4442426 
2132.060 4469207 4508611 4559336 4620548 4690813 4765711 4839283 4902981 
2135.918 4949630 4975470 4982340 4976542 4968163 4964577 4969336 4980664 
2139.775 4994004 5003724 5008082 5009724 5013478 5023701 5041467 5061379 
2143.633 5074989 5073917 5053468 5014852 4964879 4912263 4864178 4823100 
2147.490 4786716 4751072 4713053 4673095 4634346 4601795 4577417 4558900 
2151.347 4539480 4510084 4463181 4394292 4303997 4195018 4071149 3936851 
2155.205 3796142 3655479 3526554 3423915 3365041 3362670 3419072 3521877 
2159.062 3648596 3772612 3870753 3933607 3962329 3967345 3961527 3955174 
2162.920 3953368 3957414 3965105 3973765 3982292 3988646 3989682 3982392 
2166.777 3962396 3925683 3872291 3804599 3727927 3648429 3571418 3498461 
2170.635 3429759 3363906 3299431 3237236 3179990 3129292 3087344 3053608 
2174.492 3025246 2999622 2973765 2946043 2916420 2884766 2850345 2812525 
2178.349 2771074 2726326 2681382 2640610 2607409 2584776 2572276 2566443 
2182.207 2563410 2559877 2554311 2547912 2542513 2539413 2538447 2538080 
2186.064 2536447 2533414 2530815 2532148 2540380 2556844 2578776 2601308 
2189.922 2620342 2632576 2639510 2645077 2654611 2671714 2696551 2725025 
2193.779 2751200 2770240 2779877 2782145 2781778 2785546 2797918 2821763 
2197.636 2857049 2901743 2952481 3006161 3058312 3105264 3142575 3167507 
2201.494 3178855 3178922 3171478 3161633 3153522 3148316 3143877 3137569 
2205.351 3125955 3108534 3088011 3068356 3053541 3045199 3041829 3038759 
2209.209 3032686 3021509 3006094 2991081 2980772 2977102 2980371 2987110 
2213.066 2993116 2996786 2998654 3001724 3010098 3025746 3046834 3069257 
2216.924 3087310 3096387 3095753 3088078 3076966 3066888 3059480 3053774 
2220.781 3047735 3039560 3029150 3018639 3011666 3010231 3014802 3023377 
2224.638 3031218 3034622 3030884 3019540 3002624 2982573 2962123 2943574 
2228.496 2929130 2919956 2918422 2925494 2941039 2962489 2985976 3005827 
2232.353 3018139 3021542 3017138 3009164 3002124 2999355 3002191 3010498 
2236.211 3022910 3038892 3059147 3085141 3117879 3156159 3196812 3234833 
2240.068 3265912 3287345 3299565 3305407 3308846 3312719 3318295 3325240 
2243.926 3332686 3340699 3351317 3367445 3391822 3425284 3465796 3508583 
2247.783 3548167 3580237 3602855 3617189 3625809 3631355 3636066 3640276 
2251.640 3643952 3647961 3654109 3665437 3685152 3713824 3749417 3786817 
2255.498 3819507 3840466 3846149 3835552 3810649 3775753 3735413 3693707 
2259.355 3653742 3617957 3588222 3566574 3554280 3551474 3557554 3570182 
2263.213 3586785 3605094 3623871 3642047 3660224 3677867 3693740 3706606 
2267.070 3714593 3716698 3713290 3706205 3697851 3690933 3687759 3689028 
2270.927 3694810 3704233 3716197 3729565 3742766 3754697 3764290 3770941 
2274.785 3774884 3777224 3779631 3783675 3790360 3799317 3808911 3817267 
2278.642 3822649 3823886 3821747 3817468 3812822 3809546 3808744 3810816 
2282.500 3816499 3826025 3840098 3859253 3883457 3911808 3942969 3974869 
2286.357 4006101 4035899 4064427 4092522 4120652 4149420 4178357 4206962 
2290.215 4234732 4261667 4288704 4316981 4348105 4383581 4424049 4470345 
2294.072 4522070 4578890 4640206 4704445 4770100 4835229 4898256 4958243 
2297.929 5015556 5071302 5127021 5184055 5242438 5301298 5358959 5413709 
2301.787 5464841 5513195 5561084 5611328 5666949 5729727 5800037 5877512 
2305.644 5960846 6048865 6141070 6237160 6337205 6441510 6550011 6662375 
2309.502 6778504 6897761 7019408 7142335 7264893 7384957 7500808 7611057 
2313.359 7715871 7816595 7916262 8017841 8124948 8240557 8366060 8502209 
2317.217 8648405 8803103 8964183 9128671 9293561 9455769 9612755 9762002 
2321.074 9901776 10029896 10143911 10240958 10318313 10374336 10409562 
2324.449 10427549 10434202 10438104 10447574 10469941 10509996 10569133 
2327.824 10645324 10733789 10828047 10920967 11006191 11079060 11136541 
2331.200 11178391 11207086 11227215 11244725 11265740 11295189 11335524 
2334.575 11387052 11447500 11514046 11583904 11655338 11728009 11802191 
2337.950 11877883 11954305 12029104 12099215 12161636 12214319 12256511 
2341.325 12288447 12309955 12318955 12310228 12273825 12196735 12065623 
2344.701 11869472 11605717 11283491 10925859 10566077 10242925 9996329 
2348.076 9857270 9846254 9970561 10224471 10589708 11037084 11535108 
2351.451 12049509 12551049 13020698 13448270 13831759 14173785 14478670 
2354.826 14749764 14990125 15203337 15393824 15566914 15727704 15878417 
2358.202 16018970 16146053 16255906 16345831 16415093 16464956 16497720 
2361.577 16515514 16518509 16506290 16477518 16431885 16370500 16295189 
2364.952 16207889 16109945 16000886 15879516 15744643 15595523 15433030 
2368.327 15258244 15072207 14875209 14666304 14444312 14208841 13961386 
2371.703 13705146 13444545 13184305 12928011 12676917 12431117 12189305 
2375.078 11950354 11713814 11480295 11251628 11030287 10818977 10620537 
2378.453 10438104 10274443 10131937 10011857 9914183 9837137 9778167 9734114 
2382.311 9702195 9680816 9669534 9668144 9676547 9693488 9716630 9742958 
2386.168 9769356 9793790 9815412 9833917 9849711 9862253 9870557 9873133 
2390.025 9868354 9855711 9835544 9809549 9779522 9747261 9714055 9680477 
2393.883 9647377 9615532 9586468 9562113 9543891 9532646 9528175 9529666 
2397.740 9536033 9547345 9564383 9588670 9622104 9666011 9720831 9786096 
2401.598 9860659 9943168 10032812 10128715 10230238 10336840 10447743 
2404.973 10562513 10681218 10805015 10935510 11074234 11222556 11380147 
2408.348 11545996 11718308 11895626 12077274 12263498 12454780 12651263 
2411.723 12851725 13053203 13251870 13443178 13624005 13791739 13945338 
2415.099 14084308 14208157 14316219 14406942 14479288 14532766 14567509 
2418.474 14585156 14587828 14577960 14558361 14531464 14499877 14466715 
2421.849 14434173 14404408 14378617 14357109 14339677 14326629 14318924 
2425.224 14319027 14330123 14355499 14397763 14457603 14534068 14624665 
2428.600 14727348 14841025 14966152 15104283 15257626 15427881 15615238 
2431.975 15818827 16036401 16266087 16505739 16754098 17010560 17274620 
2435.350 17546258 17825420 18112636 18408684 18714658 19031714 19360506 
2438.725 19701158 20053116 20415916 20789274 21173316 21568496 21975886 
2442.101 22395624 22827152 23269386 23720578 24179628 24645406 25117478 
2445.476 25595650 26079346 26567384 27058760 27552030 28046078 28540544 
2448.851 29034724 29527518 30017282 30501346 30976874 31441062 31892448 
2452.226 32330274 32754608 33165618 33562204 33942632 34303780 34642084 
2455.602 34954076 35236500 35487032 35702784 35881140 36018416 36110908 
2458.977 36155164 36148360 36088764 35975976 35810428 35593832 35328576 
2462.352 35018040 34667096 34281444 33867368 33432032 32982084 32523640 
2465.727 32062966 31606202 31160312 30733586 30334780 29972194 29653188 
2469.103 29381780 29159368 28984352 28853280 28762250 28707910 28688266 
2472.478 28701716 28746992 28821554 28921874 29042412 29177830 29322044 
2475.853 29470386 29619098 29765234 29907088 30042954 30171154 30290190 
2479.228 30398278 30493064 30572406 30633558 30674198 30692334 30686574 
2482.604 30657344 30605540 30533870 30445118 30342704 30229868 30109854 
2485.979 29985650 29860024 29735676 29614556 29497266 29383586 29271356 
2489.354 29157384 29038514 28911392 28773544 28623988 28462810 28290766 
2492.729 28109596 27920586 27724704 27522236 27312490 27093532 26862912 
2496.104 26617828 26355634 26075194 25777002 25463030 25137384 24804998 
2499.480 24470484 24137592 23809262 23486424 23169420 22857606 22550586 
2502.855 22247796 21949014 21654340 21364318 21080056 20803280 20536164 
2506.230 20281120 20040278 19814516 19603570 19405268 19217274 19036594 
2509.605 18861182 18690060 18523398 18362124 18207508 18059992 17919882 
2512.981 17786688 17660158 17539876 17426214 17319822 17221286 17131488 
2516.356 17051118 16980686 16920566 16871338 16833140 16805724 16788228 
2519.731 16779170 16776862 16780272 16788640 16802106 16821566 16847812 
2523.106 16881122 16921496 16968006 17019690 17075482 17134384 17195568 
2526.482 17257520 17318100 17374308 17423042 17460912 17485920 17497304 
2529.857 17495476 17481954 17458292 17426006 17386310 17339892 17288032 
2533.232 17231764 17172678 17112704 17053392 16996122 16942096 16891974 
2536.607 16846642 16806826 16773246 16745765 16724208 16707439 16693803 
2539.983 16682476 16672524 16664123 16658064 16654965 16655000 16657995 
2543.358 16662195 16666362 16669184 16670149 16669322 16667945 16667118 
2546.733 16667739 16670182 16674280 16679307 16684368 16688775 16691910 
2550.108 16693320 16692840 16690601 16686916 16682440 16677929 16674280 
2553.484 16672317 16672214 16674280 16678274 16683817 16690910 16699003 
2556.859 16707335 16714394 16718389 16716942 16707955 16689947 16662333 
2560.234 16625563 16580775 16529109 16471634 16408864 16341358 16269870 
2563.609 16195817 16121292 16048983 15981017 15918801 15862573 15811747 
2566.985 15764846 15721142 15680468 15643850 15612971 15589959 15576428 
2570.360 15573028 15579175 15593428 15613933 15638629 15665904 15694793 
2573.735 15725059 15757218 15792230 15831061 15874842 15923543 15976170 
2577.110 16031483 16086977 16140275 16190039 16235715 16278161 16319409 
2580.486 16361142 16405733 16454700 16508767 16568108 16632931 16703065 
2583.861 16778342 16858664 16943442 17031854 17122630 17214596 17306790 
2587.236 17398828 17490820 17583174 17676308 17770324 17864846 17959110 
2590.611 18051978 18142380 18229898 18314530 18396792 18478104 18559498 
2593.987 18642086 18726002 18811216 18896238 18979790 19060516 19137694 
2597.362 19211524 19283358 19354822 19428066 19504718 19585440 19670268 
2600.737 19758892 19850376 19944900 20042948 20145600 20254734 20371638 
2604.112 20497258 20631496 20773492 20921340 21072962 21226444 21380190 
2607.488 21533398 21686312 21839734 21995056 22153398 22315320 22480304 
2610.863 22646712 22812066 22973326 23128078 23274458 23411760 23539940 
2614.238 23659762 23771356 23875348 23971242 24058926 24138224 24209404 
2617.613 24273066 24330182 24381806 24428560 24471220 24510378 24546628 
2620.989 24580778 24613600 24645826 24677740 24709550 24740944 24771812 
2624.364 24802438 24833240 24865168 24899168 24935802 24975528 25018312 
2627.739 25064154 25113090 25165400 25221686 25282264 25347346 25416584 
2631.114 25488996 25563844 25640322 25717412 25795146 25872860 25949920 
2634.490 26025798 26099400 26169920 26237318 26302122 26365104 26427674 
2637.865 26491342 26556394 26623606 26692872 26764088 26837640 26913390 
2641.240 26991588 27072372 27155182 27239596 27324980 27410978 27497456 
2644.615 27585114 27674802 27767052 27862290 27961048 28063254 28169164 
2647.990 28279164 28393510 28512556 28635950 28762924 28892090 29022218 
2651.366 29152102 29281352 29410248 29539788 29671316 29805972 29944610 
2654.741 30088014 30236404 30390140 30549334 30713954 30883798 31058334 
2658.116 31236358 31417090 31599536 31783346 31968444 32155190 32343730 
2661.491 32534174 32726202 32919064 33111836 33303906 33494950 33684608 
2664.867 33872956 34060128 34246200 34431060 34614740 34797316 34979284 
2668.242 35161116 35343816 35527952 35714224 35903236 36095424 36290836 
2671.617 36489760 36692160 36897652 37105728 37315712 37526484 37737176 
2674.992 37946852 38154420 38359408 38561124 38759244 38954408 39147264 
2678.368 39339084 39531712 39726680 39926020 40131012 40343112 40563220 
2681.743 40792676 41032892 41284900 41549888 41828244 42120360 42425864 
2685.118 42743900 43073952 43415608 43768344 44131960 44506016 44889692 
2688.493 45281836 45681472 46087484 46499404 46916960 47340424 47770104 
2691.869 48206396 48649244 49098956 49555824 50020272 50492888 50974176 
2695.244 51464392 51962812 52468876 52981480 53499756 54023524 54552692 
2698.619 55087440 55628000 56174064 56725196 57280432 57839064 58400388 
2701.994 58963880 59528748 60093744 60656660 61215112 61765620 62304968 
2705.370 62830352 63339280 63830076 64300632 64749444 65174492 65573640 
2708.745 65945156 66287496 66599788 66881732 67133648 67355808 67549080 
2712.120 67714448 67852832 67965144 68052136 68113608 68149072 68157216 
2715.495 68136592 68086016 68004704 67892608 67750416 67579008 67379832 
2718.871 67154456 66904964 66634828 66347948 66049836 65746576 65444760 
2722.246 65150008 64867764 64602584 64357580 64135844 63939704 63770936 
2725.621 63631116 63521184 63441380 63392072 63372792 63383372 63423320 
2728.996 63491924 63587816 63709080 63853376 64018332 64201332 64400776 
2732.372 64615116 64843296 65083756 65334984 65594332 65859200 66126884 
2735.747 66395508 66663636 66930704 67196344 67459944 67720640 67976960 
2739.122 68227536 68471512 68708136 68938128 69162256 69381568 69597640 
2742.497 69811760 70025448 70240432 70458888 70682872 70914456 71155256 
2745.873 71405920 71666496 71936144 72213512 72496072 72781008 73064168 
2749.248 73341120 73606984 73857216 74088496 74298992 74488496 74658256 
2752.623 74810600 74948000 75072720 75186480 75291088 75387176 75475592 
2755.998 75555824 75626408 75685096 75728600 75753296 75756056 75734240 
2759.374 75686600 75611976 75510128 75380440 75222136 75034792 74818240 
2762.749 74573424 74301896 74006144 73689032 73353248 73001368 72636264 
2766.124 72260864 71879144 71495760 71116112 70745688 70389872 70053200 
2769.499 69738728 69449288 69186384 68951248 68743688 68563304 68408560 
2772.875 68276936 68165896 68072640 67994088 67928024 67872040 67823776 
2776.250 67780168 67737568 67691288 67636616 67568400 67481968 67373264 
2779.625 67238744 67076036 66884012 66662832 66414424 66142164 65851024 
2783.000 65546356 65234012 64919592 64607272 64300716 64002476 63713452 
2786.375 63433676 63161740 62894768 62628872 62359584 62083200 61796828 
2789.751 61499804 61193028 60879224 60561496 60243656 59928748 59619128 
2793.126 59317208 59024948 58744228 58477264 58225652 57991268 57774720 
2796.501 57576628 57397192 57236240 57093904 56970044 56864244 56775908 
2799.876 56703716 56646520 56602880 56571740 56552268 56543624 56544716 
2803.252 56553816 56568496 56586312 56604276 56620736 56634440 56645460 
2806.627 56654296 56661620 56667848 56672944 56675776 56675136 56669284 
2810.002 56656180 56634024 56600692 56553928 56491768 56412868 56316180 
2813.377 56202048 56071544 55926500 55769632 55603860 55433068 55260880 
2816.753 55092400 54932828 54788048 54663836 54566104 54499876 54469260 
2820.128 54477524 54526544 54617468 54750236 54923768 55135664 55382140 
2823.503 55658624 55959252 56277668 56607792 56942772 57276504 57603260 
2826.878 57917280 58213564 58487688 58735812 58955264 59144192 59302128 
2830.254 59429236 59527040 59598148 59645316 59672648 59684472 59685040 
2833.629 59679568 59672916 59669608 59674548 59692188 59725796 59779100 
2837.004 59854776 59955224 60083664 60244036 60441408 60683748 60979532 
2840.379 61339160 61774404 62296284 62916904 63649112 64505548 65501852 
2843.755 66655488 67984168 69506248 71235480 73176432 75318560 77630352 
2847.130 80057688 82515384 84897208 87081768 88935952 90341048 91201304 
2850.505 91454808 91085352 90120640 88629816 86705088 84459376 82011944 
2853.880 79469200 76930840 74479528 72173880 70056744 68150704 66461072 
2857.256 64979576 63688360 62564268 61581088 60714080 59941492 59243336 
2860.631 58603520 58008268 57445296 56905412 56381552 55869328 55367308 
2864.006 54876920 54401504 53946044 53516880 53121280 52765960 52458180 
2867.381 52203756 52006880 51869496 51790720 51767352 51793448 51861208 
2870.757 51961844 52084688 52218592 52352840 52476616 52581316 52661544 
2874.132 52715524 52745416 52757280 52759148 52758960 52764460 52780700 
2877.507 52811008 52856960 52918936 52996904 53090576 53199284 53322332 
2880.882 53458828 53607816 53768628 53940976 54125144 54320732 54527032 
2884.258 54742456 54963964 55188484 55413304 55635872 55856180 56075016 
2887.633 56294336 56517092 56745812 56983080 57231288 57492836 57770780 
2891.008 58068596 58390608 58742444 59130560 59562648 60048352 60598368 
2894.383 61223584 61934448 62738120 63636416 64622692 65681316 66784492 
2897.759 67893192 68962168 69940968 70779808 71439744 71894776 72137728 
2901.134 72180808 72055272 71806032 71482088 71135816 70813616 70552424 
2904.509 70382040 70323216 70390344 70593472 70939848 71434744 72082848 
2907.884 72888728 73857576 74995880 76310784 77808832 79494104 81364856 
2911.260 83410200 85607168 87922688 90309104 92707520 95055576 97282688 
2914.635 99319560 101106312 102590680 103737744 104532320 104978840 
2917.528 105099064 104927112 104504960 103872184 103062056 102098952 
2920.421 100994912 99753504 98372560 96849056 95184680 93389336 91481520 
2923.796 89491088 87455704 85414568 83409040 81475840 79642464 77929456 
2927.171 76347720 74899528 73581040 72383680 71296584 70307048 69403104 
2930.547 68573744 67809064 67101360 66444540 65833636 65265744 64738020 
2933.922 64248772 63796380 63379728 62997112 62646896 62326152 62030908 
2937.297 61755916 61494612 61240292 60987652 60732868 60475112 60216936 
2940.672 59963824 59722564 59500288 59303496 59135912 58997848 58885632 
2944.048 58791952 58705844 58613604 58502244 58359684 58177992 57955560 
2947.423 57697436 57415420 57125344 56845736 56594612 56385400 56227464 
2950.798 56124144 56073320 56068344 56099524 56155852 56224900 56295168 
2954.173 56356392 56399512 56418228 56408116 56366992 56294600 56192020 
2957.549 56061404 55905924 55729512 55536720 55332796 55122572 54910948 
2960.924 54701752 54498148 54302444 54116512 53942368 53781752 53636904 
2964.299 53509576 53401124 53312292 53242732 53191496 53157192 53137832 
2967.674 53131316 53135356 53147756 53166440 53190144 53218460 53252136 
2971.050 53293000 53343312 53405096 53479816 53567820 53667836 53777592 
2974.425 53893188 54009900 54120680 54217144 54289644 54326852 54317952 
2977.800 54254012 54128712 53940600 53692544 53392092 53049728 52678268 
2981.175 52291724 51902880 51523892 51164616 50831788 50528620 50254376 
2984.551 50004920 49773104 49550404 49329412 49104112 48871928 48633232 
2987.926 48390152 48145200 47898764 47647808 47385432 47101604 46783868 
2991.301 46421452 46006988 45539268 45023640 44472284 43902640 43332236 
2994.676 42777904 42251520 41758204 41296852 40861000 40442096 40030972 
2998.052 39620960 39208984 38795148 38382248 37973824 37573304 37182824 
3001.427 36803008 36433328 36072744 35720520 35376236 35040380 34713824 
3004.802 34397448 34092420 33799204 33517960 33248708 32991238 32744958 
3008.177 32509356 32283836 32067534 31859464 31658660 31464040 31274528 
3011.552 31089298 30907848 30729782 30555200 30384064 30216832 30053784 
3014.928 29895232 29741566 29592990 29449890 29312652 29181266 29055590 
3018.303 28935014 28818756 28705752 28595076 28486020 28378584 28272942 
3021.678 28169976 28070042 27973840 27881614 27793474 27709730 27631156 
3025.053 27559092 27495618 27443096 27403708 27379040 27369336 27372866 
3028.429 27386134 27403920 27419556 27425732 27415884 27384722 27329178 
3031.804 27248732 27145306 27022438 26884344 26735506 26579362 26418800 
3035.179 26256290 26093946 25934268 25779886 25633432 25496902 25371724 
3038.554 25257506 25153076 25056254 24964754 24876290 24789388 24703484 
3041.930 24618580 24535620 24455516 24379596 24308770 24243634 24183972 
3045.305 24129326 24078540 24030246 23983672 23938436 23894498 23852664 
3048.680 23813530 23777482 23744410 23713508 23683730 23654408 23624914 
3052.055 23595280 23565756 23536372 23506920 23476808 23445436 23412108 
3055.431 23377140 23341302 23306200 23273268 23243940 23218806 23198220 
3058.806 23182142 23170364 23163096 23160718 23163268 23170924 23183016 
3062.181 23198848 23217444 23238626 23262466 23289874 23321968 23359204 
3065.556 23401758 23448582 23497968 23547776 23596086 23641182 23681946 
3068.932 23717218 23746264 23768208 23782136 23787912 23785950 23777552 
3072.307 23764954 23750814 23737760 23728240 23724006 23726002 23734714 
3075.682 23749588 23769608 23793268 23818572 23843424 23865582 23883472 
3079.057 23895898 23902550 23903810 23900450 23893658 23884730 23874824 
3082.433 23864952 23856026 23848500 23842620 23838420 23835758 23834848 
3085.808 23836354 23841220 23850880 23866702 23889316 23918408 23952510 
3089.183 23989486 24026812 24062850 24096716 24129046 24161168 24195006 
3092.558 24232248 24273486 24318688 24367190 24417660 24469222 24521350 
3095.934 24573942 24627172 24681494 24737262 24794578 24853764 24914922 
3099.309 24978230 25043654 25111054 25179832 25249498 25319248 25388060 
3102.684 25455758 25522272 25588094 25654064 25720996 25789662 25860306 
3106.059 25932720 26005816 26078466 26149404 26217326 26282196 26344192 
3109.435 26404644 26465140 26527690 26593840 26664932 26741428 26823364 
3112.810 26910112 27000614 27092968 27185482 27275864 27362314 27443132 
3116.185 27518072 27587338 27652908 27716616 27780334 27845332 27912038 
3119.560 27979422 28046360 28111716 28174892 28236342 28297236 28358882 
3122.936 28422798 28489594 28559368 28631598 28705646 28780554 28855580 
3126.311 28930234 29003976 29076564 29148168 29219080 29290176 29362598 
3129.686 29437160 29514254 29593450 29673302 29752140 29828472 29901444 
3133.061 29971626 30040504 30110708 30184224 30262836 30347286 30436766 
3136.437 30530208 30625770 30722028 30817312 30910802 31001464 31089122 
3139.812 31173414 31254802 31333786 31411498 31488766 31566470 31645082 
3143.187 31724670 31804986 31885992 31967908 32051158 32136600 32224808 
3146.562 32315924 32409630 32504890 32600530 32696084 32791338 32887042 
3149.938 32984552 33085230 33189654 33297822 33408630 33520322 33631296 
3153.313 33740256 33846660 33951556 34056008 34161020 34267568 34375716 
3156.688 34484540 34592888 34699504 34803600 34904880 35003852 35101444 
3160.063 35198808 35297124 35397264 35499800 35605524 35714404 35826764 
3163.438 35942140 36059712 36178140 36296204 36412572 36526664 36638296 
3166.814 36747944 36856172 36963380 37069172 37172680 37272748 37368432 
3170.189 37459584 37546896 37631980 37716756 37802632 37890624 37980224 
3173.564 38070640 38159844 38246428 38329004 38406824 38479988 38548960 
3176.939 38614904 38679152 38743376 38808732 38876236 38946000 39017548 
3180.315 39089688 39161408 39232156 39301576 39370464 39439684 39509936 
3183.690 39581400 39653596 39725660 39796576 39865940 39934444 40002888 
3187.065 40072720 40144492 40218492 40294108 40370348 40446424 40522184 
3190.440 40597776 40674004 40751260 40829916 40909784 40990544 41071788 
3193.816 41153340 41235308 41317768 41399952 41480912 41559040 41632992 
3197.191 41702432 41767976 41831528 41895200 41960740 42028444 42097508 
3200.566 42165892 42231364 42292788 42350536 42406028 42462616 42522692 
3203.941 42588252 42659888 42736404 42815856 42895728 42973712 43048196 
3207.317 43118116 43183732 43245260 43304084 43361524 43418904 43477348 
3210.692 43537416 43598992 43661452 43723964 43785932 43847360 43908540 
3214.067 43970204 44032868 44096752 44161488 44226420 44290916 44354692 
3217.442 44417592 44480288 44543100 44606284 44669996 44733456 44796452 
3220.818 44858648 44920336 44982220 45045216 45110128 45177480 45247268 
3224.193 45319276 45392692 45466744 45540700 45613456 45684344 45753112 
3227.568 45819640 45884744 45949344 46014352 46080260 46147028 46213620 
3230.943 46278596 46340856 46399584 46455152 46508368 46560592 46612972 
3234.319 46666424 46721472 46778188 46837420 46899652 46965656 47035804 
3237.694 47109844 47186480 47264168 47341128 47416476 47490248 47563992 
3241.069 47638752 47715256 47793148 47870352 47944496 48013508 48076612 
3244.444 48135020 48191588 48249384 48311708 48379668 48453120 48530368 
3247.820 48609364 48687864 48765148 48841152 48916536 48992160 49068796 
3251.195 49146484 49225116 49304204 49383312 49461984 49540264 49617776 
3254.570 49694672 49770952 49846684 49922020 49996888 50070876 50143392 
3257.945 50213536 50280488 50343736 50403608 50460508 50515368 50569528 
3261.321 50623396 50677536 50732268 50787316 50842628 50898168 50953832 
3264.696 51009236 51063868 51116908 51167524 51215576 51261324 51305436 
3268.071 51349176 51393744 51440180 51489048 51540456 51594520 51651016 
3271.446 51709724 51770044 51831300 51892048 51951312 52007892 52061528 
3274.822 52112372 52161464 52210560 52260896 52313852 52370068 52430104 
3278.197 52493816 52561500 52633384 52709580 52789940 52873952 52960672 
3281.572 53049316 53138992 53229360 53320308 53411992 53504588 53598668 
3284.947 53694568 53793268 53896112 54004876 54121128 54245752 54378484 
3288.323 54517456 54660492 54804740 54948324 55090900 55233560 55378416 
3291.698 55528512 55686120 55852600 56028040 56211888 56402608 56598692 
3295.073 56798676 57001480 57206112 57412168 57619488 57828880 58041368 
3298.448 58258352 58481396 58711648 58949232 59194196 59445952 59703896 
3301.823 59967892 60238516 60516436 60802800 61098660 61404644 61720776 
3305.199 62046808 62381612 62722996 63069396 63418604 63769168 64120860 
3308.574 64474836 64833140 65198556 65572872 65956840 66349296 66747360 
3311.949 67148040 67549464 67951352 68355696 68765664 69184328 69613736 
3315.324 70053544 70501872 70955728 71412360 71870616 72330840 72794448 
3318.700 73263176 73737912 74218280 74702760 75189472 75676184 76161816 
3322.075 76645072 77125816 77603688 78078752 78551240 79021984 79491912 
3325.450 79962360 80434032 80906496 81377920 81845456 82305920 82756048 
3328.825 83194048 83619112 84031608 84432136 84821192 85198504 85563672 
3332.201 85915296 86251408 86570144 86868968 87145304 87396824 87622176 
3335.576 87821072 87995064 88146288 88277120 88389160 88482168 88554360 
3338.951 88602960 88625264 88619328 88584592 88521496 88430632 88312000 
3342.326 88164624 87986752 87776376 87532176 87253848 86942144 86598536 
3345.702 86224096 85819848 85385936 84922552 84430120 83910112 83363872 
3349.077 82794256 82203448 81593808 80967656 80326984 79674072 79011008 
3352.452 78339912 77662008 76978240 76289096 75594904 74896616 74196152 
3355.827 73495824 72798600 72107408 71424552 70751968 70091312 69444192 
3359.203 68812280 68197648 67601808 67025416 66468096 65927804 65402196 
3362.578 64888424 64384484 63889572 63404000 62929236 62467156 62019440 
3365.953 61587576 61172160 60773300 60390076 60021304 59665388 59320208 
3369.328 58984604 58657180 58337512 58025688 57721772 57425704 57136380 
3372.704 56851852 56569892 56287396 56001808 55711392 55415040 55112416 
3376.079 54803540 54488304 54166580 53838536 53504324 53164344 52818976 
3379.454 52468692 52113456 51753092 51386584 51012888 50631212 50240912 
3382.829 49841440 49433248 49016640 48592284 48161268 47725464 47286592 
3386.205 46847092 46408804 45973284 45541328 45112704 44686816 44262776 
3389.580 43839772 43417584 42996172 42576956 42161068 41750612 41348052 
3392.955 40955256 40573660 40203844 39844224 39492776 39146248 38801704 
3396.330 38457000 38111768 37766344 37422532 37082236 36746140 36414264 
3399.706 36085884 35759408 35434148 35109740 34786652 34465276 34146612 
3403.081 33830044 33514954 33200740 32886968 32573956 32262992 31955890 
3406.456 31653918 31357824 31066982 30780212 30495908 30212854 29930268 
3409.831 29648860 29369866 29094666 28824988 28562022 28305902 28056610 
3413.207 27813150 27574062 27337930 27103370 26870030 26638684 26410840 
3416.582 26188150 25972432 25764416 25563562 25367510 25173932 24980194 
3419.957 24784968 24588808 24392984 24199806 24011372 23828826 23651994 
3423.332 23480304 23312458 23147542 22984960 22824534 22665912 22508920 
3426.708 22352818 22197054 22041590 21886738 21732848 21581206 21431740 
3430.083 21284102 21137520 20991024 20843708 20696440 20550406 20407892 
3433.458 20270462 20139250 20013456 19891758 19771792 19651338 19529430 
3436.833 19405994 19281868 19158470 19036976 18917524 18799902 18683248 
3440.208 18566174 18447266 18325936 18201702 18075260 17947644 17820104 
3443.584 17693978 17570132 17448806 17329098 17209976 17089716 16967698 
3446.959 16843920 16719628 16596681 16477173 16362552 16253360 16148873 
3450.334 16047815 15948189 15849033 15749212 15648831 15547614 15445460 
3453.709 15342196 15237412 15131077 15023463 14915568 14808934 14704690 
3457.085 14604002 14506934 14412868 14320465 14228699 14135891 14041322 
3460.460 13944414 13845304 13744302 13642332 13540350 13439658 13341141 
3463.835 13245072 13150869 13057369 12962762 12865548 12765183 12661940 
3467.210 12557972 12456110 12358498 12267179 12182422 12103098 12027061 
3470.586 11952193 11876590 11798786 11718886 11636857 11553278 11468728 
3473.961 11383447 11297570 11211608 11125901 11040993 10957324 10875745 
3477.336 10795980 10717996 10641758 10566315 10491394 10416621 10341454 
3480.711 10266402 10191837 10118744 10048037 9981105 9918488 9860456 9806803 
3484.569 9756410 9708057 9660861 9613635 9565941 9517270 9467554 9416456 
3488.426 9363807 9309539 9253483 9196521 9139500 9084109 9031668 8983362 
3492.284 8939660 8900867 8866304 8835294 8807296 8782073 8759690 8740859 
3496.141 8725883 8715640 8710434 8710366 8715640 8725578 8739642 8756918 
3499.999 8776696 8797660 8818759 8839319 8858661 8876720 8894238 8912568 
3503.856 8933572 8959346 8992326 9033428 9083770 9142376 9207318 9276568 
3507.713 9347352 9417742 9486958 9555644 9625119 9697554 9774371 9856625 
3511.571 9943575 10034881 10129055 10225318 10323538 10423782 10526188 
3514.946 10630893 10736948 10842859 10946927 11047348 11142762 11232859 
3518.321 11317771 11397699 11473287 11544159 11609155 11666739 11714359 
3521.697 11748672 11767158 11767192 11747208 11707619 11650165 11577404 
3525.072 11492339 11397563 11294067 11181926 11059720 10925995 10779880 
3528.447 10621997 10453751 10278005 10098057 9916319 9735368 9556830 9381345 
3532.304 9209416 9040194 8872594 8704382 8532857 8356062 8172822 7984058 
3536.162 7791800 7600031 7412797 7232616 7061098 6898300 6742966 6593776 
3540.019 6450489 6313267 6183617 6062944 5951776 5849436 5754271 5662987 
3543.877 5571891 5477592 5377242 5269000 5152603 5028964 4900602 4770803 
3547.734 4643589 4522170 4409087 4304934 4208334 4117040 4027571 3937352 
3551.592 3844644 3749316 3653374 3559124 3469202 3385010 3307077 3235133 
3555.449 3167807 3103962 3042930 2983707 2926094 2869456 2812892 2755335 
3559.306 2695918 2634476 2571310 2508419 2448503 2394792 2350583 2317670 
3563.164 2296284 2284626 2277931 2269071 2250686 2214550 2154575 2069105 
3567.021 1960919 1837785 1710163 1588431 1480032 1388578 1313329 1250554 
3570.879 1195396 1143202 1090284 1035579 979684 924329 871736 823398 779747 
3575.218 740115 702910 666206 628875 590286 550340 509867 469597 430657 
3579.558 393512 358724 326559 297745 273276 254311 242211 238564 243968 
3583.897 258224 279542 304078 325929 338397 333887 306995 256267 184861 
3588.237 100739 14281 -64242 -127447 -172097 -199023 -212204 -216775 -218629 
3592.577 -223199 -233532 -252010 -279263 -314295 -355780 -401465 -448635 
3596.434 -494310 -536373 -572741 -603084 -628065 -649339 -669420 -689898 
3600.292 -711798 -735052 -758372 -780003 -798094 -811224 -818533 -818831 
3604.149 -811753 -797499 -776762 -752021 -727576 -709251 -703065 -714345 
3608.006 -744942 -793001 -852728 -916216 -976058 -1027330 -1068747 -1102162 
3611.864 -1131510 -1159732 -1188712 -1217227 -1241776 -1257668 -1261203 
3615.239 -1250267 -1226280 -1193569 -1158509 -1129494 -1114919 -1120868 
3618.614 -1150049 -1200442 -1265894 -1336820 -1404267 -1461037 -1503502 
3621.990 -1531336 -1546524 -1551212 -1547383 -1534638 -1511195 -1474741 
3625.365 -1423422 -1358092 -1283437 -1209099 -1148892 -1118555 -1131344 
3628.740 -1191454 -1290705 -1409584 -1525789 -1623082 -1693521 -1738009 
3632.115 -1764212 -1781866 -1799322 -1822881 -1854028 -1890252 -1926771 
3635.490 -1958603 -1982945 -2000360 -2013123 -2024567 -2037858 -2054018 
3638.866 -2072155 -2090522 -2107174 -2121188 -2132431 -2141861 -2148917 
3642.241 -2151752 -2146906 -2130058 -2097546 -2047455 -1980966 -1902228 
3645.616 -1817536 -1734148 -1659755 -1600568 -1562240 -1548901 -1563593 
3648.991 -1607633 -1679328 -1773122 -1878838 -1982615 -2072089 -2136091 
3652.367 -2169062 -2171666 -2149280 -2110867 -2067802 -2032812 -2016190 
3655.742 -2024469 -2057777 -2109581 -2169292 -2225303 -2269375 -2297720 
3659.117 -2311102 -2313211 -2308893 -2302664 -2296369 -2289843 -2281010 
3662.492 -2267727 -2248114 -2222171 -2190161 -2152214 -2106515 -2049302 
3665.868 -1974963 -1879234 -1759427 -1617602 -1458362 -1287269 -1106921 
3669.243 -913471 -693603 -426457 -91109 330803 850886 1474546 2203161 
3673.100 3031185 3940528 4882808 5769246 6479042 6878303 6879280 6473627 
3676.958 5728384 4749899 3646558 2517684 1439040 470227 -345020 -987529 
3680.815 -1460508 -1788037 -2003592 -2142883 -2233742 -2291886 -2324120 
3684.190 -2331601 -2314332 -2275143 -2220622 -2159204 -2101503 -2056953 
3687.566 -2032714 -2032779 -2057645 -2103811 -2165963 -2237665 -2312848 
3690.941 -2386174 -2453556 -2511902 -2559338 -2595537 -2620963 -2636837 
3694.316 -2645433 -2648495 -2647606 -2644313 -2638615 -2629954 -2617044 
3697.691 -2598040 -2571327 -2537268 -2497803 -2457181 -2421893 -2398531 
3701.067 -2392402 -2405418 -2435600 -2477047 -2522543 -2564707 -2597941 
3704.442 -2618624 -2625376 -2618064 -2597216 -2564641 -2521620 -2470919 
3707.817 -2415665 -2359152 -2305499 -2259025 -2223853 -2204700 -2205985 
3711.192 -2230610 -2278966 -2347750 -2429274 -2513187 -2589311 -2649615 
3714.568 -2689231 -2708000 -2708066 -2693808 -2670197 -2640558 -2607361 
3717.943 -2571558 -2532623 -2490258 -2445320 -2399552 -2355758 -2316803 
3721.318 -2285097 -2261761 -2246202 -2236742 -2231072 -2227446 -2225204 
3724.693 -2224776 -2228171 -2237500 -2253783 -2276066 -2300785 -2321615 
3728.069 -2332359 -2327152 -2303159 -2261035 -2205194 -2141960 -2078849 
3731.444 -2021995 -1974237 -1934787 -1901205 -1872074 -1849376 -1840269 
3734.819 -1853368 -1897114 -1973677 -2076508 -2192139 -2305235 -2402913 
3738.194 -2477673 -2527780 -2554034 -2557295 -2537630 -2493619 -2425320 
3741.570 -2335885 -2234039 -2135597 -2060745 -2030603 -2057052 -2134014 
3744.945 -2235819 -2328668 -2387261 -2400442 -2371971 -2314233 -2243895 
3748.320 -2176480 -2124749 -2097645 -2097480 -2123364 -2172128 -2239609 
3751.695 -2321615 -2412140 -2502612 -2583646 -2646355 -2685477 -2700394 
3755.071 -2694730 -2674413 -2646717 -2618526 -2594713 -2578804 -2572974 
3758.446 -2578244 -2594977 -2622708 -2658737 -2697826 -2733618 -2759036 
3761.821 -2769144 -2763152 -2743495 -2716298 -2688506 -2666279 -2652744 
3765.196 -2647409 -2645894 -2642271 -2632720 -2616055 -2595075 -2575774 
3768.572 -2565629 -2570734 -2594186 -2633972 -2684226 -2737075 -2784617 
3771.947 -2821555 -2846079 -2859048 -2862801 -2860496 -2853913 -2843248 
3775.322 -2827447 -2805457 -2776024 -2741059 -2705070 -2674149 -2655740 
3778.697 -2655115 -2673392 -2706486 -2746096 -2781950 -2805720 -2812765 
3782.073 -2803547 -2782774 -2757192 -2733618 -2717516 -2711194 -2714026 
3785.448 -2722818 -2734968 -2747512 -2759102 -2769901 -2780337 -2791004 
3788.823 -2801967 -2812896 -2823036 -2831595 -2837685 -2840483 -2839232 
3792.198 -2833175 -2821653 -2804831 -2783432 -2759168 -2734507 -2712018 
3795.573 -2693084 -2677244 -2661668 -2642008 -2613223 -2572151 -2518952 
3798.949 -2457576 -2396850 -2347914 -2323362 -2332095 -2374245 -2439521 
3802.324 -2510189 -2568297 -2600477 -2603211 -2580550 -2543757 -2506994 
3805.699 -2483900 -2485185 -2514307 -2565827 -2627122 -2685082 -2729304 
3809.074 -2755283 -2763612 -2757357 -2739808 -2712347 -2674248 -2623795 
3812.450 -2559930 -2483636 -2400080 -2317891 -2248938 -2204700 -2192337 
3815.825 -2210370 -2247554 -2287107 -2311959 -2311860 -2285723 -2241356 
3819.200 -2192799 -2157555 -2152577 -2187788 -2262387 -2362348 -2467163 
3822.575 -2556571 -2617867 -2647968 -2651426 -2636903 -2613552 -2589311 
3825.951 -2569088 -2553837 -2541682 -2529098 -2512726 -2490851 -2463309 
3829.326 -2431745 -2398168 -2364853 -2333743 -2305729 -2281142 -2259288 
3832.701 -2238884 -2218644 -2196854 -2172655 -2146280 -2119177 -2094512 
3836.076 -2076244 -2068857 -2075321 -2096887 -2131343 -2174139 -2219996 
3839.452 -2263936 -2302796 -2335754 -2363535 -2387360 -2409240 -2430855 
3842.827 -2453622 -2478134 -2504391 -2531141 -2556373 -2576894 -2589707 
3846.202 -2592012 -2582296 -2559601 -2523795 -2474774 -2411514 -2332887 
3849.577 -2237928 -2126958 -2004416 -1879959 -1769063 -1693323 -1675301 
3852.953 -1729396 -1853203 -2024435 -2208392 -2372729 -2499384 -2584305 
3856.328 -2632424 -2652941 -2654193 -2642008 -2620074 -2589509 -2551432 
3859.703 -2506862 -2458103 -2407428 -2357966 -2312123 -2272011 -2239972 
3863.078 -2218512 -2209842 -2214952 -2231896 -2255069 -2275967 -2285295 
3866.454 -2276791 -2249465 -2208919 -2165600 -2133289 -2125211 -2147631 
3869.829 -2197447 -2261662 -2324186 -2370818 -2396521 -2404001 -2402716 
3873.204 -2403177 -2413359 -2435699 -2466439 -2496748 -2516382 -2517898 
3876.579 -2498264 -2459190 -2406241 -2347552 -2292513 -2249597 -2225666 
3879.955 -2223127 -2240038 -2268781 -2298841 -2320429 -2326295 -2314562 
3883.330 -2289250 -2259387 -2236775 -2232160 -2251872 -2293963 -2348540 
3886.705 -2400837 -2437675 -2451612 -2442255 -2414842 -2378661 -2343960 
3890.080 -2319275 -2310014 -2316803 -2336182 -2362019 -2388019 -2409240 
3893.456 -2422420 -2426077 -2419323 -2401826 -2373783 -2335622 -2289217 
3896.831 -2237401 -2183667 -2132530 -2087950 -2052962 -2029053 -2016289 
3900.206 -2012793 -2016487 -2025623 -2039276 -2057612 -2082081 -2113868 
3903.581 -2153137 -2198601 -2247455 -2295150 -2338094 -2373289 -2399552 
3906.957 -2417412 -2428285 -2433788 -2435139 -2433293 -2428549 -2421234 
3910.332 -2411810 -2400706 -2389107 -2377079 -2364128 -2349265 -2330810 
3913.707 -2308201 -2281900 -2254509 -2229687 -2211589 -2203809 -2207073 
3917.082 -2219930 -2238653 -2258431 -2275769 -2288228 -2295644 -2298907 
3920.458 -2299566 -2298281 -2295611 -2291722 -2286910 -2282427 -2279593 
3923.833 -2280318 -2285295 -2294194 -2305367 -2316045 -2323625 -2326559 
3927.208 -2324351 -2317528 -2307377 -2295084 -2281636 -2267891 -2254772 
3930.583 -2243532 -2236379 -2235225 -2242049 -2256981 -2278505 -2304049 
3933.958 -2329755 -2352232 -2369302 -2380012 -2384889 -2385317 -2382944 
3937.334 -2378760 -2373256 -2366567 -2357867 -2346992 -2333809 -2319176 
3940.709 -2304576 -2291854 -2283020 -2279526 -2282064 -2289480 -2299961 
3944.084 -2310805 -2319242 -2323461 -2322571 -2316869 -2307905 -2297984 
3947.459 -2288854 -2282361 -2279494 -2280417 -2284800 -2292051 -2301478 
3950.835 -2311959 -2322637 -2332425 -2340104 -2344981 -2346629 -2345278 
3954.210 -2341422 -2336083 -2330085 -2323625 -2317034 -2309849 -2301609 
3957.585 -2291985 -2281010 -2268913 -2256157 -2243433 -2231731 -2222303 
3960.960 -2216073 -2214161 -2216798 -2223688 -2233445 -2243928 -2252498 
3964.336 -2257179 -2256618 -2250520 -2240401 -2228039 -2215611 -2205062 
3967.711 -2197546 -2193161 -2191183 -2190854 -2190886 -2190425 -2189073 
3971.086 -2186700 -2183897 -2180963 -2178787 -2178062 -2179249 -2181919 
3974.461 -2185051 -2187952 -2188875 -2186700 -2181293 -2172655 -2161644 
3977.837 -2149214 -2136124 -2122935 -2109548 -2096095 -2082443 -2069352 
3981.212 -2057777 -2048807 -2043399 -2041980 -2044223 -2049269 -2055996 
3984.587 -2063218 -2070539 -2077563 -2084389 -2091314 -2098832 -2106878 
3987.962 -2115517 -2124848 -2134542 -2144367 -2154225 -2163292 -2170908 
3991.338 -2176611 -2179809 -2180370 -2178458 -2174468 -2169062 -2163061 
3994.713 -2157390 -2152775 -2150302 -2150302 -2153038 -2158676 -2166820 
3998.088 -2176677 -2187854 -2199293 -2210469 -2220853 -2230050 
##END=
