
##TITLE=Z357a_2_b
##JCAMP-DX=5.01  $$ Nicolet v. 1
##DATATYPE=INFRARED SPECTRUM
##ORIGIN=UniL
##OWNER=Nicolet
##LONGDATE=2011/09/22
##TIME=09:13:58
##SPECTROMETER/DATA SYSTEM=Nicolet iS5
##DATA PROCESSING=
Ratio against background
%Transmittance->Absorbance
Truncated
ElementMultiply or ElementDivide
##COMMENTS=
Number of sample scans: 32
Collection length: 51.21 sec
Sample gain: 2.0
Background collected on: Jeu Sep 22 09:10:47 2011 (GMT+02:00);
Number of background scans: 32
Background gain: 2.0
Sample spacing:  1.000
Number of scan points: 12415
Resolution points: 8192
Number of FFT points: 65536
Apodization: N-B fort;
Phase correction: Mertz;
Laser frequency: 15798.0 cm-1
Number of rejected sample scans: 0
Number of rejected background scans: 0
Bench serial number: ASB1000141;
##RESOLUTION=4.000
##XUNITS=1/CM
##YUNITS=ABSORBANCE
##FIRSTX=649.893372
##LASTX=4000.122314
##FIRSTY=0.097830
##MAXX=4000.122314
##MINX=649.893372
##MAXY=0.302694
##MINY=-0.004219
##XFACTOR=1.000000
##YFACTOR=1.000000E-009
##NPOINTS=6950
##DELTAX=0.482117
##ZPD=6100
##XYDATA=(X++(Y..Y))
649.893 97829672 97425056 97081104 96826152 96665592 96582528 96549704 
653.268 96549168 96585256 96685136 96884784 97212960 97676504 98257176 
656.643 98922888 99646872 100421800 101264208 102204464 103267480 104465168 
660.018 105791632 107234360 108790168 110474888 112316200 114341440 
662.911 116553400 118921768 121384784 123873840 126333088 128716944 
665.803 130990696 133099096 134934704 136345968 137175120 137340016 
668.696 136881488 135930960 134628400 133060424 131256160 129211936 
671.589 126927168 124434112 121806696 119139976 116536720 114069904 
674.481 111772784 109648432 107683968 105867512 104194608 102664712 
677.374 101273328 100002464 98822864 97699904 96603016 95516808 94441800 
680.749 93389952 92374208 91402176 90471576 89572400 88694680 87834376 
684.124 86995456 86189984 85431424 84728352 84082792 83489104 82937176 
687.498 82415104 81913104 81423240 80938472 80452056 79956544 79445048 
690.873 78913808 78362816 77795392 77217912 76636456 76056128 75481072 
694.248 74916224 74369960 73853808 73383808 72975576 72641392 72387512 
697.623 72212648 72110232 72070088 72083632 72146024 72255776 72414288 
700.998 72622200 72876808 73170664 73492568 73829416 74170328 74508952 
704.373 74843944 75176632 75510088 75846008 76183656 76521752 76859608 
707.747 77199000 77545616 77908728 78299680 78734232 79233568 79824248 
711.122 80541792 81423400 82499152 83780256 85245880 86833232 88435216 
714.497 89924928 91168728 92056096 92530024 92591656 92304456 91773136 
717.872 91136808 90546784 90140992 90049744 90374056 91173096 92453888 
721.247 94151480 96126808 98154824 99966128 101290984 101894784 101652400 
724.621 100570392 98794488 96564440 94169752 91889888 89919952 88368280 
727.996 87249968 86514984 86079448 85856464 85780768 85804912 85898584 
731.371 86040136 86207608 86379616 86540464 86682832 86811096 86937120 
734.746 87075376 87234488 87415016 87609720 87809192 88006264 88199296 
738.121 88391792 88589464 88796616 89014152 89239976 89471496 89707704 
741.496 89950032 90200200 90458312 90721104 90982464 91237560 91484872 
744.870 91729136 91978488 92240808 92517440 92800520 93073232 93316624 
748.245 93515400 93664144 93768736 93843296 93904040 93962080 94021816 
751.620 94081480 94137488 94188888 94238536 94291800 94353472 94424056 
754.995 94499424 94572744 94639608 94700632 94762696 94836432 94931288 
758.370 95052480 95200680 95372464 95564864 95778432 96015904 96280928 
761.744 96573376 96888184 97215160 97545616 97877360 98221776 98605144 
765.119 99071040 99674592 100472120 101516960 102841608 104443224 106266368 
768.494 108195760 110065576 111666632 112807312 113360024 113304880 
771.387 112754000 111932296 111132296 110604544 110499664 110805880 
774.279 111355056 111854952 111975128 111464856 110199816 108227256 
777.172 105725136 102954400 100169312 97549392 95190328 93094664 91206008 
780.547 89441168 87727192 86019216 84301728 82584744 80893248 79259496 
783.922 77714272 76286296 75001120 73877328 72928032 72159488 71571936 
787.297 71162944 70929984 70873768 70999312 71315240 71830976 72555784 
790.671 73497832 74665888 76072272 77735512 79678728 81928192 84504464 
794.046 87413352 90636880 94129296 97815392 101589680 105335864 108930240 
797.421 112257968 115239296 117841720 120098816 122107296 124028416 
800.314 126053784 128352464 131039392 134113384 137435120 140700032 
803.206 143483280 145321488 145765600 144529520 141554608 137043488 
806.099 131409272 125185680 118924552 113031680 107730592 103035464 98796448 
809.474 94772096 90722040 86497960 82064456 77504216 72965696 68624336 
812.849 64625456 61053012 57937232 55258768 52973020 51024852 49363376 
816.224 47947348 46740732 45715264 44847408 44118320 43515548 43031508 
819.598 42661572 42401640 42245680 42185860 42214892 42327704 42524188 
822.973 42808800 43189696 43675304 44271984 44982552 45805464 46733832 
826.348 47753428 48841228 49964880 51080900 52143456 53112592 53963900 
829.723 54701228 55361888 56020240 56772964 57733804 59019180 60719604 
833.098 62888064 65511412 68498552 71656184 74693744 77272936 79016816 
836.473 79602704 78839624 76699904 73345672 69079936 64309432 59435544 
839.847 54792412 50630172 47075904 44160276 41843460 40047976 38683280 
843.222 37660452 36906888 36360256 35968380 35692496 35502388 35378896 
846.597 35313048 35301256 35341512 35429976 35559276 35720700 35907988 
849.972 36118472 36355720 36625608 36934516 37285492 37677436 38107100 
853.347 38571592 39071268 39610764 40197012 40837884 41540116 42308824 
856.721 43150100 44074196 45096088 46238200 47528392 48996128 50675000 
860.096 52600620 54809064 57338352 60218040 63457220 67023872 70830160 
863.471 74723856 78476560 81825648 84500312 86257104 86944248 86517416 
866.846 85058024 82749632 79860880 76703144 73561528 70691792 68283216 
870.221 66444352 65224312 64616196 64575904 65030104 65886996 67043900 
873.596 68376904 69753080 71037512 72092200 72806824 73109024 72975456 
876.970 72437424 71572760 70494704 69320344 68159896 67096992 66173264 
880.345 65390720 64715096 64092636 63460976 62769628 61994180 61139932 
883.720 60241220 59348468 58519916 57803216 57227624 56803932 56527020 
887.095 56384688 56366088 56467692 56693596 57053432 57555592 58203452 
890.470 58992988 59913992 60953908 62100056 63344800 64683640 66114888 
893.844 67637928 69249568 70943208 72706656 74516544 76334952 78106720 
897.219 79751776 81175272 82278568 82967296 83178400 82888888 82123016 
900.594 80946056 79455352 77769792 76003392 74264824 72647112 71216624 
903.969 70021432 69089608 68431904 68048648 67933176 68076704 68471320 
907.344 69111280 69994064 71118568 72484720 74092000 75939928 78028352 
910.719 80356920 82923336 85720216 88730400 91922680 95255304 98678200 
914.093 102141576 105611832 109076904 112554512 116087032 119738400 
916.986 123579192 127667160 132035408 136668432 141491680 146346832 
919.879 150997008 155150160 158462528 160624448 161420528 160785344 
922.771 158853088 155956192 152614832 149416944 146975984 145847328 
925.664 146405504 148828832 153038384 158718016 165301632 172039264 
928.557 178150848 182848544 185510544 185779728 183558624 179007712 
931.450 172455056 164342032 155127248 145243328 135110192 125088888 
934.342 115491424 106592512 98591464 91627896 85784120 81082184 77507632 
937.717 75020848 73570592 73094712 73512040 74716376 76547840 78787376 
941.092 81180704 83426384 85234544 86374648 86689224 86134512 84773704 
944.467 82766960 80327736 77683200 75054048 72606112 70450352 68643632 
947.841 67193560 66076576 65250540 64671448 64295912 64085648 64009688 
951.216 64039448 64148940 64316892 64525536 64763516 65026372 65314420 
954.591 65630444 65976552 66352768 66756368 67184352 67633288 68102136 
957.966 68591128 69100872 69630504 70177536 70738584 71310712 71893800 
961.341 72490272 73104512 73740744 74400672 75082600 75782568 76496072 
964.716 77220688 77957096 78708696 79479224 80271368 81084896 81917912 
968.090 82767840 83634056 84517864 85422800 86352216 87307528 88287848 
971.465 89291168 90316080 91363696 92437992 93544784 94688848 95872008 
974.840 97092624 98347008 99632576 100949848 102303584 103701216 105150440 
978.215 106656720 108222792 109850464 111543336 113309440 115162368 
981.108 117118072 119191808 121394464 123729880 126194792 128778576 
984.000 131464424 134225200 137017552 139781936 142434480 144872320 
986.893 146992800 148696576 149911552 150605312 150787472 150509792 
989.786 149855072 148936672 147879488 146808048 145847056 145098240 
992.678 144636672 144509792 144731952 145293296 146166896 147322144 
995.571 148730032 150367600 152219968 154274048 156516272 158931424 
998.464 161501600 164209120 167038560 169972144 172986096 176046736 
1001.356 179102896 182092048 184949056 187612208 190040608 192217952 
1004.249 194155424 195886288 197461792 198948432 200417600 201946688 
1007.142 203614304 205486368 207614176 210025472 212722208 215683952 
1010.035 218874896 222257312 225792064 229443296 233177120 236952032 
1012.927 240721344 244436704 248051760 251533840 254864576 258033600 
1015.820 261026560 263810608 266323600 268481760 270189824 271361472 
1018.713 271946880 271943616 271406784 270437184 269182816 267823904 
1021.605 266543744 265533776 264963744 264957424 265593920 266891264 
1024.498 268815104 271285824 274200384 277450816 280923456 284511072 
1027.391 288104480 291577056 294795968 297621568 299916640 301573568 
1030.284 302514400 302693984 302095680 300720384 298583072 295712160 
1033.177 292156448 287986912 283287744 278154624 272676000 266923152 
1036.070 260955744 254823856 248576944 242278032 235999920 229821376 
1038.963 223826736 218089872 212674656 207635936 203009712 198811360 
1041.856 195023008 191585296 188385760 185258992 182020448 178474704 
1044.750 174461760 169897280 164780032 159200496 153312112 147318752 
1047.643 141429536 135826064 130662752 126040712 122010792 118584352 
1050.536 115737848 113425976 111589000 110167200 109103440 108346136 
1053.429 107853064 107584752 107499056 107550880 107683208 107829232 
1056.322 107921624 107890744 107676240 107234784 106540176 105589192 
1059.215 104401672 103023072 101521360 99979936 98498624 97175664 96099648 
1062.590 95347120 94969432 94994872 95429176 96257272 97444088 98933288 
1065.965 100653640 102511672 104396152 106195312 107795512 109099992 
1068.858 110044312 110592832 110743104 110516720 109952888 109097352 
1071.751 107994232 106686328 105208736 103591136 101861184 100046392 
1074.645 98178792 96301600 94465848 92732624 91169792 89838936 88794136 
1078.020 88074320 87696776 87659072 87937416 88491392 89261056 90169896 
1081.395 91133336 92052864 92832520 93393776 93682112 93686224 93439544 
1084.770 93023312 92550200 92149120 91957488 92092224 92645504 93677624 
1088.146 95207696 97214080 99631120 102360240 105266112 108190784 110982872 
1091.521 113497784 115622424 117287664 118461680 119148048 119373784 
1094.414 119182264 118622840 117745896 116607408 115265696 113782864 
1097.307 112231240 110682696 109205856 107858200 106668880 105630600 
1100.200 104691088 103760920 102717600 101426312 99776272 97692720 95162360 
1103.575 92234712 89019032 85664600 82327344 79166088 76312520 73859144 
1106.950 71867096 70360968 69337792 68774784 68636952 68882096 69460528 
1110.326 70321264 71409120 72661336 74012944 75390320 76711840 77899128 
1113.701 78874984 79574560 79956704 80003272 79722480 79142512 78308880 
1117.076 77274792 76092728 74815400 73487824 72145320 70815848 69516944 
1120.451 68257976 67042968 65873660 64752020 63682756 62673308 61731852 
1123.827 60864928 60074112 59355080 58699280 58097608 57544888 57044364 
1127.202 56608844 56260356 56025744 55928764 55987444 56207368 56580612 
1130.577 57084420 57684040 58336224 58988856 59590508 60095040 60465968 
1133.952 60687256 60764308 60726120 60617800 60495680 60417492 60428040 
1137.328 60557228 60812672 61179944 61623620 62091684 62525584 62860148 
1140.703 63034764 63001892 62725640 62188064 61387660 60336736 59057672 
1144.078 57580332 55941688 54180660 52339116 50461140 48587020 46754092 
1147.453 44993908 43328872 41773960 40336932 39019792 37821756 36740696 
1150.829 35774592 34921180 34177724 33540654 33005216 32566674 32221206 
1154.204 31966374 31801350 31726058 31739962 31841672 32029294 32300968 
1157.579 32656252 33096854 33626212 34248384 34966180 35780636 36689964 
1160.954 37690304 38775256 39936916 41163032 42435616 43731292 45018092 
1164.330 46259172 47417360 48454712 49338728 50044588 50553220 50854696 
1167.705 50947124 50837636 50541124 50080432 49484376 48782980 48006552 
1171.080 47184376 46340564 45498056 44678148 43900072 43183696 42547760 
1174.455 42007344 41575012 41258628 41062392 40988868 41040684 41221648 
1177.831 41537892 41996504 42604916 43370240 44298624 45396332 46670924 
1181.206 48130692 49785220 51644820 53717928 56011192 58527420 61264256 
1184.581 64209356 67335416 70597920 73924464 77216136 80358632 83217968 
1187.956 85662544 87579448 88876296 89499712 89437296 88719064 87411728 
1191.332 85610520 83434216 81001640 78428896 75823008 73267296 70828680 
1194.707 68555200 66474700 64600968 62934676 61466976 60181236 59055620 
1198.082 58065868 57184040 56380648 55627400 54893764 54151680 53376880 
1201.457 52548972 51656200 50696784 49680332 48626228 47561848 46519028 
1204.833 45527160 44611060 43788388 43067364 42449464 41930668 41504752 
1208.208 41163796 40899844 40705296 40571804 40491780 40459152 40471048 
1211.583 40528076 40634888 40798972 41028704 41331252 41712024 42173816 
1214.958 42717212 43340656 44040424 44809752 45637896 46511688 47415512 
1218.333 48334036 49255064 50170688 51077024 51974056 52864032 53750700 
1221.709 54639336 55538752 56461544 57423588 58444320 59541820 60729932 
1225.084 62015620 63396900 64863072 66394268 67964560 69541752 71087312 
1228.459 72562600 73928320 75149920 76203760 77078968 77780136 78325632 
1231.834 78748648 79095160 79419072 79787848 80276912 80963224 81929712 
1235.210 83252920 84996968 87215656 89944160 93201504 96991568 101304832 
1238.585 106117040 111384560 117046656 123019624 129194456 135455392 
1241.478 141674032 147720080 153475520 158823840 163655456 167874928 
1244.371 171394576 174143792 176073536 177152288 177367392 176721744 
1247.264 175234736 172942768 169900032 166180368 161864464 157030736 
1250.157 151747216 146060720 140003520 133602632 126893264 119932432 
1253.050 112808128 105628400 98524320 91634480 85081320 78975160 73396952 
1256.426 68389632 63965120 60101888 56754840 53858528 51338996 49121588 
1259.801 47130412 45300152 43577960 41922748 40310868 38731820 37186252 
1263.176 35681668 34229312 32840472 31524356 30288556 29138602 28078100 
1266.551 27108520 26228378 25433448 24716286 24067962 23481180 22950794 
1269.927 22475420 22056510 21697214 21400272 21167090 20998848 20897176 
1273.302 20865366 20909172 21034806 21246938 21545654 21924690 22369248 
1276.677 22856104 23356652 23835338 24253306 24574504 24765814 24805558 
1280.052 24687524 24422110 24035288 23560614 23036072 22492900 21952010 
1283.427 21424464 20913136 20418242 19942508 19493180 19081636 18721470 
1286.803 18424276 18197832 18046140 17970920 17973612 18056954 18223712 
1290.178 18475994 18812496 19228078 19713224 20255394 20840022 21448590 
1293.553 22059612 22648282 23185428 23643878 24003176 24254006 24402622 
1296.928 24469992 24489378 24497264 24529940 24619702 24789702 25056710 
1300.304 25429724 25908594 26481130 27119700 27783654 28416892 28957398 
1303.679 29349482 29546704 29522940 29274866 28819288 28189634 27428980 
1307.054 26587852 25715442 24856396 24050276 23324834 22696354 22169542 
1310.429 21739676 21396826 21130250 20932640 20800568 20733454 20731020 
1313.805 20790976 20908338 21077136 21292418 21552234 21857540 22210236 
1317.180 22610410 23053996 23533118 24038160 24561248 25098098 25648758 
1320.555 26214510 26794430 27382392 27964652 28520870 29029588 29469748 
1323.930 29826414 30093342 30275944 30391314 30466690 30539984 30654214 
1327.306 30848686 31156538 31593728 32156188 32819246 33545092 34291624 
1330.681 35020408 35707136 36342856 36932536 37489744 38031108 38572644 
1334.056 39126124 39700464 40301376 40932176 41592624 42278252 42981356 
1337.431 43690436 44393448 45079840 45741440 46372524 46968940 47527060 
1340.807 48043784 48517548 48949916 49345632 49712804 50060056 50394416 
1344.182 50719016 51032716 51332396 51613996 51875060 52114088 52326560 
1347.557 52500436 52613560 52631100 52509444 52208688 51696472 50961580 
1350.932 50016928 48902412 47678648 46417140 45198768 44098036 43177476 
1354.308 42486220 42050124 41870932 41924392 42165816 42534200 42961272 
1357.683 43386972 43761452 44050468 44238596 44325332 44325300 44265012 
1361.058 44186616 44144284 44196376 44402032 44803692 45415168 46217708 
1364.433 47161364 48175816 49173756 50067680 50774356 51216024 51337540 
1367.809 51109452 50536660 49657112 48537184 47260584 45906288 44546548 
1371.184 43237684 42016072 40910040 39943164 39139140 38524988 38124172 
1374.559 37948260 37990964 38227788 38624896 39147264 39771664 40491084 
1377.934 41314164 42262400 43366288 44664852 46200792 48022096 50173328 
1381.310 52677332 55513524 58590476 61748204 64746596 67299240 69132840 
1384.685 69995352 69717448 68245648 65673724 62251232 58335808 54349080 
1388.060 50650052 47472284 44917360 42966760 41534504 40505272 39771120 
1391.435 39238756 38831596 38493564 38180140 37859608 37515828 37147088 
1394.811 36764888 36387028 36029972 35702568 35404704 35131080 34876552 
1398.186 34641652 34435144 34273628 34175576 34157508 34228560 34389668 
1401.561 34635948 34959212 35350604 35801472 36305568 36858012 37455180 
1404.936 38093428 38768192 39473756 40204608 40956604 41729128 42524920 
1408.312 43349444 44208040 45103988 46037160 47004900 48003036 49027176 
1411.687 50071060 51123688 52163404 53158616 54069940 54857820 55497900 
1415.062 55988540 56356808 56650972 56935748 57280696 57745120 58373704 
1418.437 59184972 60164260 61265512 62421784 63564264 64632416 65585548 
1421.813 66406628 67101284 67702440 68265888 68866328 69573568 70433400 
1425.188 71456112 72615976 73866488 75156576 76449208 77721960 78966736 
1428.563 80184680 81382360 82571160 83769128 85007048 86326664 87769968 
1431.938 89373432 91155240 93114776 95237320 97509616 99933264 102526944 
1435.313 105325056 108358848 111635784 115117912 118732704 122399800 
1438.207 126050728 129633352 133093160 136361616 139328864 141845312 
1441.100 143753312 144889520 145121232 144370288 142612272 139887456 
1443.993 136293808 131994176 127193048 122106592 116964672 111969944 
1446.886 107292936 103076760 99413704 96338368 93819488 91774976 90097200 
1450.261 88685528 87483544 86486352 85737656 85297816 85215960 85497672 
1453.636 86099440 86930320 87871208 88804096 89616752 90240208 90673208 
1457.011 90998232 91348728 91853656 92612120 93671952 95050048 96747560 
1460.387 98751936 101032592 103530200 106162056 108806088 111300168 
1463.280 113471624 115146208 116203496 116621056 116491048 115989912 
1466.173 115305536 114604296 113993864 113525672 113215904 113052528 
1469.066 113000648 112993032 112928136 112669344 112051416 110933160 
1471.959 109249784 107061936 104546776 101938152 99445360 97193856 95240784 
1475.334 93604336 92293424 91327056 90725472 90491280 90597000 90981768 
1478.709 91568280 92273800 93034272 93816112 94616416 95459512 96384904 
1482.085 97439656 98669016 100119024 101845008 103910032 106382376 109319760 
1485.460 112745968 116621184 120815120 125116992 129217384 132735344 
1488.353 135281952 136473936 136023440 133818792 129962984 124774600 
1491.246 118690688 112177264 105602872 99193144 93069736 87264216 81778288 
1494.621 76639496 71911552 67702904 64140760 61324124 59289860 58002360 
1497.997 57381952 57329392 57752576 58580996 59755640 61223964 62935664 
1501.372 64833068 66851660 68926512 70971800 72882768 74526728 75709592 
1504.747 76187248 75687736 73985712 71037904 67073212 62547736 57933448 
1508.122 53549300 49514972 45813820 42385420 39184868 36197372 33444020 
1511.498 30960044 28769650 26879478 25273378 23921350 22789962 21849212 
1514.873 21073448 20436546 19911980 19476198 19112174 18816614 18597470 
1518.248 18465898 18425796 18467870 18568110 18697464 18833152 18973178 
1521.623 19138628 19364142 19676162 20078586 20555408 21080962 21635288 
1524.999 22210026 22814126 23467434 24192134 25000516 25890200 26848072 
1528.374 27858828 28913022 30010254 31159102 32372252 33661192 35034308 
1531.749 36494516 38037692 39653924 41325420 43028656 44736252 46423960 
1535.124 48072060 49666176 51188960 52620216 53939556 55118996 56131832 
1538.500 56953804 57565996 57953780 58108708 58035840 57755832 57305764 
1541.875 56729276 56060048 55311568 54473656 53524864 52449808 51258900 
1545.250 49993616 48717368 47489432 46337648 45255360 44205876 43146036 
1548.625 42047752 40918776 39800460 38755620 37835532 37059320 36412104 
1552.000 35858104 35362396 34906784 34497780 34158656 33913148 33766720 
1555.376 33698216 33661120 33596496 33434216 33100930 32534104 31704708 
1558.751 30652970 29492584 28367866 27383524 26574360 25920904 25378610 
1562.126 24898114 24434728 23954612 23440784 22897142 22347238 21825552 
1565.501 21364458 20977878 20658078 20379384 20110792 19825788 19513070 
1568.877 19180252 18850560 18552238 18305544 18117680 17984146 17896436 
1572.252 17845408 17823070 17820482 17823796 17814544 17773362 17687180 
1575.627 17560438 17417728 17296928 17228696 17224628 17275034 17359858 
1579.002 17458118 17555676 17648874 17742158 17843474 17959076 18090252 
1582.378 18233078 18381860 18531802 18680134 18825368 18963210 19084440 
1585.753 19176096 19223750 19218520 19161726 19067060 18957844 18861564 
1589.128 18805472 18809106 18885336 19040610 19276118 19587624 19962038 
1592.503 20376430 20793582 21166220 21447926 21598130 21594404 21437554 
1595.879 21150564 20772378 20345944 19914166 19511130 19161864 18887034 
1599.254 18702342 18618982 18643608 18775682 19008658 19331958 19735278 
1602.629 20209918 20748016 21339922 21968984 22608560 23224820 23775940 
1606.004 24219494 24520298 24651402 24600204 24367750 23967286 23419872 
1609.380 22750714 21990002 21171124 20330562 19508322 18738076 18043172 
1612.755 17432526 16900138 16428616 15995421 15579759 15165559 14746680 
1616.130 14329574 13931550 13576176 13284768 13070788 12937091 12876914 
1619.505 12876334 12917088 12980992 13051461 13119586 13186321 13263280 
1622.881 13366973 13511295 13701760 13933261 14194976 14476239 14771463 
1626.256 15080166 15403163 15739385 16081853 16418912 16739050 17035818 
1629.631 17310894 17572892 17832426 18096122 18363610 18625346 18866478 
1633.006 19070350 19220804 19306914 19324026 19275842 19173362 19034172 
1636.382 18877308 18717494 18562888 18413526 18262968 18100060 17911732 
1639.757 17687628 17423800 17126076 16807720 16486982 16178757 15889140 
1643.132 15614070 15340033 15048881 14722754 14350499 13932884 13484771 
1646.507 13032272 12606304 12234665 11934585 11711466 11561343 11473048 
1649.883 11429470 11406543 11373106 11287810 11107647 10807564 10406474 
1653.258 9976290 9602659 9338212 9181799 9100722 9055452 9015837 8965738 
1657.115 8899852 8821363 8736194 8649689 8563033 8473050 8374471 8262439 
1660.973 8134030 7989626 7831911 7665957 7498549 7337069 7189360 7062782 
1664.830 6960987 6884026 6826735 6779514 6728529 6659986 6562928 6432767 
1668.688 6273532 6096780 5918287 5752088 5607334 5487256 5390862 5313239 
1672.545 5246798 5181775 5105061 5003993 4870712 4707928 4530875 4362061 
1676.402 4222017 4120284 4052855 4007171 3967813 3923777 3871522 3816866 
1680.260 3770239 3741797 3733308 3737084 3733709 3699689 3614716 3473344 
1684.117 3292921 3108902 2955951 2849978 2787380 2753601 2733394 2715323 
1687.975 2693518 2666146 2633243 2595842 2554945 2513518 2477027 2452002 
1691.832 2444904 2457500 2485725 2518050 2538214 2529682 2482492 2400956 
1695.689 2305778 2226007 2182680 2180082 2204926 2234899 2243358 2208156 
1699.547 2120412 1990675 1848433 1725864 1643073 1600403 1585571 1582611 
1703.404 1577523 1560497 1525716 1472285 1403636 1327122 1250986 1182472 
1707.262 1126227 1083375 1051887 1027674 1006917 986924 967431 950694 940068 
1711.601 938640 947108 964110 986359 1010404 1033519 1054776 1073576 1088258 
1715.941 1095267 1088789 1064242 1021729 968526 917854 882559 870707 883323 
1720.281 915164 958132 1004857 1050790 1094968 1139249 1186492 1239024 
1724.138 1296912 1358564 1421886 1485584 1549225 1612608 1674105 1730089 
1727.995 1774801 1802982 1812198 1804346 1785614 1763190 1741499 1718546 
1731.853 1684117 1621787 1515308 1356470 1155395 939968 746753 601633 510862 
1736.192 464655 445218 435931 423128 399813 364362 320060 273508 230972 
1740.532 197656 176507 168254 172861 188971 213866 244332 276956 309084 
1744.872 340254 371259 403528 437556 471853 502702 525027 534349 527615 
1749.211 504559 466446 416130 356834 292241 227259 166961 116382 79098 55370 
1754.033 42181 32837 19549 -4970 -44066 -95183 -150833 -201342 -239989 
1758.373 -265521 -282077 -297342 -319725 -355117 -404576 -464820 -529291 
1762.230 -590841 -644045 -685862 -716032 -735218 -744976 -747886 -747655 
1766.087 -748912 -756519 -772925 -797168 -823725 -845453 -856597 -856200 
1769.945 -849057 -843832 -851074 -877529 -922829 -978074 -1030636 -1069673 
1773.802 -1090495 -1095651 -1091487 -1083852 -1075589 -1066136 -1052320 
1777.177 -1032156 -1005910 -977711 -953411 -938401 -934764 -940385 -949742 
1781.035 -956684 -957643 -952849 -945708 -940616 -940716 -946402 -955230 
1784.892 -964222 -970471 -973413 -973678 -972124 -968851 -962239 -950204 
1788.750 -932020 -909140 -885696 -868171 -862847 -873296 -899055 -935128 
1792.607 -974802 -1011794 -1043032 -1068648 -1090396 -1109830 -1127280 
1795.982 -1142283 -1154081 -1163036 -1170835 -1179922 -1192545 -1209165 
1799.358 -1228461 -1247888 -1263978 -1275046 -1281025 -1282941 -1281983 
1802.733 -1278746 -1273163 -1264441 -1252514 -1238373 -1223703 -1210388 
1806.108 -1199153 -1188877 -1177708 -1163499 -1145489 -1125363 -1106194 
1809.483 -1092115 -1085604 -1087025 -1094263 -1103716 -1112242 -1118125 
1812.859 -1121628 -1123248 -1123909 -1122785 -1118026 -1107186 -1089206 
1816.234 -1064219 -1034503 -1003430 -973149 -944485 -916910 -888639 -858151 
1820.091 -824982 -789925 -754336 -719538 -686458 -655956 -629256 -607782 
1823.949 -592959 -584720 -580550 -574859 -561821 -536804 -499208 -453235 
1827.806 -406960 -369949 -348893 -345450 -353926 -364785 -367069 -354025 
1831.664 -325519 -285786 -241347 -197036 -154609 -112442 -67091 -15638 42546 
1836.003 105843 171635 238199 306299 379252 461371 556610 666804 790833 
1840.343 926022 1069026 1216894 1366873 1516938 1664326 1806442 1941581 
1844.200 2069704 2193570 2316504 2441072 2566443 2688316 2798985 2889635 
1848.058 2953716 2987711 2991948 2969662 2925160 2861218 2778510 2676381 
1851.915 2554611 2415316 2263209 2105096 1946840 1792401 1642408 1495359 
1855.772 1349390 1204434 1062715 927649 802252 687113 579835 476861 374775 
1860.112 272845 172828 78766 -6162 -80442 -146063 -206044 -263037 -317241 
1864.452 -367003 -408747 -440360 -462702 -479913 -498182 -522805 -555368 
1868.309 -592760 -628693 -656485 -671935 -675805 -671538 -663995 -656386 
1872.167 -649868 -643780 -637990 -633590 -633524 -641398 -659793 -688542 
1876.024 -725096 -764921 -804510 -842906 -881861 -925110 -975463 -1033677 
1879.881 -1097634 -1163036 -1226049 -1284593 -1339132 -1391683 -1443534 
1883.257 -1494190 -1540482 -1578648 -1605883 -1622290 -1631368 -1638597 
1886.632 -1648796 -1664541 -1685203 -1707713 -1728901 -1746524 -1760186 
1890.007 -1770647 -1777708 -1779886 -1774310 -1758800 -1732927 -1700221 
1893.382 -1666918 -1639521 -1622719 -1617338 -1620144 -1625954 -1630344 
1896.758 -1631896 -1632160 -1634305 -1639983 -1648400 -1655464 -1656289 
1900.133 -1647509 -1628727 -1603671 -1577624 -1555075 -1537808 -1524139 
1903.508 -1511327 -1496898 -1480949 -1466122 -1455852 -1452451 -1455654 
1906.883 -1461796 -1466749 -1467080 -1462688 -1456479 -1452054 -1452616 
1910.259 -1458230 -1466386 -1473420 -1476194 -1474873 -1471042 -1467740 
1913.634 -1466452 -1467542 -1469490 -1471967 -1476524 -1487289 -1509214 
1917.009 -1545270 -1593207 -1645925 -1692398 -1723950 -1736788 -1734709 
1920.384 -1726558 -1722234 -1728439 -1746128 -1770416 -1793416 -1808759 
1923.760 -1814533 -1813313 -1810310 -1809848 -1813445 -1819384 -1824762 
1927.135 -1828523 -1833044 -1842546 -1861286 -1890054 -1924858 -1958042 
1930.510 -1981559 -1991026 -1988057 -1979548 -1974336 -1978261 -1992279 
1933.885 -2011342 -2028756 -2039045 -2041156 -2038946 -2038089 -2042409 
1937.260 -2052105 -2063284 -2070737 -2071627 -2067967 -2064768 -2068132 
1940.636 -2081091 -2101338 -2121716 -2133355 -2131442 -2116704 -2096293 
1944.011 -2078519 -2069088 -2067505 -2068132 -2062955 -2046828 -2019983 
1947.386 -1987892 -1959064 -1938910 -1927892 -1921592 -1913477 -1899094 
1950.761 -1878508 -1856799 -1841127 -1836046 -1841094 -1852081 -1862276 
1954.137 -1868115 -1870689 -1875209 -1888603 -1914961 -1951610 -1991850 
1957.512 -2026777 -2051214 -2065790 -2076970 -2093589 -2121254 -2159995 
1960.887 -2203348 -2242181 -2270363 -2286217 -2293831 -2298281 -2303521 
1964.262 -2308795 -2309981 -2302664 -2287008 -2267727 -2254805 -2256058 
1967.638 -2274780 -2306323 -2340301 -2367786 -2383900 -2392138 -2400903 
1971.013 -2418499 -2448417 -2485382 -2518425 -2535818 -2532524 -2510453 
1974.388 -2478266 -2444298 -2411085 -2372531 -2316705 -2233709 -2122210 
1977.763 -1994159 -1870887 -1773287 -1715601 -1698834 -1713851 -1746161 
1981.139 -1783747 -1822023 -1862936 -1911465 -1970576 -2037660 -2105328 
1984.514 -2164314 -2208260 -2236016 -2252498 -2264529 -2276197 -2287404 
1987.889 -2293040 -2288195 -2270429 -2243104 -2213073 -2188843 -2173875 
1991.264 -2166325 -2158841 -2143147 -2114956 -2076574 -2036110 -2002668 
1994.640 -1983703 -1980603 -1989541 -2003493 -2016553 -2026117 -2033340 
1998.015 -2041057 -2050192 -2060448 -2067967 -2070605 -2068429 -2065889 
2001.390 -2070440 -2088940 -2123595 -2171172 -2223292 -2270297 -2304147 
2004.765 -2321187 -2321813 -2308102 -2282460 -2246301 -2200678 -2150335 
2008.141 -2102525 -2068000 -2055798 -2069451 -2102954 -2144268 -2175787 
2011.516 -2183996 -2162929 -2117067 -2058074 -1999172 -1950620 -1916347 
2014.891 -1894145 -1880322 -1872239 -1870590 -1876660 -1891209 -1910376 
2018.266 -1926078 -1928882 -1912982 -1878244 -1831823 -1784308 -1745600 
2021.642 -1719924 -1704412 -1691804 -1674806 -1649787 -1618791 -1587726 
2025.017 -1562306 -1544213 -1531601 -1518856 -1501058 -1477647 -1452054 
2028.392 -1429433 -1413911 -1404795 -1396935 -1382534 -1355450 -1313235 
2031.767 -1258362 -1195981 -1129989 -1061410 -988124 -908677 -823891 -739848 
2035.625 -664657 -605930 -565660 -538855 -515590 -484778 -440558 -384284 
2039.482 -324989 -273832 -240320 -227173 -230154 -240420 -248533 -250023 
2043.340 -244824 -237009 -230485 -227438 -224723 -216907 -197301 -161763 
2047.197 -108964 -41051 38437 124403 211546 293766 364329 417457 450657 
2051.537 466413 472516 479847 500148 539657 597519 664912 728499 775498 
2055.876 799232 799995 786518 769623 758736 758304 767698 782601 798867 
2060.216 814037 827880 841392 853775 862539 863469 853376 832760 806900 
2064.555 783929 771482 774137 790302 813539 834652 846869 847434 838636 
2068.895 824892 811381 800493 791132 780643 766934 749542 730557 713132 
2073.235 699592 690133 683264 676991 670587 665808 665974 674436 692655 
2077.574 718774 748347 776228 798966 815863 828411 839566 851185 863237 
2081.914 873429 879604 880567 877612 873495 871503 873529 879239 886710 
2086.253 892985 896039 895076 890030 880899 866557 844844 813871 774668 
2090.593 730689 689104 658209 644703 650776 673938 707026 742704 774900 
2094.933 800991 822071 840595 858190 875189 889731 900854 908590 915994 
2099.272 927483 946643 974803 1010038 1048266 1085368 1118985 1150744 
2103.130 1184067 1222841 1268498 1319843 1372856 1423017 1467764 1506996 
2106.987 1543306 1580450 1620457 1664127 1709897 1756470 1803081 1850796 
2110.844 1901012 1955094 2011680 2067707 2118414 2160202 2192204 2216482 
2114.702 2237031 2258080 2281595 2307077 2332127 2354181 2372903 2390128 
2118.559 2410019 2436141 2470129 2510852 2554745 2597509 2636343 2670580 
2122.417 2701653 2731727 2761937 2792082 2820962 2848244 2875226 2904479 
2126.274 2939805 2983140 3033721 3086977 3136768 3177720 3207661 3227756 
2130.132 3242577 3257366 3276195 3299531 3326308 3354322 3382372 3411257 
2133.989 3442750 3478120 3515564 3551106 3579870 3598245 3606698 3609471 
2137.846 3613446 3624372 3643718 3667876 3691034 3705871 3708878 3699923 
2141.704 3682913 3662263 3640109 3615418 3584948 3545561 3497560 3444554 
2145.561 3392857 3348546 3314188 3286978 3260704 3227822 3184896 3131161 
2149.419 3070058 3005127 2937570 2864119 2778810 2675714 2551212 2406654 
2153.276 2246656 2075431 1897184 1712292 1521526 1329216 1147488 994861 
2157.134 896305 871802 929874 1060821 1238957 1432491 1610646 1755106 
2160.991 1860512 1931430 1975897 2001560 2012978 2011546 1997799 1973234 
2164.848 1939351 1897684 1849365 1792435 1725365 1646698 1558369 1464738 
2168.706 1371593 1282921 1200347 1121642 1043716 964342 885282 811813 751965 
2173.045 711473 690930 685354 685056 678684 657844 618788 563212 495868 
2177.385 422531 347648 274801 206142 144886 95038 60208 41949 38072 44435 
2182.207 53813 61136 63456 61103 56629 51659 46323 39563 30119 18422 7885 
2187.511 3545 11166 32439 65974 105047 142201 171204 189070 197987 202661 
2192.333 207402 214761 224839 235580 246786 258887 275099 298441 330571 
2196.672 369203 409564 445549 472848 490196 500313 506948 514345 523833 
2201.012 534980 545330 552928 557705 561487 566431 574062 583650 592376 
2205.351 598282 600173 599078 598116 599709 604221 609099 610559 605183 
2209.691 592940 578408 568355 570080 587864 620579 662523 705565 743401 
2214.031 772411 793755 810452 825058 838437 848496 852380 848629 838802 
2218.370 827316 819581 818718 825058 834752 842653 843948 837441 825291 
2222.710 812012 802186 797672 797572 798468 797041 791829 783962 776162 
2227.049 771216 770618 773340 777224 780012 781240 782004 785190 792692 
2231.389 805373 822237 840894 859253 876085 891856 908026 926255 947141 
2235.729 970585 996090 1023390 1053115 1086132 1122506 1160943 1198387 
2239.586 1230650 1255007 1270459 1278634 1283386 1288936 1298241 1312365 
2243.443 1331177 1353811 1380368 1412213 1451108 1497720 1549856 1603263 
2247.301 1651388 1688076 1709664 1716783 1713223 1704342 1694994 1688076 
2251.158 1683452 1680126 1676899 1674438 1675336 1682454 1698288 1723369 
2255.016 1755272 1789806 1822213 1848134 1864772 1870961 1866269 1851295 
2258.873 1827104 1795961 1761061 1726729 1697057 1675103 1661599 1655546 
2262.730 1654215 1655346 1658040 1663495 1674505 1692733 1719045 1751446 
2266.588 1785714 1816823 1840946 1856453 1864006 1866136 1865604 1865005 
2270.445 1864772 1865271 1866303 1867634 1869530 1872159 1875520 1878648 
2274.303 1881178 1882708 1884272 1887833 1895587 1908899 1928302 1951799 
2278.160 1976862 2000462 2020900 2037479 2051261 2063712 2076196 2089048 
2282.018 2102166 2115683 2129502 2144485 2161834 2181381 2202661 2223442 
2285.875 2241527 2254816 2262510 2265674 2266407 2267139 2270004 2275999 
2289.732 2284959 2296451 2310075 2325565 2343620 2364575 2388729 2415649 
2293.590 2444371 2473895 2503553 2533048 2561911 2589909 2616042 2639176 
2297.447 2658378 2673081 2683916 2691751 2697852 2702653 2706287 2707721 
2301.305 2706387 2702286 2696285 2690517 2687283 2688083 2693084 2701119 
2305.162 2710455 2719324 2727359 2735628 2745898 2760336 2780011 2804688 
2309.020 2833102 2863252 2893505 2922959 2951314 2978636 3005360 3030985 
2312.877 3055343 3078100 3099257 3119280 3138871 3158295 3177553 3195811 
2316.734 3212100 3225886 3237537 3248152 3259436 3272856 3289415 3309080 
2320.592 3331316 3354556 3377095 3396864 3411157 3417402 3412827 3395562 
2324.449 3365041 3322936 3273257 3220746 3171178 3128992 3096854 3075330 
2328.307 3063017 3057945 3057745 3060882 3066521 3073929 3082572 3091715 
2332.164 3100959 3110203 3120415 3132930 3149350 3170344 3195577 3223650 
2336.021 3252725 3281202 3308279 3334522 3360900 3388282 3416801 3445589 
2339.879 3473377 3499230 3523180 3545761 3568745 3592866 3617990 3642448 
2343.736 3663866 3680307 3690967 3697182 3702195 3710783 3727493 3755600 
2347.594 3797345 3852233 3918896 3994297 4074360 4154706 4230215 4296936 
2351.451 4351820 4394158 4425355 4448518 4467901 4486582 4506769 4529235 
2355.309 4553610 4579594 4607287 4636857 4669009 4703808 4740587 4778039 
2359.166 4814724 4849703 4883244 4915883 4948557 4981469 5014182 5045758 
2363.023 5075593 5104055 5132486 5162930 5197267 5235932 5278156 5321793 
2366.881 5364327 5404114 5440583 5473968 5504973 5533766 5559339 5580080 
2370.738 5594546 5602433 5604715 5604346 5604984 5609851 5621263 5640396 
2374.596 5667284 5701828 5743829 5792952 5849368 5912375 5981236 6054342 
2378.453 6130350 6208354 6287953 6369213 6452709 6538339 6625702 6713924 
2382.311 6801862 6888638 6973917 7057562 7139405 7218904 7294712 7365141 
2386.168 7428570 7483885 7531014 7570596 7603639 7631256 7654457 7673241 
2390.025 7688114 7699277 7707338 7712903 7716883 7719345 7720357 7719582 
2393.883 7716984 7713106 7709261 7707169 7708181 7713443 7723123 7736783 
2397.740 7753986 7774933 7800098 7830764 7868146 7912753 7964484 8022634 
2401.598 8086093 8153982 8226239 8303202 8385651 8473861 8568102 8667604 
2405.455 8771963 8880507 8993171 9109959 9231110 9356460 9486146 9620275 
2409.313 9759562 9905064 10057735 10218127 10385229 10556674 10728729 
2412.688 10896809 11057069 11207086 11345149 11471552 11586149 11689170 
2416.063 11779618 11856771 11919668 11968678 12004987 12030739 12047772 
2419.438 12057958 12061739 12060036 12053290 12043105 12031625 12021950 
2422.813 12016807 12018169 12026788 12042901 12066066 12096626 12135195 
2426.189 12183410 12242674 12314455 12399033 12496211 12605792 12727786 
2429.564 12862647 13011172 13173684 13349922 13538743 13738248 13946125 
2432.939 14161324 14382692 14609999 14842875 15081229 15324450 15572203 
2436.314 15824702 16083056 16348995 16624702 16911402 17209494 17517934 
2439.690 17834636 18157928 18486126 18818968 19156982 19500422 19849788 
2443.065 20204538 20563990 20927494 21294610 21665658 22040964 22420640 
2446.440 22803824 23188818 23573278 23954716 24331128 24701240 25064678 
2449.815 25421434 25771870 26116010 26454436 26787064 27114234 27435436 
2453.191 27750274 28056964 28353576 28637614 28907496 29161740 29400038 
2456.566 29622362 29827762 30014868 30180708 30321242 30432110 30509876 
2459.941 30552036 30558114 30528290 30464060 30367328 30240170 30085174 
2463.316 29906200 29708178 29497514 29280784 29064836 28855722 28658214 
2466.692 28476042 28312514 28170260 28052652 27962532 27903132 27876564 
2470.067 27883946 27925570 28000768 28107862 28245430 28411162 28602436 
2473.442 28816242 29048398 29294432 29549966 29810444 30072142 30331688 
2476.817 30585844 30831540 31065630 31284820 31485558 31664864 31819746 
2480.193 31948116 32048698 32120544 32163862 32179524 32168500 32132570 
2483.568 32073740 31994622 31897868 31787374 31666894 31540316 31411498 
2486.943 31282790 31155222 31027942 30898954 30765098 30623496 30472056 
2490.318 30309516 30135922 29951782 29757428 29552804 29337252 29109406 
2493.694 28867728 28610646 28337166 28046750 27739114 27414898 27074170 
2497.069 26718452 26348944 25967720 25576812 25178566 24774934 24367680 
2500.444 23958358 23548964 23141320 22738286 22342458 21956264 21581694 
2503.819 21219484 20869190 20529772 20200026 19879166 19567312 19265346 
2507.195 18975082 18697878 18434818 18186328 17952100 17731460 17523556 
2510.570 17327928 17144138 16971486 16809994 16658684 16517304 16385639 
2513.945 16263507 16151315 16049465 15958123 15877385 15807211 15747460 
2517.320 15698366 15660098 15633855 15620150 15619531 15631588 15655186 
2520.696 15688576 15729664 15776390 15827039 15880512 15936021 15993185 
2524.071 16051872 16111700 16172498 16233444 16293228 16350579 16403427 
2527.446 16450021 16488874 16518578 16538162 16546870 16543910 16528249 
2530.821 16499165 16456043 16399609 16331725 16255252 16173737 16090484 
2534.197 16008105 15927738 15849857 15773986 15699981 15628085 15558741 
2537.572 15492945 15431039 15373056 15318443 15266927 15218299 15173828 
2540.947 15135091 15103973 15081778 15067782 15059995 15054850 15048366 
2544.322 15037355 15019931 14995579 14965603 14932062 14897325 14863482 
2547.698 14832316 14805094 14782331 14764025 14749422 14736979 14724605 
2551.073 14711066 14694854 14676312 14656434 14636831 14619046 14603899 
2554.448 14591221 14579845 14568742 14556751 14543490 14529066 14513649 
2557.823 14497752 14480760 14462057 14440236 14414546 14383651 14347794 
2561.198 14306528 14259822 14208122 14151637 14091257 14028729 13966073 
2564.574 13906061 13850880 13802103 13760034 13723988 13692562 13664488 
2567.949 13638707 13615526 13595423 13579765 13569749 13566091 13569065 
2571.324 13578261 13592859 13611902 13634091 13658709 13685243 13713421 
2574.699 13743344 13775835 13811440 13850401 13892787 13937914 13984961 
2578.075 14033212 14082050 14131372 14181419 14232122 14283380 14334848 
2581.450 14386117 14437084 14488537 14541983 14599239 14662363 14732043 
2584.825 14808248 14889404 14973251 15057663 15141198 15223446 15305332 
2588.200 15387817 15472068 15558844 15648419 15740486 15835080 15931690 
2591.576 16030177 16129890 16229866 16328491 16423970 16514722 16599676 
2594.951 16678654 16752342 16821876 16888872 16954604 17019724 17085236 
2598.326 17151308 17218734 17287962 17359688 17434354 17512654 17595044 
2601.701 17681866 17773466 17870266 17972198 18079092 18190680 18305854 
2605.077 18424172 18544906 18667854 18793432 18922368 19055392 19193654 
2608.452 19337640 19487634 19643468 19804460 19969496 20136752 20304138 
2611.827 20469228 20630070 20784684 20932188 21072126 21204872 21330872 
2615.202 21450922 21565536 21675132 21780330 21881302 21978326 22071500 
2618.578 22160268 22244168 22322402 22394402 22459858 22519458 22574390 
2621.953 22626292 22676978 22727670 22779380 22832460 22886700 22942096 
2625.328 22998444 23055568 23113364 23171518 23229608 23287530 23345184 
2628.703 23402772 23460860 23520424 23581848 23645730 23711828 23779722 
2632.079 23848218 23916238 23982552 24046178 24105790 24160922 24211262 
2635.454 24257438 24300362 24342062 24384188 24428666 24476724 24528468 
2638.829 24583936 24641968 24702256 24764444 24828642 24895166 24964332 
2642.204 25036318 25110630 25186644 25264002 25342324 25421714 25502700 
2645.580 25585844 25671360 25759704 25851092 25946050 26045042 26148876 
2648.955 26257732 26371758 26489792 26610008 26730468 26849446 26966166 
2652.330 27081046 27195642 27311922 27432014 27557258 27688046 27824030 
2655.705 27964334 28108004 28254164 28402140 28551584 28702104 28853138 
2659.081 29004578 29156108 29307830 29460138 29613278 29767468 29922884 
2662.456 30079456 30236654 30394190 30551964 30709758 30868004 31026980 
2665.831 31186658 31346676 31506826 31666324 31824772 31981568 32136920 
2669.206 32291296 32445334 32600138 32756678 32915882 33078544 33244878 
2672.582 33414856 33588228 33764680 33943244 34123708 34305392 34488304 
2675.957 34671692 34855580 35039372 35222556 35405064 35586644 35767504 
2679.332 35948548 36130568 36315048 36503272 36696992 36897940 37107604 
2682.707 37327448 37558240 37800284 38053644 38317244 38590060 38870984 
2686.083 39158976 39453620 39754636 40062004 40375732 40696016 41022552 
2689.458 41355380 41694040 42038916 42389840 42747080 43110836 43481304 
2692.833 43859092 44244212 44636908 45037164 45444784 45859224 46279776 
2696.208 46705644 47136584 47572052 48012360 48457680 48907972 49362968 
2699.583 49821708 50283464 50746980 51211888 51678036 52145544 52614568 
2702.959 53084624 53554324 54022060 54485224 54941856 55389892 55827992 
2706.334 56254508 56668416 57067904 57450896 57815788 58161020 58486288 
2709.709 58791992 59079500 59350176 59605748 59846864 60073616 60285912 
2713.084 60482992 60663940 60827956 60973888 61100452 61206456 61290276 
2716.460 61351028 61387892 61400944 61390640 61358544 61306264 61236212 
2719.835 61151564 61055908 60953184 60848196 60745480 60649880 60565340 
2723.210 60495636 60443540 60411360 60400548 60412008 60446320 60503560 
2726.585 60583396 60685732 60810308 60956804 61124860 61313780 61522252 
2729.961 61748700 61990700 62245844 62511688 62785976 63067064 63353388 
2733.336 63643588 63936168 64229368 64521388 64810520 65095388 65374964 
2736.711 65648444 65914996 66173992 66424236 66665300 66896112 67116912 
2740.086 67328568 67532664 67731448 67927640 68124000 68323624 68529400 
2743.462 68743960 68969936 69209352 69463328 69731880 70014304 70308488 
2746.837 70611992 70921352 71233176 71543416 71848128 72142544 72422392 
2750.212 72683344 72921568 73134624 73320728 73479656 73612400 73720640 
2753.587 73806552 73872264 73919792 73949840 73962616 73956520 73929456 
2756.963 73878312 73799880 73691656 73551832 73379176 73173248 72933720 
2760.338 72660272 72352800 72011976 71639024 71236768 70809328 70361584 
2763.713 69898464 69424952 68945352 68463368 67983048 67508984 67045524 
2767.088 66598320 66172184 65771252 65398924 65056936 64746560 64468572 
2770.464 64223148 64010540 63830344 63681416 63561500 63467920 63397132 
2773.839 63345952 63311376 63290828 63281744 63281320 63286224 63291512 
2777.214 63292012 63282200 63256176 63209036 63136792 63036604 62906944 
2780.589 62747808 62560976 62349600 62118636 61874304 61622248 61368580 
2783.965 61118112 60874116 60638792 60412808 60195700 59986072 59781040 
2787.340 59577508 59370692 59156380 58930328 58689724 58432912 58160792 
2790.715 57875068 57579012 57276048 56969784 56663732 56360880 56064536 
2794.090 55777812 55503924 55246240 55007852 54791396 54599244 54432904 
2797.466 54293660 54182124 54098608 54042920 54014516 54012716 54036280 
2800.841 54083860 54153784 54243576 54350620 54471928 54604092 54744148 
2804.216 54889744 55038992 55190964 55345368 55501664 55659148 55816580 
2807.591 55971616 56121352 56262616 56391744 56505092 56598956 56670152 
2810.967 56715720 56733392 56721916 56681292 56612244 56516340 56395552 
2814.342 56252056 56087872 55905432 55708228 55500836 55288988 55080068 
2817.717 54881844 54702320 54549424 54429332 54347804 54308680 54314348 
2821.092 54365828 54462312 54601948 54780760 54994728 55238300 55505844 
2824.468 55791332 56088664 56391140 56692124 56984592 57261796 57518144 
2827.843 57749060 57951396 58123896 58266384 58379656 58465356 58525524 
2831.218 58563172 58581756 58585584 58579480 58568256 58556312 58547968 
2834.593 58546564 58555136 58576520 58613532 58668748 58744872 58844840 
2837.969 58971508 59128928 59322296 59558580 59846336 60195772 60618332 
2841.344 61125588 61729372 62442672 63278140 64250848 65378012 66677048 
2844.719 68166056 69858536 71759392 73858392 76125376 78507848 80923384 
2848.094 83268976 85427072 87268192 88677080 89559896 89855688 89547760 
2851.469 88661680 87263488 85442152 83306424 80971376 78540048 76108360 
2854.845 73755976 71539592 69500696 67661592 66027968 64593048 63340352 
2858.220 62248176 61291268 60445672 59689904 59004112 58372492 57781608 
2861.595 57220024 56678948 56152084 55634708 55125016 54622764 54129988 
2864.970 53649956 53188012 52751144 52346968 51984364 51672512 51418324 
2868.346 51227320 51101400 51039384 51035992 51083284 51171140 51286752 
2871.721 51417388 51550040 51672288 51774820 51851536 51899928 51921996 
2875.096 51922444 51907660 51884656 51858932 51835188 51816444 51804276 
2878.471 51800392 51806252 51823316 51852696 51894812 51949816 52016856 
2881.847 52095296 52184292 52283952 52394028 52514420 52644416 52783056 
2885.222 52928592 53079156 53233480 53390632 53551248 53716504 53888496 
2888.597 54069676 54262532 54469336 54692172 54933132 55194652 55479792 
2891.972 55793180 56141148 56532000 56976320 57485840 58071968 58745028 
2895.348 59511232 60370924 61316300 62330516 63386784 64446664 65467372 
2898.723 66401028 67200992 67831176 68267400 68504368 68554496 68448272 
2902.098 68228392 67941000 67634520 67351704 67125688 66983700 66944196 
2905.473 67020468 67222376 67556944 68030320 68647936 69415272 70338912 
2908.849 71426152 72684560 74120888 75738464 77534720 79498048 81605088 
2912.224 83823064 86105872 88396960 90636632 92757608 94694040 96389168 
2915.599 97793680 98875616 99622032 100038920 100148984 99985360 99588696 
2918.974 98996288 98238648 97337736 96303872 95139504 93841976 92408880 
2922.350 90841496 89149728 87351928 85476688 83560712 81642152 79760896 
2925.725 77952416 76243480 74653648 73193096 71863736 70660760 69575008 
2929.100 68594152 67703792 66890076 66140392 65443920 64793020 64183088 
2932.475 63611516 63077748 62581496 62122344 61699084 61309700 60951544 
2935.851 60621456 60315604 60029180 59757124 59493332 59231908 58968396 
2939.226 58700304 58428700 58157384 57893124 57643516 57416136 57216812 
2942.601 57048744 56912024 56803100 56715456 56639536 56562832 56472412 
2945.976 56355260 56200764 56003992 55766432 55497296 55211400 54928392 
2949.352 54669024 54449996 54284608 54178744 54131752 54137268 54184788 
2952.727 54262312 54356628 54455700 54549200 54628328 54686760 54720432 
2956.102 54726820 54705400 54657260 54584892 54491384 54381112 54259228 
2959.477 54130512 53999620 53870528 53746016 53628432 53519168 53419596 
2962.853 53331212 53255316 53192956 53144496 53109412 53086532 53074064 
2966.228 53070620 53075260 53088032 53109412 53139628 53178988 53226740 
2969.603 53281836 53343612 53412176 53488848 53576216 53676872 53793268 
2972.978 53926236 54074704 54235088 54401768 54567796 54724416 54862560 
2976.354 54972840 55045912 55073672 55050276 54972312 54840492 54658576 
2979.729 54434484 54177656 53899488 53611828 53325032 53048528 52789608 
2983.104 52552452 52338184 52144236 51965316 51792960 51617280 51429324 
2986.479 51221208 50988404 50730188 50448784 50148224 49832968 49505800 
2989.854 49166524 48812420 48437892 48037232 47605992 47143340 46652476 
2993.230 46141204 45620632 45102080 44595968 44109076 43643392 43196576 
2996.605 42762732 42334972 41906400 41471944 41029504 40579880 40125740 
2999.980 39671420 39221420 38779928 38349852 37933072 37529772 37139584 
3003.355 36761212 36393260 36034472 35684512 35343384 35011716 34690640 
3006.731 34381132 34084136 33800100 33529274 33270992 33024308 32787512 
3010.106 32558672 32335840 32116834 31900544 31686458 31474798 31266730 
3013.481 31063496 30866010 30674804 30489510 30309446 30133932 29962680 
3016.856 29796000 29634634 29479500 29330942 29188956 29052684 28920812 
3020.232 28792450 28666920 28544084 28424674 28309474 28199394 28095314 
3023.607 27998046 27908362 27827810 27758010 27701112 27659158 27633310 
3026.982 27623670 27629142 27646728 27671836 27698994 27721278 27731414 
3030.357 27723008 27690270 27629638 27540240 27423896 27284260 27126718 
3033.733 26956646 26779346 26598734 26418130 26239466 26064674 25894912 
3037.108 25731262 25573930 25423014 25277770 25137418 25001394 24869482 
3040.483 24741960 24619878 24503682 24394352 24291286 24193990 24101306 
3043.858 24012002 23925236 23840694 23758304 23678900 23603292 23532386 
3047.234 23467188 23408716 23357282 23312982 23274876 23241248 23209962 
3050.609 23178892 23146074 23110604 23072550 23032404 22991282 22949956 
3053.984 22908844 22868048 22827676 22788146 22750296 22715380 22684728 
3057.359 22659454 22640150 22626536 22618054 22614318 22614562 22619032 
3060.735 22627688 22640290 22656696 22676420 22698902 22724214 22752564 
3064.110 22785004 22822752 22866580 22916352 22971230 23029014 23086982 
3067.485 23142370 23192802 23236284 23271380 23297530 23314206 23321478 
3070.860 23319906 23310640 23295258 23276136 23255546 23235514 23217722 
3074.236 23203112 23192104 23184624 23180046 23178052 23177844 23178542 
3077.611 23179520 23179520 23177494 23172636 23164424 23152644 23137826 
3080.986 23120772 23102392 23083906 23066192 23050188 23036318 23025032 
3084.361 23016402 23010882 23008926 23011336 23018884 23032718 23053054 
3087.737 23079644 23111374 23146598 23183016 23218562 23251770 23282252 
3091.112 23310116 23336896 23363784 23392142 23422634 23455576 23490692 
3094.487 23527698 23566386 23607000 23649964 23696328 23746964 23802052 
3097.862 23861732 23925482 23992076 24060468 24129572 24198684 24267598 
3101.238 24335966 24404446 24472832 24541160 24609006 24676022 24741680 
3104.613 24806122 24869658 24932960 24996480 25060678 25125376 25190190 
3107.988 25254662 25318264 25381070 25443602 25506812 25571716 25638986 
3111.363 25709080 25781854 25856964 25933776 26012114 26091484 26171504 
3114.739 26251786 26331692 26410314 26487258 26562066 26634880 26706084 
3118.114 26776032 26844936 26912438 26977976 27040810 27100654 27157300 
3121.489 27211586 27264926 27318804 27374842 27434026 27496784 27562764 
3124.864 27631472 27701852 27773268 27844802 27916064 27987056 28057848 
3128.240 28128614 28199500 28270784 28342188 28413638 28484888 28555972 
3131.615 28627032 28698672 28771596 28846482 28923894 29004082 29086696 
3134.990 29171380 29257390 29344128 29430992 29517374 29602994 29687174 
3138.365 29769492 29849978 29928778 30006242 30083044 30159788 30236866 
3141.740 30314314 30392378 30471206 30551146 30633202 30718116 30806356 
3145.116 30898136 30992532 31088408 31184520 31279870 31374350 31468600 
3148.491 31563584 31660262 31758926 31859074 31959634 32059434 32157332 
3151.866 32252714 32346052 32437656 32528318 32618892 32709944 32802022 
3155.241 32895476 32990522 33086948 33184648 33282618 33380256 33476946 
3158.617 33572228 33667028 33761992 33858444 33957072 34058192 34161056 
3161.992 34264768 34368476 34471840 34575304 34679620 34785720 34894252 
3165.367 35004964 35116816 35228880 35339860 35448852 35555680 35660300 
3168.742 35762720 35863000 35961040 36056580 36149656 36240588 36329812 
3172.118 36417940 36505220 36591616 36677164 36761104 36843292 36923444 
3175.493 37001444 37077440 37151492 37223976 37295204 37365904 37437340 
3178.868 37510012 37584864 37661720 37739996 37818720 37896772 37973716 
3182.243 38049772 38125624 38202572 38280944 38360780 38441068 38520536 
3185.619 38597952 38673104 38746564 38819420 38893520 38969592 39047852 
3188.994 39127900 39208620 39289136 39368792 39447996 39526996 39606588 
3192.369 39687396 39769340 39852468 39936552 40021164 40105896 40190616 
3195.744 40274620 40357368 40438752 40518656 40597596 40676152 40754756 
3199.120 40833516 40911932 40989484 41065376 41139392 41212284 41285520 
3202.495 41360552 41438588 41519992 41604108 41689116 41773596 41856192 
3205.870 41936068 42013332 42088200 42160924 42231728 42300748 42368364 
3209.245 42435652 42503724 42574072 42647244 42723572 42801524 42879820 
3212.621 42956332 43029756 43099784 43167008 43232228 43296836 43361344 
3215.996 43426008 43491228 43556972 43623864 43692452 43763248 43836216 
3219.371 43910888 43986484 44062204 44137608 44213028 44289196 44367060 
3222.746 44447324 44530064 44614548 44699708 44784368 44867796 44949552 
3226.122 45029596 45108436 45186340 45263632 45340536 45417080 45493124 
3229.497 45568412 45642308 45714232 45783924 45850828 45915788 45979544 
3232.872 46043460 46108672 46175916 46245020 46315344 46385912 46456152 
3236.247 46525628 46594896 46664468 46734940 46806528 46878904 46952108 
3239.623 47025984 47101092 47177912 47256628 47336988 47417400 47496272 
3242.998 47571792 47643152 47711188 47777688 47845196 47916192 47991676 
3246.373 48071580 48154348 48238460 48322668 48406668 48490648 48575348 
3249.748 48660880 48746504 48831180 48913496 48992828 49069540 49145188 
3253.124 49221328 49299864 49381492 49465884 49551816 49638172 49723616 
3256.499 49807404 49889236 49969044 50047008 50123196 50197692 50271304 
3259.874 50344780 50419084 50494856 50572172 50650052 50727244 50802136 
3263.249 50873732 50941796 51006892 51070204 51132968 51196264 51260728 
3266.625 51326540 51393856 51462972 51534560 51608888 51686284 51766384 
3270.000 51848400 51931036 52013160 52093692 52172668 52250168 52326820 
3273.375 52403452 52481068 52560416 52642060 52726416 52813144 52901792 
3276.750 52991588 53081628 53171572 53261836 53353504 53448264 53548256 
3280.125 53655316 53769940 53891876 54020108 54152508 54287692 54424040 
3283.501 54561072 54698820 54837520 54977916 55120840 55267276 55418164 
3286.876 55574148 55736032 55903772 56077428 56256280 56439696 56626852 
3290.251 56817148 57010244 57206264 57405324 57607988 57815252 58028264 
3293.626 58248384 58477072 58715212 58963084 59220284 59485280 59756668 
3297.002 60033404 60315148 60602292 60896000 61196804 61505376 61821008 
3300.377 62142796 62469452 62800296 63135184 63475052 63821016 64174324 
3303.752 64536036 64906584 65286152 65674692 66071676 66476664 66888572 
3307.127 67306208 67727688 68152256 68579912 69011728 69449800 69896400 
3310.503 70353368 70821032 71298256 71783200 72273896 72769096 73269064 
3313.878 73774904 74288064 74809416 75338976 75875880 76418152 76965256 
3317.253 77516496 78072408 78633640 79200272 79771448 80345912 80921304 
3320.628 81496224 82069976 82642736 83215440 83789184 84364688 84942416 
3324.004 85522032 86103120 86684656 87265432 87843384 88415640 88978816 
3327.379 89529768 90066176 90587152 91093320 91585752 92065888 92533352 
3330.754 92987152 93425032 93844856 94245200 94625312 94984688 95322608 
3334.129 95637336 95925728 96184488 96410928 96604248 96765776 96898704 
3337.505 97006240 97091008 97152992 97190464 97199656 97177200 97119592 
3340.880 97025464 96894232 96726160 96522224 96282744 96008376 95699616 
3344.255 95356200 94977512 94562112 94108512 93614768 93079960 92505096 
3347.630 91892792 91248232 90576664 89883480 89172560 88446056 87704480 
3351.006 86948008 86176696 85390936 84592016 83781184 82959960 82129704 
3354.381 81292288 80450664 79608512 78770856 77942424 77127440 76328480 
3357.756 75546360 74780640 74030072 73294128 72572976 71867448 71178672 
3361.131 70507600 69854296 69218016 68597960 67992808 67401856 66825068 
3364.507 66262296 65713928 65180420 64662448 64161032 63677348 63212448 
3367.882 62766752 62339808 61929480 61533172 61147480 60769564 60397692 
3371.257 60031272 59670636 59315916 58967144 58623164 58282032 57941584 
3374.632 57599740 57254988 56906356 56553020 56193940 55828560 55455772 
3378.008 55075252 54687248 54292344 53891760 53486636 53077136 52662856 
3381.383 52242584 51814912 51378712 50933860 50480640 50020608 49554860 
3384.758 49084972 48612144 48137800 47662968 47189324 46718780 46252720 
3388.133 45792800 45339796 44893700 44454368 44020912 43592324 43167816 
3391.509 42746972 42329496 41915708 41505628 41099616 40698056 40300868 
3394.884 39907892 39518868 39133592 38751528 38372944 37998384 37628908 
3398.259 37265452 36908620 36558344 36213792 35873116 35533996 35194564 
3401.634 34853320 34509940 34165360 33821696 33481278 33146128 32817814 
3405.010 32496892 32182560 31873622 31568394 31265556 30964280 30664384 
3408.385 30366688 30071252 29778896 29489534 29202920 28918688 28636658 
3411.760 28357218 28080788 27808276 27540524 27277770 27019970 26766554 
3415.135 26517088 26271460 26029948 25793318 25562440 25337934 25119652 
3418.510 24906466 24697136 24489868 24283718 24078610 23874930 23674108 
3421.886 23477506 23285958 23100120 22919916 22744638 22573202 22404556 
3425.261 22237438 22070768 21903604 21735218 21565536 21394600 21223208 
3428.636 21052268 20882956 20716250 20553082 20393446 20237792 20085908 
3432.011 19937754 19793362 19652380 19514736 19380218 19247820 19117264 
3435.387 18987750 18858968 18730086 18600930 18471810 18342386 18213036 
3438.762 18084136 17955552 17827422 17699052 17570166 17439872 17308134 
3442.137 17174954 17040918 16906476 16772455 16638955 16505498 16371394 
3445.512 16236264 16100179 15964584 15831815 15704619 15585083 15474163 
3448.888 15371030 15272933 15176813 15079343 14978258 14872706 14763134 
3452.263 14651190 14538625 14426877 14316356 14207575 14099950 13993139 
3455.638 13886561 13779939 13672899 13565202 13457053 13348760 13240837 
3459.013 13134100 13028721 12924837 12821898 12718915 12614831 12509101 
3462.389 12402033 12294889 12189305 12087052 11989183 11895830 11805970 
3465.764 11718104 11630424 11542117 11452535 11361373 11269175 11175807 
3469.139 11081711 10986990 10891916 10797373 10704175 10613271 10525339 
3472.514 10440005 10356520 10273323 10188920 10102398 10013519 9923302 
3475.890 9832866 9744246 9658997 9578203 9502232 9430914 9363468 9298502 
3479.747 9234495 9170192 9104376 9036540 8966922 8896537 8826604 8758710 
3483.604 8693666 8631945 8573307 8516705 8461562 8406934 8352582 8299049 
3487.462 8246466 8195310 8145745 8097267 8049130 8000562 7951086 7900470 
3491.319 7849657 7799390 7751051 7705753 7664237 7626805 7593456 7563954 
3495.177 7538127 7515742 7496863 7481525 7469626 7460895 7454828 7451390 
3499.034 7450143 7451120 7454862 7461637 7471716 7485065 7500706 7518068 
3502.892 7536374 7555626 7576901 7601953 7632976 7671622 7718570 7772875 
3506.749 7832856 7895746 7958949 8021420 8083257 8146083 8211956 8283074 
3510.606 8360791 8444636 8533735 8626368 8720981 8816697 8913076 9010187 
3514.464 9107997 9206200 9303648 9398815 9490007 9576001 9656388 9730759 
3518.321 9799721 9863676 9922590 9975986 10022877 10061975 10091749 10110402 
3522.179 10116743 10109282 10087408 10050987 10000465 9936727 9860863 
3525.554 9773728 9675870 9567398 9448388 9318915 9179363 9030756 8874792 
3529.411 8712834 8546644 8377579 8206621 8034853 7862882 7691183 7520023 
3533.269 7348999 7177468 7004996 6831312 6657328 6484625 6315184 6150682 
3537.126 5992591 5840637 5694107 5551318 5411495 5274098 5139594 5009121 
3540.984 4883746 4763902 4649316 4538609 4430476 4323339 4215694 4106972 
3544.841 3996303 3883323 3768267 3651904 3535606 3421577 3312218 3209196 
3548.698 3113006 3022276 2934868 2847310 2756969 2662546 2564877 2466497 
3552.556 2370871 2281329 2199697 2126338 2059850 1997499 1936922 1876219 
3556.413 1814261 1750681 1686080 1620956 1555842 1490937 1426341 1361621 
3560.271 1297178 1233308 1171043 1111809 1057334 1008976 967364 931368 
3564.128 898198 862905 819680 762486 687080 592277 481472 361875 242310 
3568.468 131694 36217 -41614 -102802 -150733 -190180 -225915 -261878 -301017 
3572.807 -344192 -391269 -441452 -493052 -544150 -593819 -640770 -684407 
3576.665 -724633 -761315 -794886 -826206 -855671 -884308 -913009 -942732 
3580.522 -973777 -1006174 -1039363 -1072317 -1103716 -1132104 -1156790 
3583.897 -1177609 -1195519 -1212767 -1232856 -1259188 -1295066 -1342171 
3587.273 -1399247 -1462688 -1526516 -1584623 -1632820 -1669327 -1695534 
3590.648 -1714808 -1732003 -1750715 -1774211 -1803414 -1837531 -1874549 
3594.023 -1912520 -1949268 -1983868 -2015201 -2043135 -2067043 -2086401 
3597.398 -2101140 -2111824 -2120298 -2129431 -2141960 -2160226 -2184854 
3600.774 -2214589 -2246532 -2277022 -2302499 -2320692 -2330777 -2332985 
3604.149 -2328800 -2320528 -2311003 -2303389 -2301412 -2308564 -2327119 
3607.524 -2357702 -2398168 -2444265 -2489698 -2529790 -2561248 -2584009 
3610.899 -2600510 -2614969 -2631140 -2651360 -2675664 -2702106 -2727395 
3614.275 -2748237 -2761966 -2768452 -2768617 -2765061 -2761472 -2761834 
3617.650 -2770362 -2789753 -2821291 -2863097 -2911382 -2960189 -3003693 
3621.025 -3037880 -3061011 -3073612 -3077724 -3075355 -3067657 -3054332 
3624.400 -3034228 -3006523 -2971575 -2932479 -2895420 -2869022 -2863163 
3627.776 -2884953 -2936659 -3012018 -3098023 -3178584 -3241897 -3283268 
3631.151 -3305366 -3314639 -3318716 -3324372 -3334992 -3351498 -3371784 
3634.526 -3392595 -3410315 -3422774 -3429875 -3432341 -3432538 -3431716 
3637.901 -3431256 -3431420 -3431979 -3433064 -3434970 -3438455 -3444405 
3641.277 -3452787 -3462189 -3469979 -3472970 -3467744 -3452459 -3427114 
3644.652 -3393713 -3356002 -3318256 -3284649 -3258900 -3243903 -3242029 
3648.027 -3255184 -3284945 -3331244 -3391510 -3460117 -3528188 -3585897 
3651.402 -3625592 -3642842 -3638275 -3616129 -3583728 -3549288 -3520629 
3654.778 -3503900 -3502651 -3515995 -3539691 -3566443 -3589118 -3601966 
3658.153 -3603083 -3593554 -3577320 -3559180 -3543799 -3534433 -3531935 
3661.528 -3534860 -3539691 -3543175 -3541992 -3534696 -3520103 -3497457 
3664.903 -3465574 -3422380 -3365767 -3294810 -3211113 -3118452 -3021330 
3668.279 -2922145 -2816880 -2692886 -2528933 -2299731 -1986078 -1577624 
3671.654 -1073970 -480740 195468 946311 1757767 2592242 3380502 4022923 
3675.511 4404568 4442828 4120552 3485669 2625576 1636055 610127 -377199 
3679.369 -1264408 -2005834 -2582296 -2998197 -3280111 -3464029 -3585930 
3682.744 -3673136 -3738939 -3786832 -3814882 -3821812 -3810284 -3788047 
3686.119 -3764759 -3750929 -3753393 -3774022 -3809660 -3853439 -3898233 
3689.494 -3938687 -3973031 -4001496 -4025855 -4047291 -4066167 -4082185 
3692.870 -4094986 -4104472 -4111003 -4114909 -4116944 -4117732 -4117305 
3696.245 -4115664 -4112185 -4106441 -4098137 -4087470 -4076014 -4066133 
3699.620 -4061144 -4064295 -4077458 -4100402 -4130335 -4162071 -4190031 
3702.995 -4209819 -4219007 -4217497 -4207259 -4190786 -4170177 -4147369 
3706.371 -4123115 -4097809 -4072272 -4047160 -4023754 -4003400 -3987379 
3709.746 -3977168 -3974016 -3979269 -3994306 -4018731 -4050443 -4085205 
3713.121 -4117469 -4141822 -4154687 -4155015 -4144087 -4125970 -4105424 
3716.496 -4085959 -4070433 -4059667 -4052380 -4046733 -4041054 -4034686 
3719.872 -4028022 -4022113 -4017746 -4014989 -4013084 -4010786 -4007537 
3723.247 -4003597 -4000412 -3999854 -4004418 -4015284 -4031698 -4051362 
3726.622 -4069810 -4082185 -4084088 -4072830 -4048211 -4012559 -3970503 
3729.997 -3927983 -3890778 -3863883 -3850089 -3848349 -3855377 -3866247 
3733.373 -3877610 -3888874 -3902075 -3920168 -3946108 -3979039 -4015809 
3736.748 -4050541 -4078279 -4095971 -4103093 -4100861 -4089931 -4070236 
3740.123 -4041054 -4001923 -3954710 -3904899 -3862044 -3839120 -3848250 
3743.498 -3896262 -3977693 -4073454 -4155704 -4202009 -4204536 -4169357 
3746.874 -4111397 -4047193 -3991811 -3955006 -3941314 -3949063 -3972703 
3750.249 -4004254 -4037608 -4068694 -4095806 -4117108 -4130696 -4134076 
3753.624 -4125970 -4107196 -4080642 -4050640 -4021653 -3997392 -3979991 
3756.999 -3970207 -3967647 -3971422 -3981075 -3995554 -4013347 -4031403 
3760.375 -4045716 -4052018 -4047981 -4033504 -4012428 -3990104 -3972933 
3763.750 -3965742 -3970240 -3984096 -4002251 -4017845 -4025461 -4023261 
3767.125 -4012625 -3998377 -3985277 -3978317 -3979860 -3989447 -4004155 
3770.500 -4020012 -4033504 -4042171 -4045650 -4044895 -4041448 -4036885 
3773.875 -4032060 -4026676 -4019913 -4010589 -3998114 -3982815 -3966826 
3777.251 -3953430 -3945780 -3946666 -3956549 -3973425 -3992927 -4010229 
3780.626 -4021292 -4024772 -4021817 -4015382 -4009145 -4005599 -4005599 
3784.001 -4008357 -4011771 -4013905 -4013872 -4011870 -4009703 -4009276 
3787.376 -4011607 -4016794 -4023918 -4031206 -4036984 -4040168 -4040266 
3790.752 -4037312 -4031698 -4023360 -4012527 -3999493 -3985244 -3971225 
3794.127 -3959340 -3951361 -3948143 -3948669 -3950179 -3948800 -3940690 
3797.502 -3923714 -3898824 -3869597 -3842536 -3825983 -3826837 -3850254 
3800.877 -3894883 -3952872 -4010426 -4053200 -4072075 -4064952 -4036984 
3804.253 -3997589 -3958617 -3929986 -3918855 -3927260 -3950869 -3980812 
3807.628 -4006355 -4019847 -4018895 -4005205 -3983373 -3958092 -3932087 
3811.003 -3905851 -3878102 -3846970 -3811597 -3773792 -3737658 -3709308 
3814.378 -3695542 -3700996 -3725274 -3762065 -3800003 -3827297 -3835376 
3817.754 -3822436 -3792974 -3756941 -3725930 -3711772 -3723007 -3761014 
3821.129 -3818725 -3881813 -3934845 -3966662 -3973950 -3960916 -3935929 
3824.504 -3908807 -3887297 -3876001 -3874917 -3880434 -3885951 -3885393 
3827.879 -3875377 -3855377 -3827724 -3796456 -3765876 -3739202 -3717849 
3831.255 -3701751 -3689399 -3678623 -3667518 -3654835 -3640279 -3624968 
3834.630 -3610740 -3600586 -3597661 -3604496 -3622503 -3650695 -3685752 
3838.005 -3722284 -3754477 -3778489 -3792547 -3798361 -3799084 -3798821 
3841.380 -3800923 -3807820 -3819973 -3836756 -3856264 -3875837 -3893340 
3844.756 -3906541 -3913929 -3915012 -3909660 -3898265 -3881354 -3858858 
3848.131 -3830581 -3796062 -3754641 -3706745 -3654704 -3603248 -3559771 
3851.506 -3533973 -3535813 -3571668 -3641430 -3733848 -3830942 -3913929 
3854.881 -3970667 -3998574 -4002054 -3988166 -3963444 -3933171 -3900695 
3858.257 -3868054 -3836559 -3807492 -3781576 -3759601 -3741699 -3727475 
3861.632 -3716338 -3708453 -3704741 -3706942 -3717061 -3735030 -3758288 
3865.007 -3781478 -3797605 -3800890 -3788474 -3762788 -3730497 -3700437 
3868.382 -3681908 -3681941 -3700930 -3733782 -3769784 -3798887 -3814980 
3871.758 -3818068 -3812977 -3807131 -3806671 -3814586 -3829267 -3845590 
3875.133 -3857117 -3857906 -3845722 -3822075 -3791496 -3760061 -3733913 
3878.508 -3718506 -3716699 -3728493 -3750568 -3776912 -3799905 -3813108 
3881.883 -3812320 -3797375 -3772051 -3742060 -3715484 -3699813 -3699255 
3885.259 -3713874 -3738217 -3763346 -3779376 -3780591 -3765941 -3739793 
3888.634 -3709143 -3682302 -3666499 -3665875 -3680857 -3707271 -3738315 
3892.009 -3766861 -3787292 -3796784 -3794978 -3783120 -3762886 -3736147 
3895.384 -3704183 -3668766 -3631934 -3596840 -3566278 -3543372 -3529963 
3898.760 -3526381 -3531212 -3541564 -3554053 -3565654 -3575381 -3583334 
3902.135 -3590925 -3600257 -3613007 -3629371 -3648954 -3669522 -3688972 
3905.510 -3704938 -3716075 -3721693 -3721824 -3717225 -3708749 -3697776 
3908.885 -3685555 -3673234 -3661669 -3651352 -3642317 -3633839 -3624771 
3912.260 -3614387 -3602328 -3588855 -3575250 -3563616 -3555663 -3552870 
3915.636 -3555762 -3563189 -3573508 -3584517 -3593948 -3600717 -3604529 
3919.011 -3604989 -3602722 -3597398 -3588822 -3577057 -3562696 -3547579 
3922.386 -3534170 -3525263 -3523193 -3528780 -3541170 -3557405 -3573869 
3925.761 -3586916 -3594277 -3594934 -3589709 -3579982 -3567560 -3554152 
3929.137 -3541104 -3529766 -3521812 -3518460 -3521286 -3530686 -3545640 
3932.512 -3563715 -3581724 -3596281 -3605154 -3607618 -3604825 -3599074 
3935.887 -3592634 -3587442 -3583925 -3581691 -3579259 -3575316 -3569269 
3939.262 -3561644 -3553593 -3547086 -3543997 -3545114 -3550668 -3559278 
3942.638 -3569203 -3578076 -3584057 -3585831 -3583465 -3577682 -3570320 
3946.013 -3563189 -3558325 -3556978 -3559706 -3566015 -3574790 -3584418 
3949.388 -3593192 -3600027 -3604003 -3605088 -3602952 -3597760 -3589906 
3952.763 -3579588 -3567724 -3555138 -3542715 -3531606 -3522371 -3515173 
3956.139 -3509882 -3505937 -3502716 -3499890 -3497260 -3495058 -3493218 
3959.514 -3491443 -3490062 -3488780 -3487564 -3486841 -3486874 -3488123 
3962.889 -3490522 -3493513 -3496044 -3496735 -3494598 -3488879 -3479741 
3966.264 -3468040 -3454792 -3441183 -3428330 -3416824 -3406797 -3398381 
3969.640 -3391313 -3385395 -3380036 -3375203 -3370798 -3366852 -3363926 
3973.015 -3362282 -3362677 -3364945 -3368693 -3372507 -3374710 -3373789 
3976.390 -3368858 -3360211 -3349065 -3337294 -3326838 -3319275 -3314606 
3979.765 -3312534 -3311877 -3311416 -3310331 -3308226 -3305464 -3302538 
3983.141 -3299710 -3297638 -3296619 -3296783 -3298460 -3301453 -3305695 
3986.516 -3310627 -3315329 -3318815 -3320557 -3320459 -3318979 -3317269 
3989.891 -3316513 -3317105 -3319012 -3321741 -3324043 -3325227 -3324733 
3993.266 -3323188 -3321379 -3320459 -3321083 -3323286 -3326772 -3330948 
3996.642 -3335420 -3340121 -3345744 -3352714 -3361197 -3371126 -3381220 
4000.017 -3390326 -3396902 
##END=
