
##TITLE=Z357a_2_c
##JCAMP-DX=5.01  $$ Nicolet v. 1
##DATATYPE=INFRARED SPECTRUM
##ORIGIN=UniL
##OWNER=Nicolet
##LONGDATE=2011/09/22
##TIME=09:15:37
##SPECTROMETER/DATA SYSTEM=Nicolet iS5
##DATA PROCESSING=
Ratio against background
%Transmittance->Absorbance
Truncated
ElementMultiply or ElementDivide
##COMMENTS=
Number of sample scans: 32
Collection length: 51.22 sec
Sample gain: 2.0
Background collected on: Jeu Sep 22 09:10:47 2011 (GMT+02:00);
Number of background scans: 32
Background gain: 2.0
Sample spacing:  1.000
Number of scan points: 12415
Resolution points: 8192
Number of FFT points: 65536
Apodization: N-B fort;
Phase correction: Mertz;
Laser frequency: 15798.0 cm-1
Number of rejected sample scans: 0
Number of rejected background scans: 0
Bench serial number: ASB1000141;
##RESOLUTION=4.000
##XUNITS=1/CM
##YUNITS=ABSORBANCE
##FIRSTX=649.893372
##LASTX=4000.122314
##FIRSTY=0.097798
##MAXX=4000.122314
##MINX=649.893372
##MAXY=0.303991
##MINY=-0.003955
##XFACTOR=1.000000
##YFACTOR=1.000000E-009
##NPOINTS=6950
##DELTAX=0.482117
##ZPD=6100
##XYDATA=(X++(Y..Y))
649.893 97798496 97459760 97177280 96969576 96832608 96742672 96669776 
653.268 96599240 96542088 96535592 96627264 96856176 97238576 97763808 
656.643 98404192 99132480 99938648 100830472 101826368 102940120 104171024 
660.018 105503208 106919888 108416512 110011832 111742528 113650136 
662.911 115757704 118060568 120526872 123115296 125793728 128530424 
665.803 131286784 133978488 136424672 138364848 139520928 139731888 
668.696 139046320 137678944 135879472 133820280 131586928 129199936 
671.589 126659992 123989448 121245896 118506472 115858016 113361184 
674.481 111040544 108892936 106901328 105050328 103333768 101752488 
677.374 100304320 98977024 97746752 96583480 95459016 94356152 93270824 
680.749 92207992 91174040 90171328 89195624 88239280 87297560 86374048 
684.124 85480560 84634456 83851920 83140000 82496544 81910184 81366528 
687.498 80851096 80354456 79871632 79398856 78931128 78459696 77972960 
690.873 77459664 76911824 76327176 75709864 75068384 74414048 73758248 
694.248 73112664 72490552 71904976 71370808 70901464 70506624 70191320 
697.623 69954008 69789464 69689248 69646144 69655944 69716864 69829848 
700.998 69994416 70206824 70459544 70741160 71038880 71343120 71648520 
704.373 71955112 72265520 72583472 72909496 73241728 73576168 73909104 
707.747 74240920 74576808 74926736 75304296 75727464 76217768 76801952 
711.122 77513728 78387776 79453200 80721632 82174064 83752096 85353064 
714.497 86852896 88119696 89041520 89557696 89664888 89421632 88928384 
717.872 88321544 87751032 87354000 87261872 87577336 88361416 89624320 
721.247 91303712 93262120 95275320 97073856 98385696 98974816 98714720 
724.621 97611904 95813584 93561960 91148288 88853120 86870744 85306680 
727.996 84172752 83415984 82950568 82690312 82572440 82553568 82607784 
731.371 82716888 82860856 83018880 83174232 83318152 83453368 83590752 
734.746 83743616 83919800 84118704 84331936 84548944 84761704 84968320 
738.121 85173064 85382264 85600520 85828648 86063088 86299712 86536864 
741.496 86775648 87019656 87271760 87531528 87794912 88057200 88314600 
744.870 88568176 88822632 89083416 89352432 89624616 89887680 90127616 
748.245 90332560 90498384 90630096 90738944 90837528 90933728 91029288 
751.620 91120168 91202080 91272880 91335728 91396568 91462056 91535152 
754.995 91614312 91695208 91773992 91851440 91933240 92028456 92146256 
758.370 92292648 92469712 92676920 92912984 93178872 93476400 93806816 
761.744 94167080 94549592 94942464 95336232 95728368 96130528 96568784 
765.119 97087560 97743096 98593456 99694688 101082264 102754624 104656848 
768.494 106671552 108628488 110314024 111532448 112154360 112162512 
771.387 111673704 110920160 110200632 109769616 109775800 110199816 
774.279 110861096 111451888 111626616 111125576 109822392 107772376 
777.172 105167656 102287104 99401872 96703176 94292792 92172512 90281448 
780.547 88529176 86836464 85154320 83465448 81780008 80123912 78530120 
783.922 77029432 75649992 74416480 73347240 72455040 71745832 71219432 
787.297 70871584 70698344 70698896 70878408 71247344 71819208 72608728 
790.671 73629440 74893984 76416296 78213896 80307168 82718728 85466080 
794.046 88553184 91960800 95642664 99521272 103486256 107413592 111168240 
797.421 114622112 117684768 120316528 122552272 124499608 126339464 
800.314 128290624 130548848 133253304 136416176 139897600 143374800 
803.206 146388928 148433856 149014272 147808592 144742688 140026304 
806.099 134100528 127539752 120939944 114741456 109190688 104310320 99945360 
809.474 95841104 91739080 87474712 82999984 78390520 73792456 69382576 
812.849 65308988 61658144 58462252 55704088 53339376 51314048 49577884 
816.224 48090084 46815752 45727488 44803504 44027368 43389172 42883184 
819.598 42505696 42251628 42112296 42075528 42130000 42267188 42485784 
822.973 42791104 43193724 43705532 44335280 45087300 45959212 46942504 
826.348 48019988 49165560 50344260 51509788 52613444 53612088 54478164 
829.723 55212868 55852600 56472940 57174324 58077272 59306876 60962640 
833.098 63106032 65730772 68748544 71964888 75083512 77756600 79593784 
836.473 80258456 79547584 77425128 74051208 69732656 64884656 59919544 
839.847 55182012 50931252 47300556 44323244 41959680 40130756 38742872 
843.222 37703600 36937588 36379964 35977020 35689512 35487612 35352940 
846.597 35277320 35257916 35292456 35376308 35500984 35656632 35836408 
849.972 36038508 36267280 36530916 36837628 37191488 37591836 38034656 
853.347 38515536 39033608 39592320 40198028 40858524 41580952 42370408 
856.721 43233292 44179864 45224836 46390700 47705460 49198844 50905172 
860.096 52861224 55104216 57674432 60603552 63901968 67538480 71423688 
863.471 75401168 79235272 82653872 85375360 87146192 87807200 87310768 
866.846 85739752 83283304 80218600 76867248 73523104 70449848 67842144 
870.221 65811580 64409040 63628472 63427000 63733176 64458116 65503284 
873.596 66749296 68067520 69326024 70387968 71141440 71510368 71465520 
876.970 71031624 70280088 69318672 68260576 67213944 66261716 65445572 
880.345 64768212 64195528 63673668 63138672 62537940 61844544 61060904 
883.720 60219828 59371148 58573944 57877868 57314384 56896612 56621228 
887.095 56477240 56454980 56551512 56772320 57127724 57626716 58272448 
890.470 59058960 59973752 61000580 62123872 63333644 64624844 65996492 
893.844 67449608 68983760 70594448 72271344 73992904 75722376 77406840 
897.219 78968728 80316496 81355104 81993784 82172344 81869616 81110288 
900.594 79959016 78511616 76884568 75188808 73529344 71995200 70648792 
903.969 69534408 68676776 68084184 67755256 67682960 67858792 68276312 
907.344 68932336 69826624 70961192 72337728 73957072 75818544 77921096 
910.719 80262960 82841528 85649872 88673456 91885752 95250440 98723200 
914.093 102259808 105830648 109426400 113066712 116795232 120677248 
916.986 124784672 129175664 133881792 138883424 144097888 149353424 
919.879 154395872 158912160 162535392 164934832 165879856 165299120 
922.771 163331984 160327936 156834416 153470192 150881440 149654128 
925.664 150185568 152669184 157030576 162946832 169832064 176903952 
928.557 183343088 188315760 191157904 191482048 189174704 184398032 
931.450 177496208 168937056 159210320 148779696 138095136 127542376 
934.342 117452424 108113936 99733576 92453560 86354800 81455456 77735584 
937.717 75149568 73640744 73141760 73566088 74802848 76685592 78987288 
941.092 81443704 83742608 85582760 86725272 87007152 86383944 84923760 
944.467 82795216 80222024 77441960 74684384 72121144 69865616 67975216 
947.841 66455968 65281884 64408772 63790312 63381956 63144304 63045680 
951.216 63056716 63151324 63307540 63507380 63739472 63998984 64285732 
954.591 64601736 64947948 65323160 65723800 66146172 66587508 67047456 
957.966 67527984 68030704 68556048 69101536 69663064 70236696 70820560 
961.341 71416000 72026448 72655808 73306320 73977344 74665768 75368216 
964.716 76083048 76810576 77553768 78315192 79095880 79894456 80708064 
968.090 81534480 82373888 83229648 84107360 85011968 85945872 86907816 
971.465 87894736 88903304 89932952 90986632 92069816 93187952 94343800 
974.840 95536832 96764744 98025200 99319232 100651432 102028704 103458040 
978.215 104943696 106486944 108088008 109749344 111478784 113290304 
981.108 115201760 117230808 119391144 121689344 124123696 126685320 
984.000 129358440 132117184 134919968 137709552 140404512 142903840 
986.893 145105632 146909808 148241568 149064992 149385072 149248992 
989.786 148735296 147953456 147024832 146071808 145217232 144562192 
992.678 144182208 144125856 144408960 145023600 145944000 147140640 
995.571 148584976 150254928 152135632 154215200 156480576 158917520 
998.464 161509136 164238816 167092288 170053664 173101232 176203904 
1001.356 179312736 182366480 185299920 188049504 190571040 192844144 
1004.249 194875600 196695728 198353936 199916832 201457024 203053872 
1007.142 204788320 206727488 208923168 211402304 214165024 217188608 
1010.035 220435152 223865712 227440784 231125984 234889520 238692960 
1012.927 242492496 246242592 249899088 253430960 256821312 260060064 
1015.820 263132960 266005520 268611712 270862880 272656224 273897568 
1018.713 274530016 274546080 273998560 272988960 271668864 270223744 
1021.605 268841856 267720192 267032736 266907088 267425888 268610912 
1024.498 270431648 272812480 275653792 278850208 282288352 285859872 
1027.391 289452032 292932992 296163904 298999040 301295168 302940672 
1030.284 303854752 303991392 303334752 301887968 299669024 296710624 
1033.177 293066048 288810496 284032736 278831456 273297376 267502256 
1036.070 261504448 255350624 249086576 242769744 236468352 230257264 
1038.963 224218432 218425264 212943072 207829856 203125264 198849040 
1041.856 194987168 191482704 188224224 185045200 181757712 178161424 
1044.750 174090608 169455600 164251232 158566288 152554944 146423888 
1047.643 140386432 134628176 129307288 124527488 120341184 116760544 
1050.536 113762680 111302864 109322784 107763752 106570536 105693232 
1053.429 105091464 104727648 104562160 104552000 104642808 104769480 
1056.322 104865392 104859656 104689064 104306192 103679432 102800216 
1059.215 101682968 100368400 98920512 97419288 95962256 94646200 93559824 
1062.590 92780536 92362192 92336216 92712032 93478328 94603680 96035696 
1065.965 97706416 99525984 101386800 103180872 104797400 106142296 107151952 
1069.341 107790592 108053800 107959648 107542176 106840592 105891784 
1072.234 104730472 103384752 101878104 100233952 98477888 96642000 94771264 
1075.609 92919352 91150288 89535424 88139344 87019704 86219448 85760384 
1078.984 85645552 85856912 86359368 87097400 87997384 88974992 89929856 
1082.359 90761656 91385904 91741296 91809360 91618240 91245288 90801712 
1085.735 90417224 90232176 90366832 90917752 91949048 93482936 95500088 
1089.110 97935936 100692080 103632272 106596160 109428968 111982032 
1092.003 114137944 115824184 117006960 117690152 117902880 117692456 
1094.896 117112904 116218952 115070368 113727456 112253200 110719248 
1097.789 109196232 107750968 106438848 105287088 104286520 103383120 
1100.682 102486000 101470960 100202024 98566968 96490032 93956984 91016008 
1104.057 87775976 84385488 81000440 77780064 74856856 72324728 70246584 
1107.433 68649144 67531776 66874540 66645176 66804396 67305696 68100896 
1110.808 69137472 70354920 71689984 73070208 74414160 75643056 76677520 
1114.183 77449488 77913400 78045208 77847200 77342216 76571040 75584256 
1117.558 74433824 73173832 71852392 70508424 69174224 67870576 66609212 
1120.934 65395692 64231752 63118824 62060988 61064640 60137204 59284012 
1124.309 58505696 57796592 57146208 56543812 55983036 55466424 55007064 
1127.684 54628476 54359184 54225292 54247068 54432228 54774256 55251960 
1131.059 55832064 56472524 57122508 57731344 58252972 58649900 58903960 
1134.435 59017964 59018080 58946992 58859788 58814072 58855916 59017508 
1137.810 59309080 59718840 60213320 60741632 61244760 61655968 61911904 
1141.185 61961428 61764856 61300732 60564844 59567780 58331220 56884976 
1144.560 55266824 53516508 51677552 49795476 47912488 46067664 44294804 
1147.936 42617676 41052448 39607388 38284384 37081804 35996640 35026080 
1151.311 34166972 33416286 32770042 32223414 31771616 31410466 31137458 
1154.686 30951432 30852138 30839010 30910836 31065700 31301946 31619530 
1158.061 32020446 32508892 33089452 33765752 34539180 35408372 36369408 
1161.437 37416136 38540740 39731944 40973356 42243484 43512584 44745912 
1164.812 45907244 46958640 47866616 48604252 49150008 49491320 49623980 
1168.187 49553296 49292996 48865104 48298264 47622516 46868716 46066780 
1171.562 45241824 44417484 43615988 42857144 42161144 41546572 41028668 
1174.938 40619972 40328352 40158156 40112220 40192976 40404168 40751552 
1178.313 41241940 41882356 42680328 43642620 44776652 46091500 47596788 
1181.688 49303056 51221320 53360060 55726196 58323148 61149540 64194604 
1185.063 67432816 70820912 74286528 77729176 81030904 84051632 86652536 
1188.438 88713128 90133528 90854272 90859304 90177280 88875888 87053712 
1191.814 84834120 82340928 79694768 77006600 74362256 71830264 69459672 
1195.189 67278624 65301476 63529512 61954932 60562220 59331188 58239292 
1198.564 57260548 56367556 55533972 54731256 53932988 53115624 52258988 
1201.939 51350480 50386712 49375032 48332596 47284340 46260424 45288900 
1205.315 44393516 43591080 42889036 42287932 41783444 41368900 41036788 
1208.690 40779828 40591084 40463228 40388892 40362024 40378748 40438896 
1212.065 40546012 40707044 40930392 41223724 41593752 42044720 42578528 
1215.440 43194892 43890940 44660596 45493676 46377244 47296308 48235572 
1218.816 49183368 50131712 51076652 52018052 52957752 53899300 54847820 
1222.191 55812208 56805288 57843496 58946652 60133244 61417088 62804892 
1225.566 64294032 65873040 67520864 69210552 70908800 72575912 74171744 
1228.941 75655080 76988672 78145944 79112256 79888200 80488664 80944224 
1232.317 81299800 81610288 81946320 82389024 83021888 83935600 85214344 
1235.692 86928864 89139272 91886040 95192432 99066664 103502528 108478312 
1239.067 113951600 119861560 126121240 132616568 139224288 145806448 
1241.960 152221600 158340928 164035936 169185984 173685808 177439168 
1244.853 180369120 182422848 183567424 183790928 183098704 181513920 
1247.746 179077920 175850736 171912544 167350480 162248272 156678176 
1250.639 150689296 144314672 137581776 130526248 123206984 115715832 
1253.532 108165832 100694832 93448704 86556200 80133832 74266872 69000464 
1256.908 64347012 60284504 56765788 53723104 51079784 48758996 46682548 
1260.283 44783008 43005828 41308184 39664668 38063368 36503636 34991856 
1263.658 33537864 32151588 30840752 29611612 28468330 27413450 26447956 
1267.033 25570030 24775424 24056826 23405710 22814930 22279778 21799072 
1270.409 21374796 21010394 20708812 20471520 20299520 20193952 20157958 
1273.784 20197006 20317506 20524422 20818818 21194886 21638668 22127178 
1277.159 22631840 23116544 23541796 23870344 24068628 24114196 24000936 
1280.534 23739474 23356266 22885790 22366390 21829734 21296558 20777454 
1283.910 20274488 19787048 19316716 18870008 18457636 18092670 17786410 
1287.285 17546672 17377586 17281308 17259862 17316618 17455048 17677620 
1290.660 17983456 18367758 18821354 19332132 19886102 20465962 21051084 
1294.035 21617702 22137498 22583744 22936054 23185042 23336512 23411024 
1297.411 23441484 23463832 23514126 23623758 23815282 24104142 24498352 
1300.786 24996622 25585914 26238058 26912122 27551926 28095916 28488744 
1304.161 28684654 28657860 28405396 27944616 27308960 26541708 25693682 
1307.536 24814260 23948658 23136778 22406928 21775384 21246798 20816210 
1310.912 20472944 20205336 20005544 19869386 19795754 19784206 19832274 
1314.287 19934978 20086498 20281988 20519906 20801646 21129798 21504744 
1317.662 21923086 22377204 22857500 23355952 23867962 24393124 24932644 
1321.037 25485624 26046272 26601660 27132926 27619716 28042896 28388664 
1324.413 28651702 28837380 28962110 29051480 29141684 29273696 29485386 
1327.788 29808634 30258466 30830438 31499344 32226880 32970502 33691520 
1331.163 34365460 34983484 35551252 36082968 36596444 37108508 37632232 
1334.538 38177644 38752144 39360268 40003648 40679244 41380380 42096264 
1337.914 42814836 43525364 44219156 44890024 45533268 46145000 46721288 
1341.289 47260176 47761744 48229836 48670332 49089612 49492136 49878236 
1344.664 50244480 50585756 50897384 51177064 51424216 51636124 51802408 
1348.039 51902768 51903476 51762240 51439172 50902488 50140636 49166524 
1351.415 48019876 46761104 45461596 44202280 43057708 42090864 41351480 
1354.790 40866644 40639620 40647804 40848548 41182920 41584456 41994976 
1358.165 42365696 42663328 42872320 42990976 43031728 43018380 42989552 
1361.540 42995656 43092428 43336996 43771200 44409484 45234948 46199648 
1364.916 47235908 48258604 49182068 49924288 50407888 50576712 50399400 
1368.291 49877456 49045020 47964624 46716488 45377796 44019632 42698604 
1371.666 41452220 40310464 39298816 38443280 37773284 37315100 37083100 
1375.041 37073792 37264984 37624248 38117448 38721460 39428800 40247792 
1378.417 41199568 42314776 43633172 45198624 47060508 49264564 51834104 
1381.792 54747116 57908912 61154688 64237512 66864028 68754440 69651624 
1385.167 69382616 67892920 65278224 61792628 57800872 53732964 49955736 
1388.542 46708228 44095284 42099116 40632852 39580092 38831452 38292452 
1391.917 37885708 37554732 37254156 36951404 36628600 36282192 35922204 
1395.293 35565568 35229024 34922364 34646712 34397488 34169084 33960764 
1398.668 33779004 33638096 33555080 33546348 33621880 33784340 34030168 
1402.043 34352368 34742428 35191584 35693252 36242068 36833952 37464752 
1405.418 38129240 38820940 39533816 40263856 41011004 41779540 42576704 
1408.794 43409380 44282112 45194576 46143268 47122844 48127616 49151272 
1412.169 50183668 51205252 52186944 53091888 53882120 54533756 55044748 
1415.544 55440676 55767712 56088288 56468980 56965816 57620020 58446900 
1418.919 59430340 60525308 61668568 62795892 63851028 64795904 65614216 
1422.295 66310772 66916592 67485760 68091672 68804056 69670104 70702792 
1425.670 71879528 73157016 74487120 75834248 77176272 78503160 79812656 
1429.045 81105976 82388584 83673712 84989072 86375784 87877128 89532744 
1432.420 91364144 93374832 95553680 97891184 100392408 103079360 105988664 
1435.796 109152128 112574960 116214536 119992744 123825400 127642752 
1438.689 131392944 135021328 138457872 141587664 144253200 146287536 
1441.582 147517648 147803424 147062352 145269264 142466896 138758080 
1444.475 134312464 129342632 124073040 118741808 113558936 108700872 
1447.368 104315840 100499808 97289608 94653984 92509816 90746416 89259792 
1450.743 87990568 86932104 86127768 85639296 85518288 85773176 86363648 
1454.118 87200992 88168240 89147696 90025320 90726856 91241816 91641640 
1457.494 92051384 92597560 93381736 94457208 95845600 97552712 99568360 
1460.869 101865120 104385784 107050152 109738472 112289328 114529064 
1463.762 116279184 117411784 117896016 117815904 117343232 116664656 
1466.655 115948752 115306920 114794536 114432632 114213064 114104288 
1469.548 114042280 113927048 113622720 112964328 111810760 110097904 
1472.441 107888744 105362936 102756552 100279776 98057088 96142976 94552352 
1475.816 93291120 92376008 91826880 91647336 91812304 92263472 92925464 
1479.192 93716560 94572408 95458808 96371464 97334336 98387152 99578112 
1482.567 100954112 102563448 104464040 106721832 109408368 112584920 
1485.460 116277024 120444752 124952744 129580392 134001536 137813120 
1488.353 140601680 141958544 141575456 139330864 135331632 129914136 
1491.246 123541048 116706664 109802808 103070000 96639024 90544744 84789456 
1494.621 79401080 74444408 70029528 66286608 63316508 61156484 59769176 
1497.997 59072132 58962476 59345240 60148428 61312524 62785512 64518040 
1501.372 66452572 68524272 70666488 72790680 74788008 76520648 77787224 
1504.747 78333328 77874312 76169912 73166112 69090960 64411656 59618216 
1508.122 55047192 50829924 46954836 43363832 40012044 36884596 34003040 
1511.498 31403412 29110362 27131128 25449820 24035988 22855544 21876982 
1514.873 21072474 20412582 19867130 19409148 19019632 18695630 18447232 
1518.248 18288850 18226960 18253396 18343044 18463928 18588376 18710332 
1521.623 18848828 19039710 19313392 19677168 20118218 20611518 21136234 
1524.999 21682376 22256480 22876430 23562888 24327554 25167894 26071816 
1528.374 27025224 28020558 29059698 30153182 31315300 32557924 33888896 
1531.749 35308912 36811700 38385288 40011132 41666616 43326964 44971196 
1535.124 46582796 48149572 49656336 51084960 52416948 53626148 54686496 
1538.500 55572040 56258732 56725084 56955088 56949308 56727312 56328024 
1541.875 55797964 55173020 54467724 53671812 52763564 51726480 50570460 
1545.250 49336576 48089084 46888464 45764560 44712632 43697400 42676416 
1548.625 41620700 40535428 39459100 38451568 37562756 36812204 36186748 
1552.000 35652856 35177460 34742932 34355564 34038408 33815356 33693056 
1555.376 33653244 33652920 33636056 33534714 33273712 32784942 32027580 
1558.751 31027870 29891114 28763312 27759670 26926574 26253544 25700114 
1562.126 25218034 24761604 24295632 23800932 23279490 22752914 22254422 
1565.501 21816042 21451964 21155576 20902078 20660614 20403518 20116934 
1568.877 19805118 19488086 19192616 18940296 18741812 18597574 18502618 
1572.252 18450688 18434648 18445156 18466798 18478416 18457430 18386872 
1575.627 18267772 18123068 17991296 17905758 17881590 17912698 17981384 
1579.002 18067866 18158826 18250390 18346846 18455286 18581424 18725554 
1582.378 18883262 19048054 19214190 19378348 19537886 19687846 19818574 
1585.753 19917044 19969082 19966238 19910246 19814898 19703552 19604228 
1589.128 19544852 19546656 19624370 19786252 20035178 20367090 20767686 
1592.503 21211586 21657752 22054768 22352402 22507242 22495064 22316820 
1595.879 21996798 21576610 21102352 20620414 20167848 19772174 19455926 
1599.254 19235594 19122770 19123634 19237048 19455786 19768532 20164828 
1602.629 20635804 21173560 21768868 22404730 23054136 23682296 24246578 
1606.004 24702992 25015432 25155218 25108454 24875166 24467714 23906576 
1609.380 23216710 22428804 21576888 20698700 19836262 19025724 18292862 
1612.755 17649114 17090026 16599365 16154513 15733648 15318546 14899897 
1616.130 14480418 14074451 13704393 13392635 13155309 12998404 12917532 
1619.505 12900328 12929001 12984884 13050199 13114396 13176689 13246917 
1622.881 13340629 13471579 13646160 13860800 14106351 14373171 14656468 
1626.256 14955246 15269672 15597343 15929971 16255045 16560914 16841750 
1629.631 17100642 17347582 17594906 17850516 18114604 18378404 18627040 
1633.006 18844122 19012640 19120242 19159128 19128588 19034828 18892328 
1636.382 18719916 18535432 18351650 18173128 17996924 17813680 17611052 
1639.757 17378448 17110876 16812680 16496412 16179377 15876457 15594218 
1643.132 15329118 15068400 14794295 14488366 14138218 13742353 13312202 
1646.507 12870565 12446358 12067565 11753677 11513876 11348244 11249044 
1649.883 11201952 11184783 11167171 11107239 10958276 10688111 10306030 
1653.258 9875912 9482556 9184405 8988368 8867859 8787042 8717667 8643909 
1657.115 8560634 8470989 8380349 8293577 8210774 8127986 8039004 7938331 
1660.973 7821925 7688957 7541027 7381621 7216647 7053285 6900252 6766759 
1664.830 6658573 6577864 6521050 6479446 6439694 6387471 6310813 6203212 
1668.688 6066102 5908345 5743258 5583571 5438503 5313105 5208567 5122964 
1672.545 5051222 4985055 4911962 4817940 4692688 4535563 4359618 4186320 
1676.402 4037939 3926753 3851631 3801958 3763120 3723950 3679939 3636066 
1680.260 3602354 3588924 3598813 3624639 3646925 3640343 3580338 3455809 
1684.117 3279800 3086910 2915553 2787947 2706120 2658445 2630409 2609508 
1687.975 2587909 2561877 2529415 2490357 2445371 2397958 2354680 2323799 
1691.832 2313339 2326764 2361243 2405687 2443738 2457067 2432576 2370838 
1695.689 2289323 2216648 2175820 2175387 2205925 2247156 2272435 2256614 
1699.547 2185377 2063179 1915888 1777130 1672409 1608052 1576160 1562426 
1703.404 1552650 1535392 1502341 1450310 1380867 1300401 1217259 1139714 
1707.262 1073476 1020600 979917 948104 921706 898662 879106 865461 860979 
1711.601 868217 887407 916260 950727 986858 1021696 1054344 1084504 1110647 
1715.941 1128585 1131741 1113902 1072912 1015253 954015 903444 874060 869279 
1720.281 885780 916725 955111 996223 1038236 1081980 1129217 1181276 1237595 
1724.620 1296513 1356037 1415404 1474912 1534860 1594616 1650823 1698254 
1728.478 1731453 1747787 1748785 1740368 1729956 1722438 1716417 1701980 
1732.335 1661699 1576891 1434951 1240951 1019836 808692 637900 519388 448535 
1736.675 410592 389565 371492 347217 313063 269927 222817 177866 141240 
1741.014 117343 108262 114526 134379 164674 200838 238895 275762 310875 
1745.354 345261 381142 419248 458087 494077 521909 536705 535112 516203 
1749.693 480709 430657 369104 299800 228220 160961 104484 63853 39961 30086 
1754.515 27038 21935 5732 -26440 -73551 -128375 -180741 -222404 -250255 
1758.855 -267210 -280256 -298037 -328068 -373227 -432349 -500036 -569432 
1762.712 -633292 -686425 -726121 -751128 -762043 -761679 -754733 -747522 
1766.570 -746530 -755725 -774546 -797400 -815722 -822601 -816086 -800806 
1770.427 -786882 -786849 -809934 -857721 -921870 -987562 -1040883 -1073507 
1774.284 -1085736 -1083224 -1072879 -1059724 -1045511 -1029181 -1009810 
1777.660 -987629 -965611 -948320 -939988 -942104 -952684 -966603 -978174 
1781.517 -983860 -982967 -978537 -973975 -972421 -975066 -980554 -987000 
1785.375 -992951 -997744 -1001678 -1004290 -1004356 -998736 -984455 -960387 
1789.232 -928251 -893037 -862748 -845552 -847106 -868435 -905536 -951196 
1793.089 -997645 -1039363 -1074763 -1104013 -1128337 -1148595 -1164754 
1796.465 -1176386 -1184185 -1189339 -1193503 -1198724 -1206059 -1215212 
1799.840 -1225521 -1236259 -1246831 -1257734 -1269297 -1280563 -1290110 
1803.215 -1295627 -1295627 -1289747 -1279671 -1268075 -1257470 -1249012 
1806.590 -1241743 -1233054 -1220465 -1202755 -1181277 -1159533 -1141556 
1809.966 -1130683 -1127511 -1130155 -1135641 -1140961 -1144365 -1146282 
1813.341 -1147504 -1148628 -1149124 -1146744 -1138879 -1124206 -1102228 
1816.716 -1074631 -1043957 -1012191 -980190 -947328 -912612 -875710 -836722 
1820.573 -797036 -758206 -721325 -686689 -654533 -625418 -601165 -583760 
1824.431 -574131 -570888 -569234 -562979 -546434 -517212 -477331 -433375 
1828.288 -393917 -365976 -352800 -351476 -354786 -353727 -342239 -319096 
1832.146 -287077 -250917 -214390 -178423 -141624 -100782 -53408 1126 61832 
1836.485 126689 194474 266413 345725 436030 540719 660996 795779 942758 
1840.825 1098987 1261752 1428335 1595714 1759664 1915688 2060549 2193103 
1844.682 2316504 2435308 2553745 2672847 2789415 2896473 2985409 3049370 
1848.540 3084507 3091048 3072094 3032019 2973765 2898141 2804054 2690317 
1852.397 2557944 2410019 2251851 2088914 1925473 1763456 1603296 1445323 
1856.255 1291229 1144166 1007680 883821 772046 668330 568090 466977 363964 
1860.594 260710 161260 69454 -12888 -86603 -153516 -215384 -271514 -319327 
1864.934 -355415 -378325 -389878 -395506 -403219 -419771 -447840 -485539 
1868.791 -526214 -562615 -589452 -605466 -613176 -616385 -617775 -619065 
1872.649 -619992 -620455 -621481 -625616 -635410 -652614 -677129 -706571 
1876.506 -737732 -768956 -800641 -835532 -877562 -928681 -987992 -1052088 
1880.364 -1115349 -1173776 -1226280 -1274517 -1322352 -1373253 -1427847 
1883.739 -1483227 -1535728 -1580199 -1614499 -1639257 -1657049 -1671308 
1887.114 -1684147 -1696524 -1708307 -1719957 -1733026 -1749065 -1769360 
1890.489 -1792162 -1812884 -1825554 -1825092 -1809320 -1781503 -1747910 
1893.865 -1715997 -1691243 -1675070 -1664376 -1654309 -1640445 -1621894 
1897.240 -1600832 -1581454 -1566432 -1556066 -1547250 -1535893 -1518757 
1900.615 -1496105 -1470679 -1447266 -1428937 -1416388 -1407272 -1398124 
1903.990 -1386828 -1374079 -1362816 -1357465 -1359612 -1369323 -1382435 
1907.365 -1394193 -1401162 -1403012 -1402549 -1403375 -1408296 -1416553 
1910.741 -1425569 -1431777 -1432867 -1429862 -1425734 -1423686 -1424908 
1914.116 -1428013 -1429301 -1426262 -1419426 -1413448 -1415529 -1432273 
1917.491 -1465363 -1510568 -1558014 -1597333 -1622026 -1632457 -1634107 
1920.866 -1635197 -1642459 -1656850 -1675202 -1691342 -1700287 -1701112 
1924.242 -1697745 -1695633 -1699230 -1710287 -1725897 -1742101 -1756259 
1927.617 -1768502 -1781734 -1800048 -1824168 -1851256 -1875539 -1889956 
1930.992 -1891242 -1881180 -1866466 -1854952 -1852213 -1858251 -1867950 
1934.367 -1874747 -1873625 -1863991 -1851157 -1842051 -1841919 -1851949 
1937.743 -1868148 -1884446 -1896026 -1902030 -1904801 -1908825 -1916644 
1941.118 -1927068 -1935677 -1936931 -1928717 -1913840 -1899786 -1894046 
1944.493 -1900512 -1916809 -1935414 -1946464 -1943726 -1926309 -1899786 
1947.868 -1872602 -1851025 -1836871 -1826610 -1814698 -1796583 -1772429 
1951.244 -1745863 -1723158 -1708769 -1702234 -1700023 -1696623 -1689461 
1954.619 -1680021 -1673618 -1677051 -1693554 -1721409 -1754411 -1784374 
1957.994 -1807373 -1824267 -1840896 -1864915 -1900413 -1945276 -1992279 
1961.369 -2031526 -2056425 -2066120 -2065065 -2059657 -2054479 -2050225 
1964.745 -2042937 -2028690 -2007418 -1982252 -1961538 -1952434 -1956590 
1968.120 -1970510 -1985781 -1995775 -1998644 -2000920 -2012530 -2041849 
1971.495 -2091808 -2154456 -2215908 -2261398 -2281372 -2274484 -2247685 
1974.870 -2208095 -2159764 -2100184 -2021500 -1918623 -1795098 -1664805 
1978.246 -1549099 -1467773 -1431150 -1436269 -1470778 -1517205 -1561051 
1981.621 -1597960 -1630806 -1666126 -1710551 -1764014 -1820770 -1872998 
1984.996 -1912784 -1937624 -1949762 -1954380 -1955469 -1954479 -1948608 
1988.371 -1935150 -1913213 -1885733 -1858086 -1836772 -1823805 -1817635 
1991.747 -1812224 -1802721 -1786387 -1766654 -1749626 -1740913 -1742728 
1995.122 -1752728 -1764575 -1771472 -1770548 -1763453 -1755500 -1753322 
1998.497 -1759262 -1772165 -1786552 -1797672 -1803183 -1806713 -1815193 
2001.872 -1836046 -1872470 -1921757 -1975655 -2024271 -2058535 -2073639 
2005.248 -2069715 -2049566 -2015959 -1972060 -1921196 -1868247 -1821858 
2008.623 -1791865 -1785727 -1805756 -1845219 -1890516 -1925385 -1936601 
2011.998 -1918986 -1876957 -1822320 -1766126 -1717812 -1679658 -1648895 
2015.373 -1622554 -1599545 -1582642 -1575908 -1582576 -1599479 -1618956 
2018.749 -1631203 -1628034 -1607072 -1573927 -1536916 -1504988 -1482765 
2022.124 -1466915 -1451394 -1429697 -1398751 -1361627 -1325556 -1297477 
2025.499 -1280860 -1275079 -1274781 -1273592 -1268207 -1257370 -1241512 
2028.874 -1221390 -1195056 -1158905 -1110325 -1049081 -979496 -908512 
2032.250 -843634 -787610 -738426 -689369 -634318 -570292 -501624 -435759 
2036.107 -381635 -343729 -318632 -298501 -273799 -237969 -191936 -142618 
2039.964 -98761 -68847 -54932 -53673 -58742 -63413 -65534 -65865 -68184 
2044.304 -74346 -83456 -90446 -88359 -71166 -36346 15208 79429 152244 229149 
2049.126 306399 379285 442365 489599 517596 527515 526354 524662 535146 
2053.465 565601 616332 679480 742173 790501 816593 820676 810618 797904 
2057.805 792560 799630 817489 841524 865627 885813 902115 915795 927882 
2062.145 938209 944020 941961 931468 914467 895475 879804 870806 867885 
2066.484 867519 864697 855435 839698 820046 800062 783199 770054 758470 
2070.824 746422 732548 718011 705764 699426 699757 705565 713099 718111 
2075.163 718608 715887 712734 713232 719538 731088 744862 757839 768395 
2079.503 777888 789406 806070 828577 854870 879936 898696 908424 909686 
2083.843 905535 900854 898828 900256 904207 907926 909819 909487 907561 
2088.182 904307 898330 886378 864399 830735 787381 740514 699558 674005 
2092.522 668695 683894 713730 750239 785290 814137 835515 851484 864465 
2096.861 875952 886079 894645 902016 910416 923698 944949 975633 1014489 
2101.201 1057267 1099585 1138053 1172471 1204633 1237827 1273649 1311933 
2105.058 1350919 1387747 1421055 1451839 1482858 1517503 1558236 1605558 
2108.916 1657874 1713157 1769644 1826805 1884905 1944410 2003724 2060549 
2112.773 2111222 2152577 2184578 2209421 2230836 2253150 2278764 2307410 
2116.631 2337424 2366174 2392460 2416982 2442305 2470429 2502720 2538680 
2120.488 2575676 2611108 2643810 2673681 2702620 2732861 2765138 2799452 
2124.345 2834503 2869056 2903545 2939605 2979404 3024278 3073695 3124320 
2128.203 3172413 3214804 3251090 3283072 3314756 3349213 3388082 3429759 
2132.060 3471307 3509718 3543957 3575761 3607733 3642548 3680040 3716999 
2135.918 3749517 3773915 3790092 3801256 3812721 3828298 3848322 3868714 
2139.775 3883390 3885964 3874163 3849124 3817167 3785279 3757338 3734177 
2143.633 3712788 3688728 3659122 3624272 3587153 3551908 3521543 3495455 
2147.490 3469770 3440479 3404278 3359565 3308412 3252458 3192206 3126789 
2151.347 3052807 2967427 2869089 2758703 2637443 2506419 2365707 2213418 
2155.205 2050928 1883374 1723136 1588863 1502175 1478569 1523355 1625911 
2159.062 1763057 1909698 2042406 2149247 2228871 2285925 2325898 2353747 
2162.920 2370505 2374702 2365841 2344986 2312940 2271403 2221444 2160635 
2166.777 2087583 2001460 1903973 1800253 1696691 1597942 1506896 1423017 
2170.635 1343308 1265740 1190745 1120646 1060223 1012994 978588 953915 
2174.492 933427 910549 880966 844147 800560 753226 704503 655620 608634 
2178.832 566033 531264 508043 498489 500081 505654 506716 494011 463626 
2183.171 417756 364395 313295 272679 246222 232431 227292 226729 229049 
2187.511 235845 250532 274569 307261 343537 377494 403892 421835 433211 
2191.850 443161 455998 472980 492584 511161 526454 538032 549245 565137 
2196.190 589191 623035 663020 703408 738854 764843 780875 788543 791331 
2200.530 791331 790070 787215 781738 773639 763515 751799 738920 724914 
2204.869 708287 689801 670918 654724 645300 644670 651970 664282 675863 
2209.209 682135 682003 678850 677622 685255 705831 738920 780510 824129 
2213.548 864332 897467 923399 943654 959461 971316 977426 976596 968991 
2217.888 957037 944983 937445 936515 941363 948768 954081 953550 947241 
2222.228 937013 927251 921639 920975 923831 926520 925192 917522 903477 
2226.567 884684 863037 841060 820046 801323 786651 778552 778817 789174 
2230.907 808460 833922 861112 886178 906033 920610 930937 938773 945281 
2235.246 950694 954314 957103 961553 971748 992835 1028305 1077595 1135960 
2239.586 1196061 1249956 1291628 1319411 1335530 1344604 1352248 1362187 
2243.443 1376313 1395393 1418928 1446985 1480131 1518401 1560198 1603396 
2247.301 1644004 1678230 1703776 1720508 1729557 1733416 1733848 1731586 
2251.158 1726862 1720076 1712558 1707335 1707934 1716916 1735345 1761161 
2255.016 1790039 1817122 1838284 1851095 1855920 1854223 1847601 1837785 
2258.873 1825407 1810834 1794664 1777862 1761726 1747022 1733948 1721706 
2262.730 1710063 1699751 1692633 1692167 1701913 1723003 1754374 1791902 
2266.588 1829700 1861877 1884871 1898283 1903874 1905405 1905405 1906037 
2270.445 1907002 1907767 1908034 1908333 1909831 1913625 1920314 1928601 
2274.303 1936689 1942613 1945841 1946973 1948304 1952232 1960186 1971936 
2278.160 1985649 1998731 2009050 2015774 2019835 2023564 2029489 2039509 
2282.018 2054756 2075597 2101034 2130001 2161135 2192204 2221144 2245490 
2285.875 2263775 2275500 2282061 2285892 2290355 2298649 2312940 2333526 
2289.732 2359944 2390395 2422880 2455801 2487857 2518284 2546746 2573210 
2293.590 2598309 2623342 2649844 2679815 2714356 2753367 2795350 2838105 
2297.447 2879262 2917088 2951180 2982106 3010932 3039093 3066721 3093584 
2301.305 3119013 3142675 3164736 3186498 3209897 3235901 3265712 3299364 
2305.162 3336425 3376895 3421109 3469770 3523948 3584113 3649632 3719004 
2309.020 3790193 3861426 3931267 3999681 4066601 4132527 4197560 4261299 
2312.877 4323072 4382577 4439949 4495989 4552203 4609932 4670683 4734826 
2316.734 4802864 4874699 4950468 5030003 5113040 5199011 5286843 5375196 
2320.592 5462795 5547358 5626802 5698135 5757662 5801716 5827540 5834256 
2324.449 5823409 5799802 5770757 5743325 5724624 5718950 5727646 5748898 
2328.307 5779084 5813973 5849603 5883389 5913719 5939784 5961484 5978784 
2332.164 5992423 6004248 6016847 6033242 6056559 6088245 6128401 6175686 
2336.021 6227681 6281801 6336600 6390969 6444705 6497506 6548329 6595626 
2339.879 6637814 6673546 6702719 6725669 6743639 6756461 6762484 6757133 
2343.736 6733879 6685659 6606526 6494883 6355193 6199179 6043322 5907337 
2347.594 5811353 5770186 5793556 5883927 6036232 6239177 6475746 6728260 
2351.451 6979304 7215805 7431334 7625186 7801245 7963742 8116576 8260852 
2355.309 8395718 8520151 8633533 8736093 8829343 8914294 8991142 9059072 
2359.166 9117031 9164473 9202003 9230942 9252467 9266887 9273589 9271253 
2363.023 9258831 9237474 9209178 9177975 9147283 9119298 9094090 9069898 
2366.881 9043915 9013232 8976325 8932084 8879966 8819571 8749750 8669869 
2370.738 8579559 8480111 8373998 8264702 8155536 8048827 7945282 7844697 
2374.596 7746396 7650647 7559065 7473199 7395944 7328813 7272541 7226552 
2378.453 7189730 7161030 7139775 7126033 7120206 7122125 7131590 7148061 
2382.311 7170900 7199938 7235581 7278235 7327937 7383643 7442693 7501751 
2386.168 7557143 7605629 7645790 7677356 7701065 7718300 7730375 7737896 
2390.025 7741404 7741303 7738166 7732904 7726260 7718603 7710003 7700323 
2393.883 7689295 7677693 7667036 7659111 7655469 7657357 7664878 7677457 
2397.740 7693915 7713949 7737559 7765724 7799491 7839975 7887513 7942178 
2401.598 8003532 8071341 8145543 8226577 8314787 8410279 8512616 8621231 
2405.455 8735551 8855077 8979945 9110129 9245529 9385272 9528412 9673870 
2409.313 9821410 9971442 10125120 10283841 10447879 10616395 10786979 
2412.688 10956203 11120428 11277064 11423687 11559539 11683486 11794564 
2416.063 11891062 11971709 12035441 12082827 12115637 12136830 12149437 
2419.438 12156116 12158365 12157206 12153015 12146779 12139624 12133389 
2422.813 12129879 12130254 12135297 12145417 12161159 12184024 12215989 
2426.189 12259408 12316500 12388669 12475853 12577278 12691894 12819304 
2429.564 12959758 13114361 13283879 13468537 13667292 13878385 14099095 
2432.939 14327588 14562610 14803620 15051042 15305057 15565884 15833294 
2436.314 16107125 16387358 16674727 16969834 17273482 17585798 17906518 
2439.690 18234528 18569286 18910046 19257000 19610538 19971266 20339484 
2443.065 20715000 21097692 21486988 21882696 22284660 22692024 23103964 
2446.440 23518360 23933080 24345672 24754026 25157008 25554004 25945032 
2449.815 26330074 26708692 27080130 27443838 27799090 28145902 28484286 
2453.191 28814614 29136796 29449996 29753028 30044622 30322806 30585418 
2456.566 30830402 31054098 31252880 31422258 31558062 31656414 31715226 
2459.941 31733618 31712658 31653956 31559844 31433012 31276058 31092466 
2463.316 30885898 30661148 30423688 30179110 29932824 29689942 29455174 
2466.692 29232972 29028206 28845100 28688478 28562306 28469992 28413250 
2470.067 28392732 28408120 28458566 28542986 28660302 28809162 28987576 
2473.442 29192606 29419752 29664008 29919760 30180992 30442772 30700832 
2476.817 30951398 31191854 31420082 31633784 31830870 32008532 32163468 
2480.193 32292474 32392674 32462008 32499998 32508246 32488930 32445584 
2483.568 32381534 32299720 32202292 32091684 31970120 31840424 31706456 
2486.943 31571246 31437610 31306044 31175512 31042780 30904112 30755708 
2490.318 30595300 30422016 30236014 30038408 29829962 29610726 29380112 
2493.694 29136654 28878494 28604488 28313894 28006282 27682078 27341882 
2497.069 26986650 26617406 26235804 25843110 25441178 25031402 24615528 
2500.444 24195288 23773388 23352596 22936508 22528914 22132304 21749116 
2503.819 21379668 21023192 20677886 20342018 20014706 19696098 19387874 
2507.195 19092056 18810766 18545528 18296490 18062824 17843094 17635208 
2510.570 17437664 17249072 17068694 16896556 16732713 16578056 16433503 
2513.945 16300144 16178999 16070781 15975378 15892748 15822330 15763504 
2517.320 15716162 15679987 15655426 15642544 15640931 15649827 15667964 
2520.696 15694346 15727671 15767353 15812298 15861783 15914710 15969742 
2524.071 16025947 16082678 16139554 16196676 16253773 16310429 16364375 
2527.446 16413476 16454391 16484058 16500680 16503399 16491972 16467676 
2530.821 16431611 16384743 16328456 16263954 16192961 16117442 16039735 
2534.197 15961973 15885530 15811369 15739592 15670197 15603320 15538925 
2537.572 15477734 15420190 15366740 15317585 15272761 15232025 15195753 
2540.947 15164461 15138247 15117319 15100611 15086718 15073339 15058382 
2544.322 15040134 15018078 14992595 14965123 14937138 14910116 14884947 
2547.698 14861802 14840442 14820179 14800500 14780994 14761180 14741092 
2551.073 14720869 14700989 14682001 14664659 14649134 14635563 14623432 
2554.448 14611918 14600199 14587931 14574876 14561547 14548287 14535473 
2557.823 14522968 14509846 14495011 14476786 14454041 14425404 14390399 
2561.198 14348581 14299987 14245202 14185048 14121138 14055731 13991155 
2564.574 13929942 13873560 13823036 13778092 13737735 13700871 13666368 
2567.949 13634022 13604380 13578535 13558263 13545068 13540111 13543632 
2571.324 13554776 13572074 13593201 13616107 13639459 13662812 13686988 
2574.699 13713626 13744883 13782436 13826594 13876365 13929224 13982669 
2578.075 14034341 14083043 14129079 14173648 14218736 14265883 14316082 
2581.450 14369747 14426911 14487578 14551953 14620519 14693723 14771601 
2584.825 14853504 14938544 15025179 15112482 15199940 15287485 15375390 
2588.200 15463794 15552628 15641754 15730968 15820337 15910551 16002193 
2591.576 16095744 16191242 16287690 16383884 16477689 16567627 16652554 
2594.951 16732162 16806722 16876988 16944026 17008940 17072864 17137484 
2598.326 17203980 17274138 17348618 17428006 17511792 17599390 17689906 
2601.701 17782924 17878690 17977896 18081512 18190336 18304888 18425000 
2605.077 18550026 18679166 18811528 18946492 19084026 19224130 19367122 
2608.452 19513694 19664618 19820308 19980982 20146192 20314484 20483572 
2611.827 20650920 20814056 20970994 21120788 21263188 21398706 21527758 
2615.202 21650856 21768242 21879910 21986308 22088096 22185930 22280336 
2618.578 22371098 22457414 22537954 22611038 22675932 22732804 22783014 
2621.953 22828654 22872274 22915760 22960436 23006794 23054590 23103860 
2625.328 23154392 23206154 23259320 23313822 23369238 23425364 23481948 
2628.703 23538996 23596856 23656404 23718092 23782382 23849026 23917394 
2632.079 23986614 24055880 24124424 24191784 24256948 24319458 24378580 
2635.454 24433958 24485382 24533656 24579972 24625944 24673040 24722458 
2638.829 24774690 24829836 24887798 24948224 25011152 25076404 25144334 
2642.204 25214944 25288304 25364348 25443180 25525048 25610130 25698392 
2645.580 25790014 25884290 25980982 26079768 26180972 26285366 26393870 
2648.955 26507086 26625192 26746960 26870702 26994408 27116490 27236350 
2652.330 27354656 27473452 27594824 27720748 27852326 27989424 28131442 
2655.705 28277114 28425630 28576214 28728760 28883378 29040250 29199234 
2659.081 29360400 29523260 29687636 29853172 30019874 30187314 30355388 
2662.456 30523846 30692262 30860390 31028438 31196268 31364412 31533118 
2665.831 31702284 31871908 32041386 32210034 32377214 32542102 32704622 
2669.206 32864954 33023984 33183110 33344008 33508406 33677844 33852752 
2672.582 34033288 34218488 34407312 34598196 34790352 34982984 35176060 
2675.957 35369512 35563340 35757144 35950384 36142740 36333708 36523600 
2679.332 36713108 36903460 37096744 37294628 37499392 37713032 37937016 
2682.707 38172760 38420612 38680348 38951580 39233064 39523764 39823052 
2686.083 40130392 40445880 40769456 41101144 41440300 41786328 42138104 
2689.458 42495140 42856888 43223700 43596172 43974788 44360196 44752668 
2692.833 45152408 45559396 45974020 46396416 46826828 47265200 47711116 
2696.208 48163712 48622040 49085304 49552780 50024288 50499732 50979168 
2699.583 51462300 51949032 52439228 52932596 53429376 53929500 54432452 
2702.959 54937192 55441276 55942444 56437508 56924032 57399912 57863972 
2706.334 58314584 58751096 59171872 59575076 59959256 60323068 60666032 
2709.709 60988220 61290276 61572916 61836408 62080600 62305236 62510356 
2713.084 62696120 62863208 63012356 63143620 63256404 63349404 63420444 
2716.460 63467576 63489048 63483908 63452312 63395372 63315012 63213864 
2719.835 63095608 62964356 62825032 62683372 62544600 62413980 62296128 
2723.210 62194488 62111984 62050744 62012372 61997888 62007824 62042376 
2726.585 62101052 62183552 62289400 62418264 62570088 62744932 62941796 
2729.961 63159636 63396216 63648924 63914596 64190960 64475916 64767940 
2733.336 65065748 65367876 65672264 65976552 66277808 66573872 66862868 
2736.711 67143624 67415672 67678936 67933176 68178688 68415112 68643320 
2740.086 68864152 69079152 69290608 69500728 69712040 69927040 70148048 
2743.462 70377136 70616784 70868536 71133480 71411784 71702536 72003840 
2746.837 72313264 72627928 72944688 73260240 73570912 73872152 74159520 
2750.212 74428400 74674624 74895632 75089848 75257720 75400616 75520496 
2753.587 75619464 75698944 75759888 75802368 75825808 75828928 75809984 
2756.963 75766712 75696416 75596912 75466168 75302640 75105800 74875200 
2760.338 74611040 74313576 73983672 73622640 73232352 72815992 72377376 
2763.713 71920704 71450560 70971376 70487296 70002704 69522464 69051112 
2767.088 68594544 68157840 67745736 67362112 67009220 66688476 66400408 
2770.464 66144748 65921128 65728804 65566548 65432512 65324432 65239480 
2773.839 65174916 65127716 65095304 65075024 65063820 65058320 65053620 
2777.214 65044388 65024644 64988084 64929320 64844064 64729252 64583896 
2780.589 64408348 64204940 63977324 63730264 63469604 63200408 62928200 
2783.965 62657424 62391488 62132896 61883132 61642448 61409796 61182804 
2787.340 60957948 60730544 60495372 60248264 59985656 59706484 59411948 
2790.715 59104328 58787892 58466496 58144128 57824148 57509176 57201992 
2794.090 56904808 56620624 56352356 56102992 55875508 55672560 55495792 
2797.466 55346644 55225772 55133220 55068368 55030076 55017064 55027256 
2800.841 55058552 55109144 55176968 55260012 55356396 55463976 55581116 
2804.216 55706120 55837416 55973800 56114228 56257412 56401780 56545472 
2807.591 56685632 56819296 56943300 57054188 57149040 57224484 57277972 
2810.967 57307048 57309996 57285648 57234008 57155616 57051772 56924188 
2814.342 56774776 56605032 56417548 56215508 56003468 55787228 55574340 
2817.717 55372996 55191304 55037524 54917900 54837780 54800868 54809248 
2821.092 54863836 54963852 55107640 55291624 55511644 55762176 56037164 
2824.468 56329984 56634288 56942964 57249392 57546928 57828960 58089884 
2827.843 58324704 58529736 58703340 58844800 58955188 59036644 59092140 
2831.218 59125324 59140168 59140776 59131432 59115980 59098060 59081128 
2834.593 59068264 59062720 59067956 59087432 59124636 59182956 59265668 
2837.969 59375936 59517652 59695496 59916352 60187972 60520512 60925428 
2841.344 61414228 61999144 62693328 63509144 64461304 65566280 66840760 
2844.719 68302368 69964592 71832648 73897120 76128728 78475928 80856960 
2848.094 83169168 85295432 87106472 88487736 89346072 89621720 89299184 
2851.469 88404880 87005416 85189880 83066536 80749408 78339992 75932784 
2854.845 73605728 71413848 69397536 67578112 65960928 64539112 63296312 
2858.220 62211236 61259216 60416768 59662840 58978112 58347288 57757156 
2861.595 57196360 56655844 56128628 55609132 55094696 54584740 54081048 
2864.970 53587572 53110908 52659080 52241200 51866956 51545680 51283920 
2868.346 51086308 50953572 50883304 50869484 50903680 50976000 51074380 
2871.721 51187208 51303124 51411124 51503408 51574560 51622284 51647920 
2875.096 51655084 51648664 51634072 51615788 51597952 51583400 51574296 
2878.471 51572952 51581348 51601124 51633628 51679120 51737492 51808192 
2881.847 51890592 51984364 52089544 52205960 52333064 52469436 52613372 
2885.222 52762480 52914520 53068596 53224264 53382540 53545064 53713880 
2888.597 53890972 54078008 54277064 54489920 54719192 54968400 55241500 
2891.972 55544024 55882632 56265104 56700844 57200216 57773356 58429500 
2895.348 59174832 60010196 60929012 61916104 62946544 63984200 64988352 
2898.723 65912800 66712128 67350616 67803600 68063960 68142216 68065968 
2902.098 67875528 67615520 67333400 67071816 66864528 66739792 66716760 
2905.473 66809228 67027352 67377672 67865888 68496576 69274520 70205184 
2908.849 71295096 72551440 73980960 75587848 77370920 79320976 81417440 
2912.224 83630280 85915704 88218744 90480304 92632056 94606280 96343296 
2915.599 97790032 98910768 99689480 100129288 100251736 100089992 99685976 
2918.974 99079240 98303128 97382512 96330184 95150480 93842224 92403192 
2922.350 90834960 89147088 87356744 85491616 83586736 81678944 79806688 
2925.725 78004280 76297824 74706888 73241760 71905064 70692616 69595776 
2929.100 68602768 67699808 66873232 66110872 65402196 64739676 64118712 
2932.475 63536608 62992820 62487280 62020016 61590708 61198332 60841260 
2935.851 60517160 60222724 59953436 59704008 59468256 59239956 59014320 
2939.226 58788348 58562036 58338044 58121284 57917848 57733692 57573904 
2942.601 57441136 57335784 57254760 57192164 57138796 57082152 57009488 
2945.976 56907680 56766508 56581440 56354316 56094620 55817220 55541048 
2949.352 55286164 55068556 54900796 54788876 54732496 54726220 54760536 
2952.727 54824216 54904664 54990212 55070924 55138184 55186412 55212036 
2956.102 55213280 55189688 55142136 55072392 54982728 54876580 54758280 
2959.477 54632348 54503668 54376568 54254276 54139372 54033088 53936740 
2962.853 53851024 53776992 53715228 53666112 53629520 53604480 53589636 
2966.228 53583824 53586184 53596568 53615424 53643128 53679984 53726216 
2969.603 53781416 53845472 53918772 54002132 54096812 54203856 54323772 
2972.978 54456040 54599056 54749712 54903840 55056332 55200636 55328880 
2976.354 55432544 55501928 55528324 55504976 55427460 55295724 55113016 
2979.729 54886508 54624984 54338944 54039768 53737688 53442864 53163820 
2983.104 52906248 52673032 52462744 52270276 52087004 51902280 51706140 
2986.479 51490052 51249356 50983416 50694772 50387680 50066416 49733648 
2989.854 49388732 49028216 48645980 48236016 47793444 47317112 46810036 
2993.230 46280032 45738528 45197516 44668304 44158556 43671236 43204484 
2996.605 42752820 42309044 41866080 41418428 40963776 40502216 40035876 
2999.980 39568332 39103248 38644204 38194144 37755500 37329616 36917636 
3003.355 36519456 36134892 35762684 35402152 35052444 34713356 34385328 
3006.731 34069088 33765432 33474832 33197306 32932040 32677542 32432228 
3010.106 32194156 31961740 31733510 31508502 31286314 31066770 30850358 
3013.481 30637966 30430404 30228626 30033046 29843980 29661418 29485208 
3016.856 29315238 29151322 28993456 28841170 28693644 28550168 28409570 
3020.232 28271174 28134872 28001264 27871476 27746778 27628330 27516728 
3023.607 27412320 27315276 27226226 27146540 27078542 27024942 26987990 
3026.982 26968810 26967012 26979458 27001140 27025470 27044830 27051212 
3030.357 27038024 26999660 26933026 26836898 26712746 26563934 26394996 
3033.733 26211414 26018762 25821834 25625032 25431410 25243528 25062818 
3037.108 24890114 24725756 24569382 24420604 24278392 24141936 24010812 
3040.483 23884380 23762642 23645240 23532314 23423510 23318750 23217584 
3043.858 23119726 23025276 22934028 22846044 22761434 22680364 22603080 
3047.234 22530170 22462404 22400438 22344864 22295404 22251352 22211072 
3050.609 22172784 22134640 22095276 22054104 22010880 21965812 21919322 
3053.984 21871546 21822522 21772526 21722258 21673078 21626756 21585140 
3057.359 21549764 21521560 21500428 21485734 21476544 21471530 21470172 
3060.735 21471914 21476510 21484064 21494544 21508260 21525876 21548230 
3064.110 21576122 21610528 21651378 21697666 21747758 21798900 21848724 
3067.485 21894720 21935318 21969578 21996868 22016772 22028552 22031796 
3070.860 22026184 22012414 21992024 21967590 21942288 21918834 21899458 
3074.236 21884928 21875064 21868618 21864088 21860256 21856320 21852068 
3077.611 21846980 21841024 21833532 21823706 21810814 21794232 21774094 
3080.986 21751034 21726162 21700664 21675620 21651936 21629926 21609692 
3084.361 21591514 21575704 21563308 21555474 21553628 21559130 21572466 
3087.737 21593534 21620906 21652946 21687044 21720902 21752844 21781864 
3091.112 21807784 21831198 21852870 21873706 21894440 21915592 21937794 
3094.487 21961700 21988364 22019072 22055012 22097368 22146598 22202252 
3097.862 22263142 22327458 22393358 22459018 22523610 22586744 22649016 
3101.238 22710912 22773272 22836476 22900532 22964976 23029364 23093376 
3104.613 23156978 23220450 23283860 23347176 23410012 23471456 23530600 
3107.988 23586990 23640694 23692618 23744374 23797852 23854660 23915782 
3111.363 23981362 24050766 24122846 24196724 24271314 24346058 24420462 
3114.739 24493970 24566124 24636182 24704044 24769638 24833380 24896116 
3118.114 24958402 25020908 25083214 25145038 25205498 25264074 25320758 
3121.489 25376150 25431164 25486958 25544446 25603838 25664822 25727042 
3124.864 25789696 25852464 25915768 25979818 26045534 26113336 26183330 
3128.240 26255022 26327362 26399186 26469332 26537164 26602398 26665532 
3131.615 26727650 26789954 26853922 26920440 26989930 27062920 27139100 
3134.990 27218218 27299680 27383062 27467698 27552668 27637160 27720006 
3138.365 27800468 27878118 27953308 28026674 28099486 28172806 28247482 
3141.740 28323760 28401752 28480996 28561386 28642996 28726210 28811250 
3145.116 28898502 28988144 29079716 29172796 29266960 29362138 29458364 
3148.491 29556030 29655068 29755368 29856438 29957354 30057334 30155456 
3151.866 30251394 30345438 30437654 30528644 30619264 30710078 30801802 
3155.241 30894684 30989258 31084956 31181814 31278766 31375666 31472306 
3158.617 31568858 31666324 31765380 31866704 31969796 32074240 32178276 
3161.992 32280944 32381394 32479930 32577996 32676936 32778688 32883930 
3165.367 32992988 33104576 33217478 33329948 33440336 33547598 33650988 
3168.742 33749924 33844620 33935216 34023040 34109156 34195288 34282804 
3172.118 34372560 34464308 34557368 34650300 34741284 34829268 34913068 
3175.493 34992464 35067460 35138664 35206816 35272828 35338064 35403916 
3178.868 35471324 35541080 35613076 35686956 35761640 35836264 35910544 
3182.243 35984868 36059712 36136224 36214404 36294004 36373984 36453396 
3185.619 36530992 36606468 36680156 36752740 36824936 36897508 36970452 
3188.994 37043984 37118288 37193580 37270616 37349904 37431992 37516440 
3192.369 37603072 37690916 37779428 37868208 37957048 38045396 38132676 
3195.744 38217660 38299152 38376636 38450120 38521116 38591400 38663252 
3199.120 38737436 38814348 38892800 38970900 39047308 39121628 39194584 
3202.495 39268100 39344052 39423900 39508124 39595480 39684200 39772320 
3205.870 39857332 39937932 40013096 40082640 40146852 40207116 40265424 
3209.245 40324244 40385624 40451300 40521128 40594248 40668220 40740852 
3212.621 40810188 40875780 40938180 40999460 41060644 41123144 41186748 
3215.996 41250940 41315292 41379616 41444604 41510988 41579568 41650420 
3219.371 41722600 41795008 41866480 41936832 42006692 42077756 42151432 
3222.746 42228624 42309116 42391668 42474380 42555872 42635548 42713444 
3226.122 42790556 42867348 42943972 43020572 43096088 43169752 43241560 
3229.497 43311552 43380308 43448380 43516244 43583712 43651232 43718468 
3232.872 43785600 43852896 43920492 43988208 44055936 44123232 44189844 
3236.247 44256060 44322584 44390104 44459140 44529880 44601844 44674436 
3239.623 44747380 44820664 44894836 44970204 45047164 45124688 45201636 
3242.998 45276356 45348036 45416788 45484148 45552624 45624680 45701976 
3246.373 45784696 45871636 45960576 46049060 46135604 46219220 46300048 
3249.748 46378424 46455340 46531048 46606364 46681812 46758296 46836788 
3253.124 46917848 47001796 47088204 47176248 47264760 47352912 47440128 
3256.499 47526396 47611684 47695916 47779056 47860584 47939984 48017580 
3259.874 48093972 48169784 48245828 48322184 48398560 48473864 48547260 
3263.249 48618336 48687232 48755028 48823096 48892172 48962968 49035264 
3266.625 49108496 49182068 49255920 49330264 49405436 49482036 49560020 
3270.000 49638876 49718004 49796736 49874852 49952724 50031204 50110700 
3273.375 50192036 50275280 50360072 50446180 50532976 50620232 50707880 
3276.750 50796220 50885540 50976820 51070616 51167860 51269640 51376476 
3280.125 51488784 51606196 51727748 51852584 51979356 52107700 52237312 
3283.501 52368872 52503052 52640640 52782496 52929004 53080576 53237224 
3286.876 53399248 53566696 53739264 53917004 54099176 54285364 54474820 
3290.251 54666880 54861468 55058476 55258392 55461684 55669548 55883048 
3293.626 56103332 56331608 56568156 56812992 57065448 57324592 57589600 
3297.002 57860188 58136852 58420400 58711948 59011892 59320476 59636536 
3300.377 59958876 60286252 60617876 60953756 61294400 61640692 61993644 
3303.752 62354000 62722348 63099400 63485636 63881776 64287768 64703136 
3307.127 65126448 65555648 65989240 66426276 66867048 67312936 67765872 
3310.503 68227656 68698744 69178768 69666528 70160984 70661224 71167864 
3313.878 71681352 72202400 72731448 73267728 73810248 74357808 74910272 
3317.253 75468064 76032328 76603760 77182296 77766544 78354680 78944128 
3320.628 79533736 80122680 80711736 81301240 81891904 82483448 83075408 
3324.004 83667080 84257952 84848344 85438008 86026360 86611848 87191432 
3327.379 87761656 88319760 88864384 89395736 89914904 90423384 90921304 
3330.754 91407608 91879608 92334088 92768392 93180480 93568864 93932504 
3334.129 94270024 94579048 94857584 95104160 95318888 95503392 95660832 
3337.505 95793464 95902872 95987960 96046240 96073360 96066240 96022016 
3340.880 95940064 95820608 95664800 95473800 95248544 94989672 94697336 
3344.255 94371632 94011616 93615880 93182408 92708752 92193120 91635432 
3347.630 91037824 90404328 89740008 89049824 88337824 87606120 86855648 
3351.006 86086920 85301080 84499752 83685432 82860616 82028080 81189584 
3354.381 80346912 79502024 78657584 77817072 76984560 76163672 75357256 
3357.756 74566936 73793168 73035400 72293856 71568112 70858832 70166080 
3361.131 69490192 68830488 68186328 67556976 66941836 66340996 65755212 
3364.507 65185116 64631536 64095168 63576424 63075952 62593812 62130296 
3367.882 61684992 61256776 60843660 60443772 60054860 59675652 59305472 
3371.257 58944332 58591764 58247212 57908720 57573640 57238964 56902124 
3374.632 56561740 56217356 55869256 55517892 55163164 54804440 54440416 
3378.008 54069864 53692280 53307348 52915608 52518012 52114648 51705468 
3381.383 51289924 50867172 50436688 49998636 49553116 49100664 48641944 
3384.758 48177448 47707976 47235312 46760952 46287368 45817064 45351712 
3388.133 44892412 44439616 43992680 43551152 43114972 42684088 42258788 
3391.509 41839628 41426452 41018836 40615716 40216092 39819128 39424664 
3394.884 39032588 38643512 38258260 37877212 37500872 37130272 36766008 
3398.259 36408608 36058452 35715592 35378716 35046624 34716984 34387984 
3401.634 34058300 33727432 33395532 33064206 32734670 32408346 32086190 
3405.010 31768874 31455882 31146892 30841464 30538668 30237860 29938682 
3408.385 29641234 29345548 29052508 28762462 28476290 28194760 27918326 
3411.760 27647118 27381122 27119912 26863158 26610078 26360386 26113722 
3415.135 25870610 25631570 25397298 25168946 24947102 24732000 24523138 
3418.510 24319074 24118538 23919600 23721068 23522592 23323926 23126400 
3421.886 22930850 22738738 22551110 22368692 22191824 22020432 21853706 
3425.261 21691084 21531344 21372986 21214962 21056232 20896308 20735018 
3428.636 20572710 20409526 20245918 20082196 19918536 19755528 19594244 
3432.011 19435760 19281834 19133538 18991594 18855784 18724516 18596018 
3435.387 18467732 18338344 18206368 18072392 17937388 17802980 17670992 
3438.762 17542566 17418040 17296858 17177848 17059148 16939342 16817502 
3442.137 16693320 16567351 16440419 16313354 16186599 16060019 15932893 
3445.512 15804393 15674284 15543081 15412363 15284602 15162162 15046377 
3448.888 14937996 14835744 14737459 14640464 14542429 14441640 14337519 
3452.263 14230684 14121891 14011995 13901955 13792252 13682987 13574124 
3455.638 13465632 13357201 13248898 13140555 13032238 12924530 12817871 
3459.013 12713081 12610568 12510533 12412330 12315444 12218716 12121225 
3462.389 12023211 11925117 11827624 11731890 11638151 11546472 11456004 
3465.764 11365624 11274854 11183525 11091908 11000448 10909958 10820268 
3469.139 10731106 10641826 10551683 10460709 10369042 10278005 10188174 
3472.514 10100431 10014672 9930726 9847542 9764883 9682036 9599578 9518049 
3476.372 9438432 9361572 9288178 9218181 9151445 9087188 9024125 8960428 
3480.229 8894847 8826063 8753672 8678623 8602675 8528193 8457441 8392037 
3484.087 8332113 8276556 8223301 8170256 8115597 8058649 8000055 7940761 
3487.944 7882351 7825805 7771526 7718974 7667441 7616284 7565100 7514495 
3491.802 7465311 7418661 7375622 7337339 7304551 7277461 7256166 7240433 
3495.659 7228978 7220622 7213514 7205799 7196299 7184778 7171876 7159009 
3499.516 7148465 7141931 7140584 7144962 7154192 7166790 7181747 7197748 
3503.374 7214963 7234200 7256908 7284705 7318940 7360019 7407370 7460457 
3507.231 7517427 7576968 7638439 7701605 7766972 7835521 7907961 7984834 
3511.089 8065873 8150336 8237349 8326068 8416123 8507277 8600174 8694883 
3514.946 8791100 8887711 8982888 9074365 9160480 9240181 9312923 9379583 
3518.803 9440769 9497322 9549039 9595173 9634435 9665163 9685729 9695385 
3522.661 9693285 9679494 9654152 9617328 9568651 9507786 9433691 9346066 
3526.518 9244108 9128096 8998956 8858289 8708304 8551577 8390381 8226543 
3530.376 8061417 7896016 7731016 7566685 7403326 7240870 7078981 6916917 
3534.233 6754138 6590210 6425402 6260926 6098124 5938911 5784893 5636569 
3538.091 5494336 5357450 5225603 5098524 4976241 4859185 4747689 4641546 
3541.948 4540183 4442426 4346599 4251294 4154906 4056266 3954538 3848957 
3545.805 3739558 3626811 3512123 3397098 3284307 3176018 3073762 2978003 
3549.663 2888568 2803321 2720391 2637710 2553778 2468030 2380966 2293720 
3553.520 2207656 2124341 2045102 1970438 1900945 1836721 1777263 1722005 
3557.378 1669781 1619393 1569010 1517403 1463109 1405764 1345767 1284117 
3561.235 1223008 1165096 1112607 1067398 1029932 998581 970154 939470 900821 
3565.575 848264 778352 689735 585375 471189 354778 243835 144090 58452 
3569.914 -12789 -71331 -120193 -162624 -201805 -240320 -279826 -321215 
3573.772 -365083 -411197 -458597 -506820 -554740 -600966 -644641 -684870 
3577.629 -721093 -753675 -783079 -810563 -837185 -864203 -891483 -918894 
3581.487 -945146 -969016 -988686 -1003199 -1012191 -1016190 -1017116 
3584.862 -1017942 -1022537 -1035594 -1061211 -1102063 -1158509 -1227338 
3588.237 -1302234 -1376490 -1443171 -1497657 -1538666 -1567357 -1586868 
3591.612 -1601097 -1614037 -1628265 -1645760 -1667050 -1692497 -1721277 
3594.988 -1753025 -1786387 -1820275 -1852675 -1881807 -1906516 -1926705 
3598.363 -1943660 -1959658 -1977733 -1999733 -2026216 -2055534 -2084389 
3601.738 -2108922 -2125672 -2132662 -2129695 -2118253 -2100843 -2080861 
3605.113 -2061470 -2045872 -2037001 -2037462 -2048807 -2071462 -2104141 
3608.489 -2144202 -2187425 -2230412 -2270297 -2306454 -2339741 -2371708 
3611.864 -2403638 -2436127 -2468020 -2497176 -2520797 -2536642 -2543296 
3615.239 -2541550 -2532788 -2520039 -2507159 -2498461 -2498297 -2510090 
3618.614 -2535555 -2573699 -2620864 -2671416 -2719393 -2760188 -2791202 
3621.990 -2812074 -2823859 -2827809 -2823958 -2811514 -2788733 -2754163 
3625.365 -2707902 -2653106 -2596162 -2546853 -2517338 -2518590 -2556966 
3628.740 -2630316 -2726901 -2828764 -2919940 -2990629 -3038933 -3069104 
3632.115 -3087298 -3100852 -3115097 -3132170 -3151940 -3172400 -3190918 
3635.490 -3205193 -3215159 -3221704 -3226736 -3231603 -3237425 -3243936 
3638.866 -3250481 -3256598 -3261925 -3267220 -3273238 -3280111 -3286786 
3642.241 -3290404 -3287411 -3274060 -3248047 -3209206 -3160131 -3105392 
3645.616 -3050548 -3001488 -2963809 -2941003 -2936198 -2951139 -2986154 
3648.991 -3040512 -3110590 -3190129 -3270048 -3340220 -3392233 -3420769 
3652.367 -3425108 -3408211 -3376288 -3337360 -3299447 -3270344 -3256236 
3655.742 -3259459 -3278795 -3308950 -3342686 -3372803 -3395258 -3408441 
3659.117 -3414556 -3416923 -3419290 -3424221 -3431815 -3439737 -3443846 
3662.492 -3440296 -3426391 -3401406 -3366425 -3322958 -3271594 -3211409 
3665.868 -3139966 -3055253 -2956536 -2846079 -2727395 -2604265 -2476125 
3669.243 -2335094 -2165534 -1944947 -1653550 -1276070 -804775 -237506 425682 
3673.100 1180545 2014709 2889002 3728763 4425823 4854528 4923758 4612779 
3676.958 3971291 3091081 2073167 1014323 -8084 -931194 -1708076 -2317990 
3680.815 -2763415 -3068479 -3267878 -3396737 -3482995 -3541564 -3578602 
3684.190 -3594408 -3589578 -3567001 -3533348 -3496965 -3466462 -3447429 
3687.566 -3443024 -3452689 -3473693 -3502815 -3537522 -3575973 -3617147 
3690.941 -3659632 -3701357 -3740220 -3773890 -3800890 -3820991 -3834555 
3694.316 -3842602 -3846707 -3848349 -3848645 -3848612 -3848053 -3846346 
3697.691 -3842306 -3834851 -3823717 -3810119 -3796982 -3787949 -3786766 
3701.067 -3795733 -3814422 -3839514 -3866247 -3889563 -3905457 -3912320 
3704.442 -3910547 -3901188 -3885951 -3865853 -3840959 -3811105 -3776190 
3707.817 -3736870 -3695049 -3653718 -3617213 -3590268 -3578142 -3584616 
3711.192 -3612185 -3659205 -3720280 -3787587 -3850976 -3902698 -3937472 
3714.568 -3954185 -3954809 -3943842 -3926078 -3905194 -3883488 -3861584 
3717.943 -3838398 -3813141 -3785847 -3757959 -3731844 -3709932 -3693440 
3721.318 -3681941 -3673694 -3666236 -3657365 -3647311 -3637191 -3629732 
3724.693 -3628286 -3634562 -3648165 -3666959 -3686278 -3700076 -3703624 
3728.069 -3693308 -3668306 -3630817 -3585108 -3537686 -3494894 -3462813 
3731.444 -3444668 -3440362 -3446147 -3456239 -3466856 -3476421 -3487466 
3734.819 -3504557 -3532658 -3573147 -3623620 -3677473 -3727475 -3767814 
3738.194 -3795733 -3810743 -3813502 -3804207 -3782102 -3746725 -3698696 
3741.570 -3641561 -3583827 -3537916 -3517605 -3534893 -3592009 -3676980 
3744.945 -3765613 -3833274 -3865065 -3859318 -3824374 -3773003 -3718703 
3748.320 -3672544 -3641495 -3628812 -3633642 -3652634 -3682269 -3719525 
3751.695 -3761835 -3805357 -3845820 -3877906 -3897707 -3904373 -3899152 
3755.071 -3886017 -3869039 -3852257 -3837774 -3826574 -3818593 -3813667 
3758.446 -3812057 -3814619 -3822239 -3833734 -3846608 -3857282 -3862241 
3761.821 -3859942 -3851830 -3841518 -3834391 -3834687 -3844441 -3861847 
3765.196 -3881945 -3897609 -3903093 -3895343 -3875837 -3849630 -3822535 
3768.572 -3801350 -3790577 -3791595 -3802828 -3820728 -3840894 -3859745 
3771.947 -3875705 -3888480 -3898988 -3908183 -3916293 -3922335 -3924962 
3775.322 -3921810 -3911499 -3893799 -3870976 -3846608 -3825458 -3812221 
3778.697 -3809594 -3817969 -3834325 -3853833 -3871633 -3884638 -3891566 
3782.073 -3894029 -3894620 -3895901 -3899185 -3904636 -3910842 -3916556 
3785.448 -3920759 -3923222 -3925257 -3928081 -3932449 -3938194 -3944335 
3788.823 -3948964 -3950901 -3949030 -3943481 -3934747 -3923813 -3910908 
3792.198 -3896361 -3880467 -3863489 -3846083 -3829859 -3816491 -3807393 
3795.573 -3802532 -3800200 -3797343 -3790051 -3775007 -3751159 -3719787 
3798.949 -3685456 -3655361 -3636829 -3637125 -3659205 -3699715 -3748827 
3802.324 -3793631 -3823093 -3831665 -3820137 -3794682 -3764890 -3740680 
3805.699 -3730201 -3737954 -3762328 -3796620 -3830220 -3854852 -3865525 
3809.074 -3862306 -3848382 -3827757 -3803813 -3777733 -3748893 -3715714 
3812.450 -3677177 -3633938 -3589578 -3549320 -3520005 -3507548 -3513990 
3815.825 -3535780 -3563879 -3586883 -3594737 -3583367 -3554217 -3514417 
3819.200 -3474712 -3447429 -3444043 -3470078 -3523357 -3592634 -3662556 
3822.575 -3718900 -3753656 -3766598 -3762853 -3750634 -3738019 -3731022 
3825.951 -3731647 -3738019 -3744820 -3745608 -3736114 -3714958 -3683912 
3829.326 -3647607 -3611725 -3580902 -3558358 -3544259 -3536503 -3531048 
3832.701 -3523620 -3510933 -3491706 -3466790 -3438849 -3412320 -3392003 
3836.076 -3381910 -3385132 -3402030 -3430237 -3465015 -3500613 -3532494 
3839.452 -3557898 -3577057 -3591648 -3604792 -3619283 -3636928 -3658581 
3842.827 -3683682 -3710852 -3737757 -3762197 -3781741 -3794715 -3799905 
3846.202 -3796817 -3785682 -3766631 -3739859 -3705004 -3661373 -3608275 
3849.577 -3545804 -3475600 -3402359 -3333611 -3280440 -3255085 -3267878 
3852.953 -3322300 -3410216 -3513859 -3612021 -3688972 -3738414 -3762755 
3856.328 -3767715 -3760127 -3744688 -3724551 -3700930 -3674286 -3645800 
3859.703 -3616293 -3588000 -3562729 -3542156 -3526939 -3517802 -3515239 
3863.078 -3519709 -3532132 -3552048 -3576696 -3601605 -3620138 -3626348 
3866.454 -3616852 -3592502 -3558818 -3523620 -3496965 -3486874 -3496340 
3869.829 -3522535 -3556321 -3587212 -3607552 -3614748 -3612284 -3606797 
3873.204 -3604825 -3611298 -3627005 -3648691 -3670540 -3686048 -3690614 
3876.579 -3683025 -3664856 -3640115 -3613861 -3591746 -3578437 -3576860 
3879.955 -3586751 -3604693 -3624442 -3638374 -3640674 -3628714 -3604135 
3883.330 -3571865 -3540447 -3519183 -3514779 -3529700 -3560067 -3596511 
3886.705 -3627268 -3643664 -3641791 -3623719 -3595328 -3564569 -3539823 
3890.080 -3526841 -3528648 -3544029 -3568907 -3596938 -3622602 -3641758 
3893.456 -3651977 -3652338 -3643073 -3624869 -3598680 -3566574 -3530949 
3896.831 -3494697 -3460578 -3430795 -3406600 -3388025 -3373888 -3362841 
3900.206 -3353602 -3346303 -3342291 -3343508 -3352451 -3370863 -3398940 
3903.581 -3435266 -3476783 -3519150 -3558424 -3591484 -3616457 -3633379 
3906.957 -3642744 -3645800 -3643960 -3638407 -3630159 -3620335 -3609721 
3910.332 -3598943 -3588526 -3577846 -3566081 -3552147 -3535320 -3515337 
3913.707 -3493250 -3471787 -3453773 -3442367 -3439375 -3444405 -3455713 
3917.082 -3469749 -3482469 -3491344 -3495255 -3494401 -3490259 -3484277 
3920.458 -3477013 -3468664 -3459164 -3448613 -3438192 -3430072 -3426423 
3923.833 -3429152 -3438718 -3453346 -3470143 -3485000 -3494631 -3497195 
3927.208 -3492396 -3481253 -3465870 -3448580 -3431355 -3416167 -3404792 
3930.583 -3398644 -3399269 -3407060 -3421558 -3440723 -3461630 -3480924 
3933.958 -3496044 -3505477 -3509783 -3510210 -3508403 -3505740 -3502749 
3937.334 -3498838 -3493086 -3484672 -3473364 -3460479 -3447594 -3437173 
3940.709 -3431321 -3430894 -3436253 -3446114 -3458244 -3470505 -3480629 
3944.084 -3487235 -3489766 -3488517 -3484934 -3480201 -3476323 -3474153 
3947.459 -3474153 -3476093 -3478887 -3481122 -3482042 -3481023 -3478295 
3950.835 -3474909 -3471425 -3468565 -3466330 -3464391 -3462320 -3459625 
3954.210 -3456074 -3451998 -3447889 -3444010 -3440493 -3437436 -3434346 
3957.585 -3431157 -3427771 -3424418 -3420999 -3417843 -3415016 -3412156 
3960.960 -3409033 -3405778 -3402195 -3398809 -3395883 -3393417 -3391411 
3964.336 -3389406 -3386611 -3382568 -3377077 -3369877 -3361559 -3352353 
3967.711 -3342850 -3333249 -3323780 -3314737 -3306385 -3299249 -3293528 
3971.086 -3290141 -3289253 -3291061 -3295435 -3301716 -3308983 -3315987 
3974.461 -3320853 -3322103 -3318519 -3309312 -3295007 -3277184 -3258143 
3977.837 -3240549 -3226933 -3219171 -3217066 -3220421 -3227032 -3234991 
3981.212 -3241832 -3245811 -3245910 -3242193 -3235122 -3226111 -3217593 
3984.587 -3211278 -3209008 -3211936 -3219994 -3231965 -3246008 -3260084 
3987.962 -3271955 -3280933 -3286786 -3290207 -3291982 -3292771 -3292443 
3991.338 -3290502 -3286030 -3278565 -3268338 -3256598 -3245087 -3235780 
3994.713 -3230058 -3228874 -3232031 -3238904 -3248672 -3260347 -3273139 
3998.088 -3286655 -3299743 -3311778 -3321478 -3328120 -3330948 
##END=
