
##TITLE=Z357a_1_a
##JCAMP-DX=5.01  $$ Nicolet v. 1
##DATATYPE=INFRARED SPECTRUM
##ORIGIN=UniL
##OWNER=Nicolet
##LONGDATE=2011/09/22
##TIME=08:58:15
##SPECTROMETER/DATA SYSTEM=Nicolet iS5
##DATA PROCESSING=
Ratio against background
%Transmittance->Absorbance
Truncated
ElementMultiply or ElementDivide
##COMMENTS=
Number of sample scans: 32
Collection length: 51.23 sec
Sample gain: 2.0
Background collected on: Jeu Sep 22 08:56:13 2011 (GMT+02:00);
Number of background scans: 32
Background gain: 2.0
Sample spacing:  1.000
Number of scan points: 12415
Resolution points: 8192
Number of FFT points: 65536
Apodization: N-B fort;
Phase correction: Mertz;
Laser frequency: 15798.0 cm-1
Number of rejected sample scans: 0
Number of rejected background scans: 0
Bench serial number: ASB1000141;
##RESOLUTION=4.000
##XUNITS=1/CM
##YUNITS=ABSORBANCE
##FIRSTX=649.893372
##LASTX=4000.122314
##FIRSTY=0.092038
##MAXX=4000.122314
##MINX=649.893372
##MAXY=0.263762
##MINY=-0.002504
##XFACTOR=1.000000
##YFACTOR=1.000000E-009
##NPOINTS=6950
##DELTAX=0.482117
##ZPD=6100
##XYDATA=(X++(Y..Y))
649.893 92037704 91761960 91522920 91343576 91231880 91180656 91175064 
653.268 91206128 91281792 91426024 91667104 92025552 92501080 93073432 
656.643 93712944 94397080 95124536 95915768 96804280 97816432 98963208 
660.018 100235120 101613336 103085416 104656048 106344872 108175992 
662.911 110158616 112275984 114487016 116741384 118996496 121213000 
665.803 123355392 125362080 127121616 128479440 129279808 129439488 
668.696 128994632 128070336 126805592 125291336 123565752 121631904 
671.589 119491128 117169880 114731144 112256248 109834808 107532544 
674.481 105381680 103388664 101544840 99840640 98272800 96839608 95537368 
677.856 94350800 93255304 92220120 91216672 90226792 89244704 88272784 
681.231 87317896 86383664 85470472 84574664 83694352 82832872 81998136 
684.606 81201680 80453608 79758512 79115672 78519760 77964744 77444656 
687.981 76956872 76498168 76063824 75645616 75231192 74805640 74356632 
691.355 73874976 73357480 72807256 72230888 71638240 71041064 70452848 
694.730 69889904 69369552 68908888 68521440 68213968 67985568 67828808 
698.105 67732720 67686256 67682656 67721216 67805880 67942008 68133960 
701.480 68380088 68672848 69000232 69347008 69700872 70053000 70399104 
704.855 70737728 71068848 71391744 71705264 72010056 72309544 72610768 
708.229 72924584 73262904 73636896 74058760 74542464 75106864 75779456 
711.604 76591632 77570488 78728560 80049128 81478800 82923136 84269656 
714.979 85399488 86214472 86663584 86746312 86514944 86057792 85492424 
718.354 84949184 84549832 84414752 84642584 85297448 86397128 87892664 
721.729 89663184 91506592 93176784 94426272 95038912 94898224 94006184 
725.104 92490664 90563040 88479736 86489064 84765128 83405464 82426880 
728.478 81787448 81415680 81236032 81190816 81236912 81346232 81498264 
731.853 81673944 81856248 82033240 82200008 82360912 82524040 82698000 
735.228 82885680 83082504 83278848 83465976 83639280 83801680 83961288 
738.603 84127552 84307312 84502448 84709664 84924200 85143072 85365400 
741.978 85592408 85824736 86060456 86295344 86524936 86747280 86965128 
745.352 87185312 87415256 87658456 87911568 88163448 88399560 88607384 
748.727 88779952 88918872 89031968 89128904 89215928 89294952 89363656 
752.102 89419352 89462904 89499840 89538520 89587424 89651208 89728400 
755.477 89813424 89899776 89983496 90065728 90152368 90249880 90364464 
758.852 90499120 90653496 90825896 91014616 91218512 91436280 91665664 
762.227 91902536 92141960 92381824 92625408 92885376 93184176 93555176 
765.601 94040256 94682824 95525320 96595144 97892304 99373584 100943584 
768.976 102463304 103753600 104646344 105024288 104857712 104227584 
771.869 103312880 102355248 101571600 101106312 100981000 101092304 
774.762 101238104 101178704 100725088 99772848 98337912 96529552 94517544 
778.136 92470088 90505656 88685688 87008776 85434296 83905128 82373848 
781.511 80814376 79223464 77617272 76023016 74474104 73001640 71633208 
784.886 70391080 69290536 68339640 67541144 66894060 66395932 66045248 
788.261 65843692 65795192 65905972 66182292 66630460 67255992 68065776 
791.636 69069712 70281880 71719920 73403152 75347136 77558048 80026536 
795.010 82725184 85606648 88602592 91636168 94623792 97486056 100167560 
798.385 102644528 104940904 107125832 109314520 111642640 114225816 
801.278 117131392 120330032 123679128 126898456 129611792 131415992 
804.171 131927280 130905984 128311368 124329408 119328776 113782432 
807.063 108179184 102879064 98081264 93800192 89906704 86191520 82449232 
810.438 78556248 74489520 70329016 66210232 62290124 58696704 55502456 
813.813 52731988 50366064 48364332 46676716 45257232 44067084 43070952 
817.188 42238960 41544968 40965964 40486032 40094560 39785536 39554940 
820.563 39399448 39315288 39299620 39352032 39475716 39675852 39959548 
823.938 40332792 40798796 41357636 42007088 42741740 43552356 44424348 
827.312 45336632 46260056 47163360 48019024 48811192 49545016 50250584 
830.687 50986356 51827868 52864184 54186628 55866728 57945148 60408012 
834.062 63174808 66076652 68859304 71225440 72841744 73420688 72789784 
837.437 70918280 67944528 64133808 59846256 55442484 51226352 47429740 
840.812 44175392 41498484 39368900 37720080 36470188 35536944 34852564 
844.186 34358216 34006088 33761312 33597896 33499602 33458550 33470326 
847.561 33530418 33632296 33765572 33919772 34087292 34266204 34460756 
850.936 34678868 34929476 35218316 35546724 35912484 36312308 36744336 
854.311 37209248 37710540 38252868 38841376 39481272 40179748 40947468 
857.686 41798728 42753368 43834052 45065100 46473224 48087716 49939492 
861.060 52062352 54484360 57216320 60235812 63472292 66800496 70029960 
864.435 72939712 75299680 76900552 77607888 77376904 76268632 74432768 
867.810 72094344 69518584 66951112 64615116 62677100 61233924 60329808 
871.185 59960132 60086404 60644392 61552988 62720128 64033920 65373576 
874.560 66615356 67632936 68325336 68626832 68516864 68025088 67223616 
877.935 66216448 65111204 64009308 62988488 62088432 61313512 60634792 
881.309 60005020 59368260 58678152 57911748 57072400 56190432 55311944 
884.684 54491048 53773312 53188312 52748820 52452872 52291016 52252860 
888.059 52332988 52531432 52851460 53294948 53860812 54542208 55329932 
891.434 56214456 57188840 58250924 59401616 60644088 61980688 63411512 
894.809 64933440 66538112 68207688 69910992 71600376 73204032 74634328 
898.183 75797520 76600840 76977440 76895792 76366680 75440152 74197568 
901.558 72743672 71182312 69616272 68136280 66810468 65689988 64805904 
904.933 64171680 63788816 63650684 63748716 64074008 64621380 65388560 
908.308 66375160 67580792 69004464 70644072 72497128 74561312 76833112 
911.683 79305224 81962920 84778744 87715792 90728456 93769720 96805360 
915.058 99819248 102820736 105841856 108934920 112159768 115566560 119185232 
918.432 123004624 126961752 130922016 134684768 138002112 140585840 
921.325 142178816 142605712 141819312 139940416 137256320 134213208 
924.218 131315200 129088816 128011120 128403408 130414560 133968296 
927.110 138782160 144358016 150046112 155180464 159101248 161301632 
930.003 161505840 159657744 155911728 150550624 143938208 136439904 
932.896 128390536 120110040 111873816 103925768 96489744 89738544 83803248 
936.271 78771296 74678240 71526184 69291624 67937320 67414664 67659072 
939.646 68586432 70068728 71930128 73963320 75919680 77555240 78670368 
943.020 79120240 78851544 77900080 76384176 74472208 72350992 70207912 
946.395 68189352 66397516 64890004 63681260 62756920 62084956 61629236 
949.770 61352820 61221676 61207980 61285164 61429340 61621064 61844620 
953.145 62090156 62354608 62638900 62946164 63278444 63635720 64015716 
956.520 64415416 64832292 65265820 65716780 66185960 66672528 67174304 
959.894 67687680 68209744 68740312 69281904 69838848 70415512 71013864 
963.269 71632888 72269240 72919328 73581272 74255744 74945520 75653112 
966.644 76379792 77124072 77883192 78655120 79440032 80241192 81064128 
970.019 81913392 82790768 83694000 84618952 85560768 86517656 87491608 
973.394 88488064 89513640 90573320 91669352 92801664 93969776 95173912 
976.768 96416760 97702432 99034832 100416416 101848072 103331456 104870880 
980.143 106475600 108160264 109941192 111833432 113847072 115984760 
983.036 118241936 120607000 123063032 125583872 128129168 130644720 
985.929 133054496 135265664 137184528 138720720 139807632 140413632 
988.821 140545440 140248016 139595408 138690400 137647552 136582464 
991.714 135611312 134829248 134307168 134090008 134192768 134607296 
994.607 135310352 136274768 137474448 138888208 140501312 142299920 
997.500 144269168 146393248 148654304 151035584 153523120 156102080 
1000.392 158751632 161442096 164127152 166749520 169248944 171568304 
1003.285 173668496 175533888 177172832 178614448 179904096 181100944 
1006.178 182268864 183477136 184796912 186287984 187997968 189953664 
1009.070 192158320 194595616 197235568 200045072 202990256 206039584 
1011.963 209163072 212324432 215482032 218592784 221614688 224517040 
1014.856 227281840 229897376 232350128 234611552 236628960 238332384 
1017.748 239642000 240485520 240821712 240648800 240013776 239003120 
1020.641 237743984 236392288 235106992 234054640 233382816 233199296 
1023.534 233572304 234517424 236004816 237965440 240310368 242947392 
1026.427 245779104 248714592 251662112 254515952 257166512 259498800 
1029.320 261400704 262783888 263584112 263762064 263300560 262194480 
1032.213 260448368 258077472 255113728 251608960 247629040 243252448 
1035.106 238555424 233602800 228452368 223154480 217759616 212329040 
1037.999 206930880 201636864 196522192 191651344 187078896 182850000 
1040.892 178993152 175518496 172407536 169606672 167016272 164490560 
1043.785 161866032 158967296 155647584 151824656 147488560 142711312 
1046.678 137624480 132408248 127252832 122327160 117778712 113707304 
1049.571 110166640 107172944 104708928 102735440 101199248 100045136 
1052.464 99220040 98674792 98368704 98263288 98317792 98489152 98724072 
1055.840 98960496 99136352 99187976 99060176 98713800 98125536 97293792 
1059.215 96237328 94998704 93640304 92237696 90881600 89661192 88657408 
1062.590 87942280 87565576 87557472 87927792 88666680 89744080 91109296 
1065.965 92695952 94416352 96165752 97839712 99332104 100552848 101441040 
1069.341 101962328 102112152 101908352 101385128 100583800 99545608 98311480 
1072.716 96916432 95390048 93760144 92053272 90299112 88536528 86811248 
1076.091 85177864 83698008 82427928 81418600 80707504 80313232 80235736 
1079.466 80455048 80934760 81619560 82438144 83311160 84146576 84854872 
1082.842 85362296 85617024 85605360 85354272 84933432 84440872 83990312 
1086.217 83704040 83687448 84024976 84774272 85957464 87561856 89537336 
1089.592 91806048 94258744 96766608 99204256 101449240 103402080 104996816 
1092.967 106194720 106984872 107375488 107389024 107054896 106407400 
1095.860 105488256 104345080 103032864 101617984 100169936 98757768 97443136 
1099.236 96263096 95223048 94287064 93383416 92407896 91241608 89782992 
1102.611 87959728 85752072 83196176 80382520 77439544 74504704 71720864 
1105.986 69208648 67054568 65317504 64022480 63168944 62737124 62695244 
1109.361 63003660 63615812 64483412 65554300 66769624 68069272 69385688 
1112.737 70644424 71775000 72707632 73384400 73768664 73844064 73618248 
1116.112 73116824 72381056 71459200 70399264 69249336 68050472 66834928 
1119.487 65627904 64445012 63294472 62179540 61101028 60060340 59061884 
1122.862 58112156 57219912 56392796 55634968 54946216 54322120 53757376 
1126.238 53249060 52800304 52421208 52129068 51944816 51886560 51967708 
1129.613 52191088 52548072 53017268 53567368 54159676 54748208 55287708 
1132.988 55737764 56066684 56260276 56323232 56280948 56172784 56047984 
1136.363 55957480 55941160 56025892 56218828 56508188 56862920 57237452 
1139.739 57580260 57833916 57944804 57871204 57581244 57059288 56304220 
1143.114 55327488 54149504 52797352 51303980 49703404 48031756 46326588 
1146.489 44621856 42949532 41337848 39807360 38373596 37046224 35829356 
1149.864 34724200 33729976 32844868 32066498 31391908 30817026 30337232 
1153.240 29947840 29644674 29425034 29287696 29232086 29257746 29363840 
1156.615 29548618 29810478 30148848 30564656 31060220 31638526 32302040 
1159.990 33051584 33886172 34802340 35794528 36855052 37972488 39130184 
1163.365 40307264 41475588 42603092 43657388 44605072 45417264 46071052 
1166.740 46548824 46840632 46944132 46865064 46616364 46217600 45693880 
1170.116 45071016 44375572 43633096 42865700 42094184 41338468 40616080 
1173.491 39944980 39341512 38818768 38387928 38056572 37829528 37710576 
1176.866 37703168 37811384 38039932 38394156 38878520 39497236 40254588 
1180.241 41155272 42205980 43414908 44791236 46344544 48082160 50009044 
1183.617 52126268 54429748 56906888 59531868 62264656 65041156 67775168 
1186.992 70367704 72703240 74669352 76170936 77132104 77511312 77303776 
1190.367 76541800 75288136 73629280 71670016 69512824 67256648 64991236 
1193.742 62785976 60696284 58762628 57008164 55445192 54074780 52889444 
1197.118 51874796 51010952 50274912 49639360 49075028 48552448 48040340 
1200.493 47509576 46935196 46296512 45582248 44791016 43933140 43028292 
1203.868 42103056 41188568 40313300 39500936 38768520 38124824 37571968 
1207.243 37107752 36727820 36426768 36198992 36039156 35940664 35896544 
1210.619 35900536 35947436 36034580 36162872 36335936 36559032 36838100 
1213.994 37178456 37583964 38056896 38597048 39201584 39864596 40575844 
1217.369 41323016 42091304 42866436 43636832 44394144 45134136 45855208 
1220.744 46558380 47246172 47923072 48596876 49279080 49983616 50727280 
1224.120 51525420 52389208 53323980 54327716 55391100 56498000 57628080 
1227.495 58756936 59856372 60899428 61859748 62715760 63455416 64076468 
1230.870 64588896 65012292 65376812 65720828 66087068 66527100 67096948 
1234.245 67853064 68855808 70160288 71813032 73852352 76302448 79175584 
1237.621 82471552 86179160 90275008 94718560 99456112 104415240 109505664 
1240.996 114633720 119699680 124606336 129268560 133605064 137540672 
1243.889 141009472 143948816 146305776 148038848 149115712 149513904 
1246.782 149220624 148233136 146562672 144236656 141301264 137814320 
1249.675 133837056 129428816 124636568 119498328 114050944 108336272 
1252.568 102412928 96362320 90278384 84271752 78456960 72934416 67794032 
1255.943 63101620 58892576 55176896 51937120 49136580 46721544 44630264 
1259.319 42799772 41164888 39668080 38262168 36909340 35586608 34283272 
1262.694 32998956 31739962 30516594 29339732 28218520 27160932 26172982 
1266.069 25259262 24422496 23663610 22980174 22367226 21818166 21326312 
1269.444 20886434 20495938 20154486 19863558 19624750 19439188 19308194 
1272.820 19233724 19219178 19269676 19390610 19585614 19854504 20191278 
1276.195 20583096 21009768 21446918 21863984 22227812 22507348 22674500 
1279.570 22709794 22607442 22375286 22034270 21612548 21142738 20652380 
1282.945 20160908 19680426 19215540 18768972 18344530 17949094 17592594 
1286.321 17286170 17038404 16855184 16738808 16689638 16708437 16796974 
1289.696 16957842 17193222 17503030 17883594 18327662 18824850 19362342 
1293.071 19923706 20489166 21035850 21537402 21969194 22312494 22558684 
1296.446 22712274 22790276 22820902 22835498 22865394 22939198 23078386 
1299.822 23298894 23609730 24011826 24495058 25035580 25598144 26134096 
1303.197 26589718 26917656 27078084 27048992 26827488 26428236 25879330 
1306.572 25217156 24484156 23721486 22967598 22256828 21613732 21054214 
1309.947 20584244 20201344 19898244 19665726 19496990 19387736 19336324 
1313.323 19341244 19400000 19508428 19662052 19857212 20092952 20370492 
1316.698 20691610 21056162 21460598 21897786 22359344 22837770 23328680 
1320.073 23831138 24345742 24871028 25401372 25925124 26424926 26881592 
1323.448 27276076 27593164 27825904 27976348 28057954 28094290 28119388 
1326.823 28172912 28292356 28510078 28843436 29292128 29837876 30450092 
1330.199 31094282 31737932 32359724 32950732 33512272 34052100 34580296 
1333.574 35106544 35637536 36179148 36735932 37310800 37904868 38515504 
1336.949 39136096 39756380 40364496 40949396 41501728 42015156 42485088 
1340.324 42908640 43284208 43611628 43893728 44136728 44349112 44541700 
1343.700 44724276 44904536 45087228 45274556 45467296 45666012 45870012 
1347.075 46075068 46268644 46429084 46522496 46506932 46342736 45996528 
1350.450 45452800 44718324 43823828 42820212 41769840 40745292 39814696 
1353.825 39036544 38457540 38103304 37977588 38060152 38311672 38678064 
1357.201 39097516 39515056 39883880 40171024 40360132 40449008 40449516 
1360.576 40385036 40293524 40224052 40229432 40363768 40666396 41151664 
1363.951 41805008 42583940 43426736 44255692 44991996 45559652 45888204 
1367.326 45928312 45655416 45077412 44233276 43188232 42022456 40810476 
1370.702 39618856 38497108 37475224 36573016 35804420 35183500 34726780 
1374.077 34449528 34359112 34449244 34699504 35082044 35567472 36135540 
1377.452 36779028 37503652 38325532 39268788 40364496 41647032 43155336 
1380.827 44925812 46977948 49296488 51809984 54391180 56848036 58949648 
1384.203 60473436 61211036 61017468 59840096 57745232 54928692 51679864 
1387.578 48348112 45237484 42551520 40385548 38732728 37526124 36671428 
1390.953 36077424 35662676 35358368 35112400 34882368 34637200 34360724 
1394.328 34050736 33718628 33382222 33058878 32758680 32482718 32226306 
1397.704 31984314 31756788 31552076 31385746 31276416 31240844 31288524 
1401.079 31421188 31634320 31920228 32270524 32677222 33134326 33637600 
1404.454 34183352 34767704 35386372 36033968 36705792 37398584 38112168 
1407.829 38849060 39613668 40409840 41239500 42101672 42993904 43913416 
1411.205 44857396 45821556 46796008 47759972 48682412 49524036 50245112 
1414.580 50820612 51247152 51548628 51769332 51968488 52210296 52549268 
1417.955 53027524 53664388 54451044 55351916 56312180 57274608 58186780 
1421.330 59012080 59733512 60353220 60896380 61408808 61952408 62585316 
1424.706 63345416 64239516 65242448 66310152 67393112 68453744 69468064 
1428.081 70427128 71334144 72201544 73050328 73906984 74809576 75802536 
1431.456 76926768 78216160 79685416 81330568 83132976 85072696 87140120 
1434.831 89337736 91681048 94185224 96851368 99651960 102537440 105455472 
1438.207 108361232 111218832 113987448 116613992 119012016 121063968 
1441.100 122645520 123625528 123893840 123380128 122053400 119933568 
1443.993 117089384 113645064 109763896 105624176 101419192 97322816 93483136 
1447.368 90024832 87028240 84523496 82483168 80836448 79489928 78357328 
1450.743 77390088 76585272 75982152 75635400 75590368 75853704 76388288 
1454.118 77112208 77915896 78687560 79319584 79746488 79970288 80078648 
1457.494 80210864 80500192 81045680 81892304 83051568 84518952 86276952 
1460.869 88292104 90504256 92832360 95159424 97332712 99192936 100583840 
1464.244 101403456 101643232 101401032 100849240 100166840 99509936 98977856 
1467.619 98616656 98439272 98431704 98559320 98758096 98932616 98955760 
1470.995 98671128 97939168 96683728 94938304 92845120 90606584 88413488 
1474.370 86387344 84590440 83048400 81775608 80793464 80123912 79771248 
1477.745 79712880 79894656 80246264 80691032 81168688 81646192 82118616 
1481.120 82607424 83148424 83785408 84560256 85514208 86695336 88156952 
1484.496 89956840 92144368 94741552 97719984 100978408 104350688 107590272 
1487.871 110391608 112439336 113417376 113081192 111324576 108213736 
1490.764 103993880 99014560 93657976 88233192 82934248 77869792 73072168 
1494.139 68546856 64319156 60443196 57009260 54122592 51863748 50261072 
1497.514 49282236 48857912 48903116 49339508 50107168 51156676 52444276 
1500.890 53928784 55562588 57293248 59066896 60812140 62440792 63839748 
1504.265 64843604 65243720 64809060 63349052 60830092 57450628 53602568 
1507.640 49690140 45986544 42593916 39496764 36641796 33987956 31520900 
1511.015 29256682 27223650 25441106 23913402 22625034 21549868 20658808 
1514.391 19925440 19328392 18845610 18455252 18138304 17881660 17683900 
1517.766 17552778 17498548 17524282 17621164 17767426 17936320 18107004 
1521.141 18277170 18466072 18706320 19024200 19425676 19898972 20422966 
1524.516 20979722 21561742 22175504 22837698 23567680 24377108 25264986 
1527.892 26221058 27232718 28291294 29395394 30551680 31771082 33064492 
1531.267 34441064 35905140 37453592 39075948 40751732 42454616 44155840 
1534.642 45832564 47468620 49053588 50573360 52007892 53335368 54523544 
1538.017 55540068 56355524 56947268 57300848 57409936 57282964 56942736 
1541.393 56427772 55782932 55044032 54227808 53327240 52322336 51197084 
1544.768 49959268 48646984 47321064 46040656 44835100 43700112 42601520 
1548.143 41497060 40358860 39193244 38041236 36965584 36018924 35221768 
1551.518 34560060 33997668 33497598 33038284 32623750 32276164 32020766 
1554.894 31866346 31795040 31762596 31709592 31563226 31244724 30685756 
1558.269 29851788 28780342 27588114 26425278 25402322 24557638 23873214 
1561.644 23303892 22800228 22316786 21819804 21291686 20735260 20173298 
1565.019 19639760 19167474 18772084 18447750 18170676 17910110 17638384 
1568.395 17341306 17022516 16702618 16408831 16162148 15972320 15837418 
1571.770 15749624 15700255 15680812 15682152 15690636 15688919 15658483 
1575.145 15586009 15474541 15344976 15231716 15163775 15152623 15190778 
1578.520 15260303 15341029 15419023 15489958 15557058 15627500 15707916 
1581.896 15800236 15901512 16006868 16111011 16211363 16306989 16395513 
1585.271 16471460 16526494 16550692 16538128 16490562 16419291 16342115 
1588.646 16279571 16250471 16267153 16335990 16459072 16636305 16865482 
1592.021 17139726 17444942 17756760 18041720 18265282 18396240 18416498 
1595.396 18325520 18140100 17889152 17604532 17317720 17053322 16829282 
1598.772 16660646 16559606 16535649 16594993 16738499 16961564 17256036 
1602.147 17614124 18028734 18493628 19001424 19538128 20080738 20599600 
1605.522 21058040 21418722 21651552 21735218 21662000 21437102 21076578 
1608.897 20601824 20035524 19403154 18730466 18045590 17379344 16758196 
1612.273 16200839 15714753 15294966 14927228 14592454 14272045 13951121 
1615.648 13622364 13288936 12964367 12669036 12422831 12240390 12127222 
1619.023 12079591 12086881 12133763 12203448 12279654 12352737 12421638 
1622.398 12495154 12588021 12714378 12881624 13088203 13325868 13585441 
1625.774 13861143 14150576 14452567 14764677 15080063 15388263 15680125 
1629.149 15950836 16203176 16446097 16690325 16942648 17203462 17464326 
1632.524 17711026 17927272 18095500 18202290 18239850 18208474 18117714 
1635.899 17985286 17832772 17677896 17530422 17391344 17254450 17108432 
1639.275 16940720 16741358 16506566 16242042 15960047 15677651 15408174 
1642.650 15156878 14919409 14682858 14429480 14141744 13808738 13430226 
1646.025 13019776 12602279 12207367 11862356 11584754 11380182 11245270 
1649.400 11169959 11138649 11128519 11111182 11047348 10895076 10627803 
1652.776 10258870 9852016 9488178 9220719 9053963 8961240 8907326 8864410 
1656.633 8816933 8758913 8692415 8622549 8553741 8486464 8417406 8340896 
1660.490 8251093 8144462 8020272 7880833 7731420 7579564 7432986 7300204 
1664.348 7187776 7098852 7032473 6983143 6941325 6894496 6830303 6739466 
1668.205 6619041 6473426 6313503 6153538 6005760 5877277 5770320 5683498 
1672.063 5612200 5549808 5487457 5413742 5317197 5191432 5039087 4874699 
1675.920 4719149 4591146 4499002 4439011 4399045 4364504 4325649 4279502 
1679.778 4232088 4193847 4174477 4175413 4187858 4191472 4161396 4075531 
1683.635 3927623 3735714 3537711 3371953 3256932 3190270 3156526 3138971 
1687.492 3124253 3105130 3079268 3046967 3009931 2970196 2931031 2897474 
1691.350 2875426 2870190 2883565 2911851 2944275 2966092 2961922 2922191 
1695.207 2851345 2769106 2703653 2675348 2688917 2731460 2780478 2808590 
1699.065 2791415 2717423 2595342 2454534 2329795 2244291 2200563 2186843 
1702.922 2185943 2182314 2165164 2128569 2073067 2004556 1932628 1866469 
1706.780 1812963 1775134 1751646 1739038 1732517 1727727 1722238 1715751 
1710.637 1709664 1706737 1708766 1716184 1727461 1740568 1753077 1764122 
1714.494 1773836 1782021 1786978 1784449 1768147 1732784 1678928 1614105 
1718.352 1552384 1507129 1486947 1492932 1519664 1558535 1601035 1641510 
1722.209 1677897 1711261 1744593 1781189 1822346 1868233 1917918 1970538 
1726.067 2025694 2083155 2141289 2197199 2246223 2283927 2308576 2322000 
1729.924 2328663 2334359 2341521 2346885 2339623 2303280 2221477 2085652 
1733.781 1905438 1707335 1527544 1392501 1309541 1269894 1256934 1253943 
1737.639 1247397 1230351 1201410 1164598 1126592 1094038 1071251 1059293 
1741.496 1057599 1063844 1076200 1092211 1109816 1127356 1143634 1158617 
1745.354 1173003 1187655 1202606 1216827 1227626 1231580 1225201 1206195 
1749.211 1173103 1125895 1065671 994363 916227 837109 763416 701649 655554 
1753.551 624628 605018 589058 568255 535610 488803 431122 371657 320756 
1757.890 284814 264987 255903 248510 233359 203556 157249 97458 31544 -33066 
1762.712 -89717 -134834 -167923 -189650 -201706 -206475 -207800 -209522 
1766.570 -216046 -229591 -248831 -269329 -284395 -289163 -283137 -271547 
1770.427 -263236 -269196 -296547 -345119 -406066 -465681 -511817 -538557 
1774.284 -547493 -544713 -537267 -529291 -521150 -510891 -496726 -478523 
1778.142 -459127 -443504 -436023 -438274 -447973 -459392 -466276 -465350 
1781.999 -456810 -444894 -434666 -430330 -432813 -440095 -448204 -452971 
1785.857 -452441 -446682 -436520 -423246 -407059 -387495 -364983 -341676 
1789.714 -321678 -311050 -315487 -337769 -376272 -424835 -474849 -518238 
1793.572 -550769 -572112 -584488 -590874 -593224 -592860 -590378 -587201 
1797.429 -585348 -587433 -595341 -608874 -626444 -644641 -659694 -669420 
1801.286 -673655 -673688 -671736 -669255 -666145 -661811 -655195 -645997 
1805.144 -635079 -623499 -612084 -601165 -589485 -575521 -558843 -540378 
1809.001 -522474 -508673 -501492 -501492 -507416 -516385 -525684 -533494 
1812.859 -539848 -545176 -550305 -554806 -556394 -552258 -540047 -518238 
1816.716 -488187 -452607 -414507 -376636 -340583 -305984 -271879 -237771 
1820.573 -202832 -167493 -132449 -98463 -66925 -39858 -19316 -6825 -2485 
1824.913 -3147 -3677 2054 19151 49173 88940 131661 168519 192186 199380 
1829.735 193081 180684 172032 175215 192882 223612 263263 307460 353054 
1834.074 399448 447175 497228 549876 604254 659437 715157 773008 836080 
1838.414 908125 992138 1089155 1197955 1315755 1438907 1564089 1688209 
1842.271 1808072 1921645 2027458 2125373 2218014 2310142 2405787 2507586 
1846.129 2614142 2720024 2817427 2897674 2954083 2983707 2987444 2968828 
1849.986 2932232 2881063 2815860 2735862 2640210 2529615 2407253 2278164 
1853.844 2146949 2017006 1889198 1762458 1635556 1509290 1385786 1269163 
1857.701 1162737 1067431 981112 900156 819846 737925 654724 573265 497029 
1862.041 429331 370961 321220 279277 244598 217944 200573 192518 191258 
1866.380 192352 189932 178728 157614 129109 99082 74392 59811 55900 60341 
1871.202 68957 78103 85825 91525 94740 94806 90001 77805 56861 27435 -8349 
1876.506 -47213 -86073 -123870 -161067 -199321 -239857 -282806 -325982 
1880.364 -366903 -403881 -436387 -466773 -498182 -532501 -569928 -607948 
1884.221 -642225 -669553 -688741 -700749 -709019 -717157 -726783 -737996 
1888.078 -749209 -758669 -765384 -770345 -774016 -776662 -777423 -773619 
1891.936 -762539 -744248 -720266 -694894 -672861 -656816 -646626 -639380 
1895.793 -630811 -617874 -600305 -580914 -563840 -552522 -547625 -546897 
1899.651 -547128 -545441 -540510 -534322 -529523 -527339 -527604 -527240 
1903.508 -522474 -511222 -493880 -473359 -454626 -440823 -433077 -429271 
1907.365 -426457 -422055 -416394 -413150 -416162 -429039 -452209 -482395 
1911.223 -514300 -542231 -562450 -573966 -577903 -575421 -568241 -557023 
1915.080 -542760 -528100 -517311 -515094 -524923 -546665 -575620 -603647 
1918.938 -623863 -631638 -628164 -619462 -612613 -613540 -624525 -643350 
1922.795 -665020 -684870 -699856 -710144 -717785 -723938 -727973 -727808 
1926.653 -720531 -705182 -684043 -662010 -644277 -634682 -633127 -636005 
1930.510 -639182 -639579 -637163 -635344 -638553 -649306 -667204 -688741 
1934.367 -709681 -726981 -741635 -756255 -774843 -798987 -825743 -848759 
1938.225 -861888 -860697 -846213 -824354 -802592 -787478 -781789 -783079 
1942.082 -786419 -787875 -785692 -780995 -777291 -775538 -773520 -767501 
1945.940 -752484 -725923 -690593 -652879 -619429 -594713 -578333 -565197 
1949.797 -549478 -527504 -500499 -475478 -461709 -465945 -490040 -529722 
1953.655 -575521 -618271 -651853 -674681 -690229 -703991 -719340 -738261 
1957.512 -760125 -782913 -805668 -829414 -854282 -881034 -908479 -933640 
1961.369 -953742 -968289 -977942 -984323 -989645 -992686 -990042 -979397 
1965.227 -958833 -932450 -907950 -894591 -898394 -919886 -953213 -988554 
1969.084 -1018042 -1038404 -1051758 -1064781 -1082067 -1103253 -1122157 
1972.459 -1129494 -1116473 -1081406 -1030008 -971496 -914728 -861888 -806230 
1976.317 -737169 -645071 -528431 -397823 -272508 -171434 -108434 -87266 
1980.174 -101510 -138478 -187796 -240519 -294229 -348893 -404047 -457108 
1984.032 -504470 -542396 -569598 -589683 -607981 -629752 -657312 -687616 
1987.889 -713915 -729892 -731480 -719604 -699558 -678651 -660984 -649140 
1991.747 -641034 -633226 -624789 -615326 -606823 -600966 -597459 -593157 
1995.604 -585514 -572443 -555004 -538160 -527703 -526346 -533891 -545375 
1999.461 -553184 -553714 -547294 -539484 -540047 -557122 -592992 -643416 
2003.319 -699194 -748713 -783178 -799053 -796408 -779044 -750962 -713749 
2007.176 -668593 -619264 -570723 -531674 -510626 -511222 -530648 -562549 
2011.034 -594249 -616021 -624194 -619628 -607650 -594713 -583330 -572013 
2014.891 -558049 -538458 -514267 -490835 -473955 -466409 -466309 -465581 
2018.749 -454361 -425663 -379285 -320983 -261415 -210648 -172461 -145864 
2022.606 -124798 -102769 -76831 -49996 -26870 -12690 -9476 -13452 -18587 
2026.946 -20078 -13982 -1954 11530 24917 38735 56629 85759 129904 188706 
2031.767 258058 331135 402234 470592 539193 611952 690863 773506 852281 
2036.107 918618 966534 994230 1006053 1010769 1013957 1020035 1029036 
2039.964 1037140 1041125 1040062 1035711 1031261 1030198 1032025 1034283 
2043.822 1033420 1026412 1012795 997418 986193 986692 1005090 1044314 
2047.679 1104900 1184366 1276640 1372657 1462744 1534860 1579485 1594317 
2051.537 1582112 1553980 1524652 1509623 1517935 1551286 1602066 1656943 
2055.394 1703044 1732517 1744261 1745192 1744926 1750448 1766018 1789806 
2059.251 1817588 1844973 1869996 1892758 1914523 1935124 1951300 1957790 
2063.109 1949536 1924275 1884272 1836255 1788475 1748552 1720774 1704508 
2066.966 1696458 1693298 1691934 1691502 1691834 1692600 1691402 1686246 
2070.824 1674671 1656410 1634226 1613373 1598275 1592821 1597011 1607919 
2074.681 1622419 1637352 1651421 1666355 1684117 1705406 1729823 1755272 
2078.539 1778228 1797525 1812996 1825540 1837453 1849498 1860978 1871128 
2082.396 1879514 1886402 1894356 1906469 1924141 1946673 1970704 1990975 
2086.253 2002626 2003324 1993139 1974632 1951067 1924308 1894522 1860978 
2090.111 1822978 1781988 1742032 1708300 1685847 1678064 1684650 1702978 
2093.968 1729989 1762691 1799987 1842211 1888665 1936888 1983752 2023863 
2097.826 2053791 2072967 2083754 2091212 2100035 2113586 2131999 2153776 
2101.683 2176852 2199964 2224974 2254749 2291421 2335958 2386563 2439573 
2105.541 2491790 2541780 2590109 2639743 2693151 2750466 2809924 2867788 
2109.398 2920057 2964891 3003258 3037324 3070025 3102661 3133764 3160231 
2113.255 3179589 3190304 3194176 3195377 3198581 3207527 3223884 3246883 
2117.113 3274425 3305073 3338595 3374758 3414898 3458347 3503472 3548133 
2120.970 3590394 3629183 3666406 3704467 3744972 3789323 3835686 3881050 
2124.828 3922707 3958752 3989081 4015265 4039243 4061450 4081551 4098476 
2128.685 4110751 4118813 4124700 4130988 4140857 4156612 4179027 4208434 
2132.542 4246175 4293255 4351351 4421070 4498868 4578254 4650990 4709368 
2136.400 4749297 4773583 4788425 4802864 4823435 4851445 4882842 4911023 
2140.257 4928081 4930527 4919837 4900468 4877815 4856639 4836401 4815260 
2144.115 4791172 4763534 4734155 4706957 4684415 4664320 4642517 4611372 
2147.972 4564090 4499705 4422007 4337596 4254941 4179495 4110918 4045932 
2151.830 3978881 3905689 3824989 3737887 3644620 3545260 3437774 3319964 
2155.687 3195010 3073962 2974132 2918689 2927462 3007662 3150819 3334155 
2159.544 3526654 3698285 3830906 3916957 3960423 3970388 3957447 3931133 
2163.402 3898267 3864836 3834014 3809345 3790427 3774483 3757338 3732673 
2167.259 3695745 3644921 3581006 3506344 3424315 3337493 3246516 3153556 
2171.117 3061482 2974299 2897741 2836871 2792983 2764171 2745131 2728560 
2174.974 2709688 2686616 2658045 2625109 2586576 2538880 2477694 2401256 
2178.832 2311840 2218247 2134296 2071868 2039542 2037878 2058418 2088149 
2182.689 2116083 2134662 2143453 2147482 2151445 2158870 2169193 2177751 
2186.546 2179483 2172224 2156306 2135129 2114052 2095873 2081590 2071935 
2190.404 2066708 2067407 2077461 2099569 2133930 2177851 2224941 2266773 
2194.261 2298883 2319202 2330195 2337091 2345519 2357145 2371404 2385730 
2198.119 2396825 2404221 2409152 2413217 2417982 2422280 2422180 2413817 
2201.976 2395292 2368372 2338856 2314006 2299349 2297017 2305278 2318170 
2205.833 2330262 2338423 2342820 2346485 2353148 2364408 2379234 2394726 
2209.691 2407220 2413750 2415616 2414383 2412951 2414050 2418082 2424012 
2213.548 2432009 2441606 2453801 2470196 2490590 2512252 2532048 2545346 
2217.406 2549512 2544846 2534981 2524016 2516584 2514584 2517017 2521316 
2221.263 2524849 2525682 2524383 2522816 2521883 2521516 2519617 2513318 
2225.121 2500454 2480959 2457033 2432309 2410952 2395226 2385464 2380866 
2228.978 2379900 2381665 2386696 2395192 2407320 2422247 2437374 2449503 
2232.835 2457100 2459533 2458100 2455634 2453934 2454234 2456600 2459999 
2236.693 2464031 2469696 2478993 2493823 2516251 2546246 2581442 2619442 
2240.550 2657045 2691184 2720857 2744998 2762804 2774175 2779277 2779077 
2244.408 2776576 2776242 2781845 2797051 2822997 2857816 2897507 2937236 
2248.265 2972865 3002191 3024779 3040828 3051338 3056911 3057311 3053574 
2252.123 3048135 3044231 3046667 3059046 3082872 3116243 3154957 3193408 
2255.980 3225185 3247084 3256665 3253994 3240240 3216606 3184162 3145212 
2259.837 3101726 3057044 3014736 2978436 2949946 2930431 2919423 2915787 
2263.695 2919089 2929197 2945542 2968027 2994550 3021709 3046100 3064752 
2267.552 3075898 3080436 3080903 3079635 3078868 3079201 3079535 3078501 
2271.410 3075330 3069758 3062951 3056510 3051605 3048569 3047735 3048802 
2275.267 3052106 3059180 3071426 3089947 3115109 3144878 3176285 3205992 
2279.125 3231194 3249955 3262607 3269985 3273757 3275761 3277497 3279934 
2282.982 3284741 3292754 3304039 3318328 3333921 3348379 3359932 3367412 
2286.839 3370784 3371619 3371920 3372821 3374758 3376294 3375392 3371018 
2290.697 3362370 3350983 3339430 3330949 3327543 3330449 3339530 3353488 
2294.554 3371118 3391855 3414898 3440279 3467232 3494053 3518904 3539916 
2298.412 3555483 3565605 3571050 3573389 3574558 3575994 3578567 3582008 
2302.269 3586451 3591296 3595906 3600249 3604092 3607332 3610740 3614983 
2306.126 3621131 3630286 3643217 3659756 3679304 3700658 3722446 3744103 
2309.984 3765894 3788254 3812053 3837825 3864869 3892450 3919464 3945042 
2313.841 3969853 3994899 4021451 4050346 4081618 4113929 4145741 4175313 
2317.699 4201810 4225297 4247446 4269798 4294292 4322402 4354296 4389171 
2321.556 4425086 4458628 4485109 4500007 4498600 4478245 4438978 4383716 
2325.414 4318186 4250023 4185951 4132026 4090716 4061952 4043423 4032253 
2329.271 4025865 4022722 4023090 4027571 4036434 4049644 4066133 4084260 
2333.128 4103025 4122225 4141626 4161697 4182706 4203984 4225363 4246175 
2336.986 4266351 4286663 4307979 4331170 4356672 4384117 4412902 4442460 
2340.843 4472320 4502350 4532282 4560775 4585454 4603068 4610200 4604809 
2344.701 4587162 4560675 4531210 4506535 4493779 4498533 4523844 4570419 
2348.558 4636355 4718077 4811307 4910621 5010260 5105162 5190896 5264539 
2352.416 5325617 5375196 5415487 5449373 5478934 5505678 5530377 5553432 
2356.273 5575549 5597365 5620189 5644088 5669567 5696087 5723013 5749906 
2360.130 5776532 5803261 5830260 5857261 5883524 5907908 5930010 5949525 
2363.988 5967665 5986376 6007071 6030823 6057366 6084952 6111128 6133811 
2367.845 6151455 6164024 6172157 6176896 6179483 6180626 6180727 6180021 
2371.703 6179248 6178878 6179651 6182206 6186743 6193364 6202304 6213833 
2375.560 6228622 6247614 6271581 6300459 6334078 6371433 6411178 6452675 
2379.417 6495455 6539718 6586274 6636132 6689999 6748316 6810848 6876654 
2383.275 6944557 7012875 7079318 7141864 7198860 7249226 7293162 7331913 
2387.132 7367129 7401000 7435210 7469997 7505089 7539442 7571540 7600301 
2390.990 7625524 7646802 7664439 7678435 7688755 7695062 7697895 7697692 
2394.847 7696006 7694826 7695804 7700593 7710374 7725889 7747611 7776215 
2398.705 7811973 7854650 7903507 7957228 8013556 8070733 8127446 8183491 
2402.562 8239983 8298474 8360318 8426866 8498390 8574861 8656112 8742448 
2406.419 8834144 8932049 9035999 9145286 9258560 9373896 9489939 9606251 
2410.277 9723237 9841848 9962831 10086458 10211444 10335686 10456976 
2413.652 10572630 10680742 10780083 10869323 10947334 11013532 11067299 
2417.027 11109108 11140892 11164961 11184272 11201306 11217048 11231499 
2420.403 11243944 11253669 11260504 11265910 11272337 11282437 11298590 
2423.778 11321886 11352053 11388311 11429708 11475363 11525853 11581929 
2427.153 11644719 11715482 11795076 11883809 11982132 12090323 12208492 
2430.528 12336782 12475103 12622642 12778832 12942997 13114293 13292318 
2433.904 13476945 13667155 13862306 14061275 14262869 14466647 14672850 
2437.279 14881929 15095397 15314187 15539200 15770378 16008036 16251571 
2440.654 16500646 16755372 17015246 17279412 17546880 17815926 18084758 
2444.029 18352480 18618082 18881670 19143614 19404540 19665000 19925718 
2447.405 20187078 20449326 20712950 20977602 21242172 21505232 21764828 
2450.780 22018584 22265444 22504906 22737342 22963616 23184414 23399242 
2454.155 23607106 23806216 23994668 24171606 24336666 24490220 24632746 
2457.530 24764340 24883798 24989390 25079036 25150548 25202514 25234504 
2460.906 25246198 25237946 25210378 25164172 25100450 25022032 24931556 
2464.281 24833380 24731964 24631590 24536392 24449732 24374340 24312766 
2467.656 24268126 24243180 24240796 24264026 24314730 24393824 24501612 
2471.031 24636708 24797034 24979528 25180252 25394944 25619444 25849756 
2474.406 26082722 26316414 26549422 26780544 27008898 27232718 27449592 
2477.782 27657322 27853000 28033956 28198154 28343568 28468224 28570374 
2481.157 28648516 28701644 28729894 28734426 28717468 28681716 28630146 
2484.532 28565066 28488354 28401682 28305936 28202080 28091640 27975782 
2487.907 27855470 27732120 27606262 27477828 27347210 27213244 27074558 
2491.283 26929290 26774800 26608070 26426934 26229786 26016018 25786496 
2494.658 25542338 25284828 25014942 24732596 24437112 24128064 23805690 
2498.033 23471142 23126922 22776342 22422942 22069722 21719298 21372706 
2501.408 21031192 20695190 20365006 20040868 19723108 19411296 19105596 
2504.784 18805680 18511954 18225510 17948198 17681656 17428180 17188880 
2508.159 16964010 16752928 16554752 16368091 16192205 16026979 15872264 
2511.534 15727945 15593978 15469597 15353763 15245993 15145522 15052414 
2514.909 14967832 14892182 14826521 14771430 14727313 14693826 14670691 
2518.285 14657223 14652356 14655611 14666236 14683578 14707913 14739378 
2521.660 14778594 14826213 14881998 14945197 15014374 15087198 15160755 
2525.035 15232746 15300664 15362517 15417169 15463794 15501839 15531199 
2528.410 15552284 15565026 15569800 15566640 15555341 15535217 15506165 
2531.786 15467468 15419538 15363169 15299257 15229211 15154888 15077764 
2535.161 14999866 14923661 14851379 14785039 14726662 14676449 14633816 
2538.536 14597080 14563980 14532081 14500665 14469181 14438317 14408963 
2541.911 14381905 14356903 14333136 14308753 14282352 14252906 14220002 
2545.287 14183987 14146022 14107549 14069831 14034444 14002755 13975346 
2548.662 13952387 13933329 13916564 13900005 13881566 13859740 13834358 
2552.037 13806207 13776895 13748747 13723133 13700802 13681790 13665787 
2555.412 13651939 13639904 13629476 13620381 13611765 13603218 13593235 
2558.788 13580791 13565407 13546914 13525208 13500973 13473732 13442973 
2562.163 13408013 13368305 13323921 13276193 13226762 13177508 13130207 
2565.538 13085437 13043574 13004549 12968770 12936818 12910295 12890430 
2568.913 12877733 12872204 12872545 12876811 12883433 12891625 12901250 
2572.289 12913163 12928455 12947810 12971331 12998711 13028961 13061159 
2575.664 13094828 13129012 13163267 13197319 13230520 13262630 13294061 
2579.039 13325595 13358499 13394172 13433267 13476158 13522883 13572655 
2582.414 13624928 13679567 13736060 13794441 13854574 13915846 13977502 
2585.790 14039440 14101730 14164885 14230343 14298789 14370294 14444347 
2589.165 14519542 14594133 14667126 14737871 14806740 14874763 14942831 
2592.540 15011355 15080166 15148815 15215863 15280689 15342574 15401308 
2595.915 15456996 15510252 15561420 15611907 15663292 15716814 15773950 
2599.291 15835183 15899828 15966235 16032446 16096363 16157573 16217003 
2602.666 16276510 16339224 16407901 16484298 16568832 16661059 16759505 
2606.041 16862796 16970176 17081066 17195256 17312616 17432940 17555572 
2609.416 17679724 17804706 17929586 18053948 18176928 18297872 18416118 
2612.792 18531284 18643436 18753126 18861080 18967986 19074192 19179316 
2616.167 19282286 19381812 19476752 19565960 19649432 19727408 19800366 
2619.542 19869142 19934494 19996732 20056448 20113948 20169620 20223630 
2622.917 20276084 20326776 20375736 20422860 20468152 20511952 20554782 
2626.292 20596752 20638514 20680248 20722298 20765186 20809886 20856848 
2629.668 20906912 20960144 21016096 21073518 21131050 21187060 21240500 
2633.043 21290678 21337520 21381304 21422342 21461190 21498164 21533816 
2636.418 21568636 21603562 21639572 21677222 21716860 21758556 21801826 
2639.793 21846250 21891618 21938036 21985716 22035176 22086980 22141194 
2643.169 22197752 22256550 22317098 22379332 22443284 22508744 22575890 
2646.544 22645106 22716430 22790416 22867490 22947894 23031774 23118886 
2649.919 23208320 23298998 23390254 23481040 23571214 23660846 23750148 
2653.294 23839714 23930102 24021736 24115176 24211050 24310278 24414014 
2656.670 24522682 24636464 24754800 24876290 24999674 25123234 25246162 
2660.045 25367930 25488118 25607002 25724476 25840508 25954950 26067910 
2663.420 26179880 26291632 26404362 26518778 26635654 26754784 26875636 
2666.795 26997582 27119594 27241078 27361430 27480688 27598354 27714532 
2670.171 27829718 27944086 28058908 28175244 28294124 28416680 28543164 
2673.546 28673150 28805762 28939866 29074332 29208270 29341718 29474820 
2676.921 29608242 29742986 29879758 30019414 30162416 30309198 30459512 
2680.296 30613254 30770182 30929978 31092894 31259536 31431020 31608376 
2683.672 31792972 31985280 32185520 32393102 32607284 32827358 33052586 
2687.047 33282690 33517710 33757552 34001968 34250536 34502800 34758224 
2690.422 35016352 35277428 35541328 35808632 36079908 36355356 36635592 
2693.797 36921388 37213000 37510480 37813876 38122656 38435856 38752796 
2697.173 39072724 39395384 39721448 40051136 40385148 40723672 41066216 
2700.548 41412016 41760060 42109080 42458344 42807228 43155116 43501520 
2703.923 43845564 44185880 44521328 44850344 45171852 45484880 45788820 
2707.298 46083136 46366960 46639972 46901788 47151872 47390308 47617380 
2710.674 47833320 48038860 48234868 48421968 48601104 48772860 48937568 
2714.049 49094728 49243412 49382200 49509252 49622532 49720680 49802536 
2717.424 49867644 49915960 49947928 49964660 49967296 49958000 49939604 
2720.799 49915144 49888644 49863704 49843972 49832748 49832820 49846908 
2724.175 49877084 49925108 49991868 50077344 50180840 50300656 50434680 
2727.550 50581852 50740800 50911616 51094768 51290596 51499004 51719128 
2730.925 51949444 52187428 52431076 52678456 52927920 53178388 53428592 
2734.300 53677060 53922220 54162344 54395836 54621524 54838648 55047004 
2737.676 55246280 55436872 55618812 55792844 55960044 56121804 56280044 
2741.051 56436716 56593144 56750796 56911232 57075384 57245500 57423928 
2744.426 57612980 57815028 58031180 58261344 58504068 58756972 59016864 
2747.801 59280060 59543304 59802560 60053492 60292344 60514452 60716064 
2751.177 60894892 61049080 61178800 61285048 61369420 61433388 61478428 
2754.552 61505340 61514540 61505608 61477928 61429608 61358544 61261924 
2757.927 61137108 60981932 60795176 60576732 60327672 60049608 59744044 
2761.302 59412632 59056988 58678532 58279380 57862800 57432476 56993356 
2764.677 56550568 56109176 55674064 55250080 54841168 54451644 54085176 
2768.053 53744780 53433048 53151612 52900860 52680740 52490712 52330220 
2771.428 52198116 52093544 52015100 51960648 51927560 51912476 51911764 
2774.803 51921812 51939212 51960536 51983280 52004304 52020292 52028208 
2778.178 52024212 52004304 51964680 51902056 51814016 51700020 51561424 
2781.554 51401276 51224824 51038712 50849072 50661560 50480604 50308092 
2784.929 50144544 49989304 49840512 49695972 49553520 49410672 49264456 
2788.304 49111832 48949768 48775568 48587724 48385812 48170932 47945164 
2791.679 47711188 47472136 47230992 46990724 46754532 46525776 46307936 
2795.055 46104616 45918844 45753328 45609848 45489444 45392580 45319424 
2798.430 45270252 45245064 45243664 45265876 45310888 45377168 45463324 
2801.805 45567340 45687068 45820524 45965436 46119468 46280956 46447816 
2805.180 46618836 46792764 46968756 47145592 47322100 47496048 47665040 
2808.556 47825740 47974916 48109224 48225648 48321076 48393516 48440672 
2811.931 48461232 48454344 48420300 48360036 48275340 48168376 48041968 
2815.306 47898504 47741368 47574084 47401248 47228552 47062612 46910316 
2818.681 46779256 46675684 46605004 46570956 46575824 46620128 46703284 
2822.057 46823356 46977468 47161436 47371132 47600668 47844272 48096304 
2825.432 48350592 48601620 48844340 49073840 49285908 49477060 49645040 
2828.807 49788116 49906412 50001200 50074296 50129032 50169124 50197760 
2832.182 50218964 50236152 50251584 50268028 50287636 50312372 50344632 
2835.558 50387308 50443092 50515332 50607164 50721620 50861920 51031672 
2838.933 51234964 51477928 51767612 52112780 52523956 53012028 53588396 
2842.308 54265388 55055352 55972292 57031932 58251000 59646720 61233464 
2845.683 63018404 64995660 67140960 69409672 71728904 74005360 76131416 
2849.059 77986112 79459328 80459032 80920792 80820240 80171608 79027424 
2852.434 77463304 75576368 73472368 71247888 68995640 66793308 64698064 
2855.809 62752856 60982888 59397400 57994368 56762240 55683932 54738776 
2859.184 53905528 53164568 52496880 51886596 51319900 50784820 50272124 
2862.560 49775000 49288540 48810864 48342000 47884152 47441344 47018932 
2865.935 46623484 46261752 45940944 45667560 45446876 45282680 45176376 
2869.310 45127188 45131376 45182480 45271908 45388128 45518364 45649780 
2872.685 45770084 45869312 45941608 45984888 46000728 45993876 45971072 
2876.061 45938404 45901756 45865560 45832564 45805060 45784844 45773320 
2879.436 45771996 45781900 45803364 45836616 45881504 45937632 46005072 
2882.811 46084168 46174812 46276720 46389412 46511132 46640196 46775196 
2886.186 46915044 47059472 47209196 47365068 47528464 47700688 47882780 
2889.562 48076056 48282080 48503136 48742168 49003364 49291476 49612872 
2892.937 49974508 50385300 50854432 51390944 52003112 52695400 53468048 
2896.312 54313296 55216512 56153968 57092844 57996492 58824996 59539540 
2899.687 60110528 60518148 60757980 60839924 60788772 60639552 60429984 
2903.063 60200492 59987444 59819408 59720436 59708384 59795944 59993568 
2906.438 60309284 60749636 61320304 62026400 62873392 63866920 65013364 
2909.813 66318028 67784032 69409280 71183952 73087608 75091224 77153480 
2913.188 79223544 81248176 83167888 84924608 86469296 87759544 88768408 
2916.563 89485552 89917632 90085376 90019776 89757448 89331544 88768240 
2919.939 88084104 87283624 86362848 85312448 84123368 82791656 81322336 
2923.314 79730160 78041160 76290328 74514536 72753936 71045200 69417448 
2926.689 67893776 66488712 65207452 64048624 63004308 62062712 61208932 
2930.064 60428728 59708952 59038844 58411796 57823092 57270680 56753552 
2933.440 56270536 55820120 55400548 55009132 54643056 54299852 53975608 
2936.815 53665624 53365040 53067440 52766632 52458560 52140688 51814016 
2940.190 51482404 51152276 50830856 50525116 50241060 49982572 49751592 
2943.565 49547728 49367868 49207228 49058264 48912200 48759772 48592988 
2946.941 48407148 48202068 47983204 47759676 47544732 47352136 47193460 
2950.316 47077936 47010068 46989872 47013208 47073284 47161108 47266420 
2953.691 47378928 47489212 47588244 47669292 47727280 47758788 47762376 
2957.066 47737744 47686080 47609984 47513052 47400432 47277724 47150984 
2960.442 47025576 46905556 46793464 46690260 46596040 46510324 46432664 
2963.817 46363456 46303072 46251948 46210224 46177872 46153992 46137888 
2967.192 46129044 46126796 46131588 46143416 46162648 46189700 46225152 
2970.567 46269896 46325116 46392472 46472668 46566236 46672512 46789036 
2973.943 46912456 47038204 47160920 47274436 47372684 47449516 47498560 
2977.318 47514936 47494312 47434876 47337172 47203952 47040568 46853620 
2980.693 46650784 46440072 46228836 46023788 45830096 45651440 45488708 
2984.068 45340348 45202444 45068260 44929892 44779960 44611792 44421300 
2987.444 44207416 43971780 43717552 43448708 43168472 42877992 42576592 
2990.819 42261636 41929572 41577380 41204160 40811204 40403692 39988972 
2994.194 39575120 39169928 38778664 38402876 38040732 37687376 37336800 
2997.569 36982972 36622148 36252692 35876028 35495412 35114736 34737836 
3000.945 34367576 34005264 33651344 33305548 32967430 32636784 32313890 
3004.320 31999222 31693872 31398390 31113680 30840076 30578344 30328384 
3007.695 30090500 29864316 29649462 29444536 29248246 29058602 28873394 
3011.070 28690884 28509654 28328820 28148482 27969458 27792308 27618656 
3014.446 27449626 27286096 27128870 26978542 26835242 26698790 26568864 
3017.821 26444258 26323596 26205572 26088774 25972784 25857774 25744692 
3021.196 25635262 25531058 25432922 25341446 25256418 25177162 25103610 
3024.571 25036528 24977388 24928748 24893448 24873588 24870218 24882712 
3027.947 24908114 24941592 24977458 25008870 25028806 25031754 25013118 
3031.322 24970438 24903520 24814294 24705974 24582988 24449976 24311014 
3034.697 24169504 24028144 23888408 23751582 23618126 23487998 23361266 
3038.072 23237404 23116160 22997328 22881250 22768278 22659244 22555228 
3041.448 22456402 22363074 22274966 22191336 22111454 22034932 21961038 
3044.823 21889946 21821754 21756850 21695544 21638562 21586464 21539666 
3048.198 21498268 21461818 21429060 21398882 21369470 21339572 21308948 
3051.573 21277628 21246486 21216528 21188520 21162568 21138842 21116962 
3054.948 21096962 21079674 21065900 21056684 21052268 21052476 21055850 
3058.324 21061032 21066806 21072370 21078456 21085900 21095848 21108822 
3061.699 21125240 21144200 21165560 21189530 21216388 21248016 21285770 
3065.074 21330038 21380434 21435082 21491096 21545586 21596388 21641906 
3068.449 21681888 21716894 21746992 21772422 21793324 21808830 21818864 
3071.825 21823532 21823254 21819140 21812660 21805136 21797820 21791826 
3075.200 21787996 21786600 21787820 21791062 21795520 21800328 21804404 
3078.575 21807016 21807992 21807784 21806634 21805344 21804056 21802838 
3081.950 21801616 21799944 21797436 21794056 21789910 21785312 21780956 
3085.326 21778102 21777682 21781412 21790886 21806808 21829420 21858236 
3088.701 21891478 21926918 21963024 21998122 22031934 22064772 22097612 
3092.076 22131292 22166438 22203018 22241134 22280754 22321946 22365132 
3095.451 22411114 22460066 22511920 22566502 22623080 22681028 22740030 
3098.827 22800020 22860714 22922082 22983526 23044074 23103056 23160298 
3102.202 23215732 23270578 23326268 23383714 23443756 23506538 23571074 
3105.577 23636530 23701786 23766072 23828968 23890506 23950444 24009096 
3108.952 24066982 24124424 24182886 24243634 24308106 24377458 24451904 
3112.328 24530432 24611356 24692260 24770830 24845274 24914782 24978932 
3115.703 25038354 25094622 25148478 25201742 25255680 25311204 25369090 
3119.078 25430040 25493494 25558782 25625244 25691748 25757490 25822222 
3122.453 25885872 25948794 26011480 26074524 26138180 26203038 26269032 
3125.829 26336130 26404292 26473064 26541884 26610362 26678250 26745128 
3129.204 26811064 26876024 26939794 27002656 27064402 27125166 27185728 
3132.579 27247394 27311324 27379358 27452662 27531486 27615160 27701888 
3135.954 27789800 27876670 27961224 28043072 28122534 28200488 28277716 
3139.330 28354566 28430936 28506188 28579362 28650074 28718316 28785050 
3142.705 28851438 28919182 28989666 29063916 29142322 29224892 29311090 
3146.080 29400180 29491060 29582880 29674580 29765304 29854380 29941734 
3149.455 30026834 30110672 30194028 30277648 30362744 30449774 30538456 
3152.831 30628222 30718010 30806142 30891874 30974846 31055238 31134576 
3156.206 31214212 31295110 31378410 31464182 31551898 31640806 31730302 
3159.581 31819708 31908922 31998116 32087258 32176636 32266312 32356154 
3162.956 32446370 32537390 32629036 32721556 32815136 32908988 33002534 
3166.332 33095244 33186112 33274856 33361290 33445272 33526908 33606592 
3169.707 33684644 33761420 33837704 33914332 33992148 34071560 34152920 
3173.082 34235732 34319488 34403260 34486012 34567232 34646464 34723408 
3176.457 34798032 34870336 34940284 35008088 35074288 35138876 35202864 
3179.833 35266688 35330840 35395680 35461436 35528276 35596280 35665624 
3183.208 35736168 35807480 35879304 35950960 36021872 36092044 36161468 
3186.583 36230648 36300528 36371424 36443740 36517652 36592588 36668224 
3189.958 36744156 36819924 36895344 36970812 37046224 37121972 37198272 
3193.333 37275312 37353120 37431200 37508892 37585008 37658464 37728612 
3196.709 37795296 37859640 37923092 37987496 38054184 38123812 38195916 
3200.084 38269764 38344064 38418300 38492764 38568588 38646412 38726784 
3203.459 38809096 38891636 38972384 39049120 39120652 39187044 39249452 
3206.834 39309336 39368320 39427856 39488164 39549312 39611268 39673672 
3210.210 39736408 39799444 39862344 39924384 39985448 40045036 40103828 
3213.585 40162772 40223548 40287744 40356280 40429296 40505636 40584028 
3216.960 40662468 40739288 40813644 40884884 40952852 41018432 41082060 
3220.335 41144888 41208060 41272948 41340620 41411868 41487072 41565640 
3223.711 41646700 41729128 41811388 41892720 41972524 42050236 42125872 
3227.086 42199520 42271020 42341040 42409532 42477160 42544212 42611128 
3230.461 42678060 42745104 42812492 42879964 42947520 43014864 43081380 
3233.836 43146444 43209684 43270732 43330260 43389460 43449992 43513312 
3237.212 43580452 43651232 43724296 43797916 43870708 43941536 44010608 
3240.587 44079112 44147808 44217320 44287576 44357040 44424900 44490384 
3243.962 44553780 44616528 44680792 44747712 44818016 44890500 44963296 
3247.337 45034408 45102448 45167112 45229836 45292576 45356900 45423884 
3250.713 45493272 45563848 45634140 45703080 45769824 45834920 45899440 
3254.088 45964296 46030380 46098056 46167036 46236396 46305468 46373336 
3257.463 46439184 46503388 46565940 46627872 46690036 46753280 46817712 
3260.838 46883260 46948784 47012692 47074096 47132148 47186848 47239192 
3264.214 47290248 47341128 47392936 47446152 47501188 47558188 47617712 
3267.589 47679832 47745216 47813456 47883632 47954228 48023576 48089824 
3270.964 48152420 48211876 48269380 48326704 48385776 48447860 48513840 
3274.339 48583312 48655988 48730636 48806784 48883460 48960632 49038264 
3277.715 49116912 49197024 49279784 49365604 49454820 49547952 49644484 
3281.090 49744272 49847016 49952984 50062288 50175672 50293104 50414324 
3284.465 50538892 50665804 50794168 50923580 51054068 51185976 51320388 
3287.840 51458232 51600192 51747420 51900412 52060036 52226848 52401468 
3291.216 52583824 52773292 52968720 53168428 53371260 53576180 53782952 
3294.591 53992228 54205060 54422384 54645160 54874136 55109520 55351616 
3297.966 55600584 55855764 56116900 56382800 56652520 56925320 57201160 
3301.341 57480624 57764992 58056140 58355060 58662532 58978340 59301444 
3304.717 59630832 59965724 60305364 60649612 60998212 61351100 61707908 
3308.092 62068824 62434368 62805660 63184156 63571164 63967116 64371840 
3311.467 64784056 65202372 65625972 66054664 66489220 66931128 67381152 
3314.842 67839080 68304200 68774360 69247904 69723944 70202304 70683488 
3318.218 71168256 71656536 72147664 72640376 73132904 73624456 74114872 
3321.593 74604272 75092728 75580072 76065288 76547088 77024400 77497096 
3324.968 77965576 78431040 78894216 79354976 79811784 80262720 80705232 
3328.343 81137408 81558312 81967368 82363840 82746712 83114200 83463968 
3331.719 83794408 84105072 84395912 84668232 84922912 85159480 85376528 
3335.094 85571784 85742496 85887272 86006048 86099800 86170144 86218072 
3338.469 86243088 86243976 86218392 86163888 86079120 85963560 85817104 
3341.844 85640424 85434296 85199232 84935320 84642664 84320672 83968480 
3345.219 83584448 83167048 82715160 82228952 81710208 81162616 80591136 
3348.595 80000400 79393920 78773912 78140312 77492808 76830584 76153920 
3351.970 75464160 74763136 74052936 73335472 72612528 71885984 71158576 
3355.345 70433944 69715776 69007840 68312880 67631264 66962324 66305332 
3358.720 65659268 65024332 64402580 63796112 63206808 62635496 62081172 
3362.096 61541720 61015372 60500244 59996004 59503592 59023960 58557980 
3365.471 58106020 57667584 57242172 56829156 56428376 56040068 55664272 
3368.846 55300692 54948396 54605968 54271960 53945216 53625060 53311020 
3372.221 53002220 52697680 52395528 52093880 51790944 51485464 51176880 
3375.597 50865236 50550504 50232132 49909456 49581376 49246864 48905412 
3378.972 48557488 48204100 47846084 47484144 47118484 46748776 46374588 
3382.347 45995460 45611688 45223440 44831500 44435800 44036608 43633936 
3385.722 43227872 42819408 42409936 42001472 41596124 41195488 40800468 
3389.098 40410896 40026068 39644668 39265956 38889824 38516480 38147112 
3392.473 37783512 37426576 37077220 36735216 36398952 36066192 35734804 
3395.848 35402624 35068824 34734068 34400176 34069732 33745304 33428668 
3399.223 33119630 32817532 32520174 32225200 31930998 31636420 31341084 
3402.599 31045770 30750586 30456064 30162702 29870990 29581570 29295672 
3405.974 29014460 28738566 28468364 28203530 27942778 27685538 27430778 
3409.349 27178356 26928338 26681102 26436792 26195752 25957518 25722016 
3412.724 25488996 25258980 25032000 24808822 24589754 24374900 24164180 
3416.100 23957796 23755748 23558340 23366162 23178962 22996454 22817934 
3419.475 22642208 22468300 22295788 22124772 21955392 21788692 21624632 
3422.850 21463210 21303866 21145556 20987372 20829456 20671944 20515806 
3426.225 20362160 20212140 20066130 19924398 19786564 19651998 19519656 
3429.601 19388152 19256134 19122872 18987612 18850282 18712096 18574924 
3432.976 18440558 18311280 18188296 18071806 17960906 17853796 17748096 
3436.351 17642214 17534838 17425282 17314030 17201738 17088854 16975758 
3439.726 16862416 16748589 16633792 16518578 16403427 16289720 16178895 
3443.102 16072122 15969500 15870305 15772371 15672842 15569387 15460532 
3446.477 15346384 15229074 15111487 14997156 14888615 14786616 14690296 
3449.852 14597560 14505940 14413279 14318855 14222810 14125964 14029071 
3453.227 13932713 13836444 13739651 13641716 13542504 13442494 13342508 
3456.603 13243637 13146702 13051530 12957744 12864592 12771120 12676883 
3459.978 12581712 12485947 12389964 12294378 12200210 12108005 12018340 
3463.353 11931486 11846897 11763516 11679742 11594045 11505438 11413788 
3466.728 11320390 11227044 11136337 11049796 10968266 10891237 10817381 
3470.104 10744827 10672253 10599248 10526188 10453683 10382684 10313427 
3473.479 10245401 10177285 10107485 10034711 9958254 9877845 9794739 9710564 
3477.336 9627254 9546804 9470500 9398883 9331678 9267733 9205524 9143830 
3481.194 9082383 9021283 8961510 8904418 8850579 8799587 8750292 8701036 
3485.051 8650264 8597674 8543602 8489808 8438081 8389571 8344476 8302054 
3488.908 8260582 8218709 8176029 8133017 8090953 8051696 8015952 7983754 
3492.766 7953989 7925272 7896320 7867235 7838692 7812681 7791328 7776080 
3496.623 7767445 7765286 7768389 7775102 7784513 7795274 7806373 7817439 
3500.481 7827694 7836601 7843955 7850230 7856540 7864806 7877222 7895780 
3504.338 7922437 7957802 8001608 8053080 8109756 8169648 8229886 8288376 
3508.196 8343936 8396732 8448285 8500824 8557559 8620385 8690590 8767399 
3512.053 8848989 8933031 9016716 9098454 9177671 9254836 9330696 9406264 
3515.910 9481676 9556863 9630574 9701416 9768136 9829748 9885403 9934693 
3519.768 9977307 10012806 10040171 10058380 10065908 10061500 10044171 
3523.143 10013722 9970594 9916352 9852423 9779997 9699823 9611298 9513442 
3527.000 9405079 9285572 9155640 9017122 8872729 8724835 8575740 8426190 
3530.858 8276455 8126400 7975958 7824927 7674253 7523968 7373735 7222745 
3534.715 7069652 6913718 6754912 6594280 6434314 6277431 6126015 5980968 
3538.573 5842988 5711665 5586860 5468767 5357852 5254545 5158471 5068050 
3542.430 4980631 4893330 4803166 4708565 4609598 4507640 4404969 4303695 
3546.288 4205623 4111387 4020949 3933908 3849425 3766729 3684250 3600650 
3550.145 3514261 3424015 3329647 3233163 3138003 3048302 2968328 2900743 
3554.002 2845409 2800119 2760803 2723091 2683182 2639243 2590909 2539480 
3557.860 2486524 2433342 2380566 2327663 2273934 2218946 2163000 2107360 
3561.717 2053891 2004922 1961851 1925040 1893690 1864938 1834691 1798091 
3565.575 1750382 1688009 1609648 1517170 1414939 1310338 1210215 1120779 
3569.432 1045177 984201 935618 895907 861045 826917 790933 751898 709979 
3573.772 666804 624329 584148 547056 513118 481107 449762 417590 383695 
3578.111 347648 310013 271949 234751 200208 169812 144753 125828 112736 
3582.451 105047 101633 100904 100971 99877 95204 83704 63191 30583 -15373 
3587.273 -74247 -143016 -216311 -287243 -349489 -398187 -431257 -449297 
3591.130 -455652 -454526 -451514 -451680 -458862 -475577 -502452 -537631 
3594.988 -578433 -620984 -661547 -696548 -724103 -743752 -756751 -765714 
3598.845 -774579 -786783 -804709 -829017 -857854 -888375 -916480 -938434 
3602.702 -952089 -956354 -952320 -941542 -927028 -911355 -897666 -888639 
3606.560 -886821 -893599 -909702 -934202 -964718 -997546 -1029876 -1058997 
3610.417 -1084183 -1106525 -1127313 -1148231 -1170240 -1193106 -1215575 
3613.792 -1235135 -1249937 -1258725 -1260972 -1257734 -1251688 -1245774 
3617.168 -1243957 -1250829 -1269859 -1302796 -1348877 -1403904 -1461334 
3620.543 -1513969 -1556330 -1584689 -1598720 -1599974 -1590830 -1573696 
3623.918 -1550189 -1520672 -1485572 -1446011 -1404993 -1367473 -1341214 
3627.293 -1334706 -1355120 -1404927 -1478836 -1564881 -1647575 -1714610 
3630.669 -1760714 -1787146 -1799388 -1804338 -1808561 -1815622 -1826742 
3634.044 -1840533 -1853962 -1864684 -1871151 -1873262 -1872635 -1871184 
3637.419 -1870095 -1869864 -1869963 -1869534 -1868445 -1866697 -1865311 
3640.794 -1865839 -1868346 -1872272 -1875176 -1873922 -1865113 -1847000 
3644.170 -1819483 -1784572 -1745863 -1707449 -1673156 -1645925 -1627902 
3647.545 -1620903 -1627241 -1648895 -1687646 -1742827 -1810046 -1881180 
3650.920 -1945309 -1992939 -2017378 -2016784 -1994786 -1958009 -1915258 
3654.295 -1875835 -1847990 -1837267 -1845317 -1868940 -1901568 -1935051 
3657.671 -1962528 -1979811 -1986606 -1985254 -1979317 -1973050 -1969422 
3661.046 -1969323 -1971500 -1972951 -1970312 -1960483 -1941912 -1914137 
3664.421 -1877551 -1832417 -1777972 -1713059 -1636583 -1548472 -1450667 
3667.796 -1345706 -1235267 -1116902 -982306 -815821 -597029 -308699 60871 
3671.654 515507 1052783 1666655 2346485 3073895 3808142 4481359 5004093 
3675.511 5279699 5247066 4902679 4297438 3510319 2622509 1709631 832229 
3679.369 40624 -626311 -1149520 -1529685 -1786387 -1948674 -2047752 -2108889 
3683.226 -2145554 -2163589 -2163391 -2144631 -2110670 -2068626 -2027734 
3686.601 -1998809 -1990102 -2005340 -2043498 -2098832 -2163160 -2228797 
3689.977 -2290238 -2344817 -2391314 -2429307 -2458466 -2478266 -2489237 
3693.352 -2492037 -2488611 -2481100 -2471776 -2462847 -2455072 -2449076 
3696.727 -2444199 -2439620 -2433788 -2426341 -2417544 -2408878 -2402584 
3700.102 -2401628 -2407856 -2421695 -2441432 -2463309 -2483373 -2497638 
3703.478 -2503667 -2500767 -2489896 -2472303 -2449339 -2422124 -2391479 
3706.853 -2357768 -2322208 -2286283 -2251410 -2220259 -2194546 -2176710 
3710.228 -2168567 -2172194 -2188117 -2215776 -2251938 -2291953 -2329426 
3713.603 -2358954 -2376947 -2382879 -2378726 -2368214 -2355890 -2345278 
3716.979 -2338489 -2335292 -2334238 -2332919 -2329953 -2325043 -2319638 
3720.354 -2315386 -2313738 -2314859 -2317528 -2319638 -2319407 -2315979 
3723.729 -2310311 -2305334 -2304213 -2309717 -2322999 -2342114 -2362711 
3727.104 -2378726 -2384131 -2374937 -2350485 -2312815 -2267364 -2221677 
3730.479 -2182117 -2154324 -2140081 -2137311 -2140806 -2144994 -2147137 
3733.855 -2148291 -2153896 -2170116 -2201864 -2249301 -2306454 -2363766 
3737.230 -2412074 -2444924 -2460311 -2459553 -2444727 -2417379 -2378002 
3740.605 -2326328 -2263705 -2194381 -2127321 -2075386 -2052830 -2070506 
3743.980 -2128706 -2213600 -2298742 -2358822 -2380045 -2361920 -2314595 
3747.356 -2252234 -2189601 -2138201 -2105987 -2096293 -2108658 -2139850 
3750.731 -2185282 -2241060 -2302038 -2361755 -2413095 -2448977 -2464725 
3754.106 -2460146 -2438829 -2407230 -2372630 -2341488 -2318715 -2306257 
3757.481 -2303785 -2310080 -2322900 -2340565 -2361063 -2381659 -2398794 
3760.857 -2408482 -2407955 -2396521 -2376552 -2352660 -2330678 -2315749 
3764.232 -2310541 -2314925 -2325010 -2335391 -2340928 -2339280 -2331239 
3767.607 -2320528 -2312189 -2310739 -2318682 -2335721 -2358625 -2382681 
3770.982 -2403836 -2418763 -2426704 -2428351 -2425254 -2418565 -2409075 
3774.358 -2396850 -2380934 -2361063 -2337764 -2312815 -2289480 -2272374 
3777.733 -2264793 -2269737 -2286646 -2312387 -2341224 -2366600 -2383439 
3781.108 -2389074 -2384230 -2371773 -2355494 -2339412 -2326460 -2318155 
3784.483 -2315320 -2317430 -2323988 -2334468 -2348013 -2363469 -2379122 
3787.859 -2393127 -2403671 -2409405 -2410064 -2406011 -2398267 -2388184 
3791.234 -2376090 -2362085 -2345706 -2326690 -2305598 -2284174 -2264958 
3794.609 -2250388 -2242642 -2241620 -2244818 -2247125 -2242906 -2227248 
3797.984 -2198766 -2159006 -2114692 -2075485 -2051940 -2053424 -2083730 
3801.360 -2137971 -2202491 -2259750 -2295545 -2302796 -2283647 -2246565 
3804.735 -2204172 -2169523 -2152775 -2159204 -2186766 -2227050 -2267364 
3808.110 -2297852 -2312914 -2312552 -2300028 -2279790 -2254970 -2226523 
3811.485 -2193557 -2154687 -2109384 -2059624 -2010056 -1967673 -1940361 
3814.861 -1934127 -1950422 -1984132 -2023842 -2057084 -2073375 -2068626 
3818.236 -2046103 -2014443 -1984858 -1969323 -1977470 -2012200 -2068066 
3821.611 -2132069 -2189799 -2229819 -2247916 -2246301 -2232094 -2213238 
3824.986 -2195897 -2183667 -2176480 -2171468 -2164809 -2153269 -2136124 
3828.362 -2114857 -2092863 -2073210 -2058602 -2049104 -2043267 -2038320 
3831.737 -2031032 -2018961 -2001118 -1978294 -1951973 -1924594 -1898863 
3835.112 -1877386 -1862342 -1855842 -1859142 -1872437 -1894442 -1922581 
3838.487 -1953622 -1984429 -2012299 -2036572 -2056788 -2073804 -2088577 
3841.863 -2102426 -2116671 -2132102 -2149214 -2167512 -2185579 -2201700 
3845.238 -2213765 -2219897 -2219204 -2211787 -2197842 -2177304 -2149741 
3848.613 -2113208 -2065856 -2006230 -1934853 -1856568 -1780216 -1718934 
3851.988 -1688669 -1703422 -1768766 -1876297 -2004680 -2127716 -2224215 
3855.364 -2285921 -2314299 -2317067 -2302796 -2279263 -2251872 -2223193 
3858.739 -2194645 -2166457 -2138333 -2110307 -2082180 -2054578 -2028195 
3862.114 -2004878 -1987068 -1977667 -1978360 -1989574 -2008440 -2028789 
3865.489 -2043695 -2046169 -2033505 -2007121 -1973314 -1940922 -1919646 
3868.865 -1917007 -1934754 -1967937 -2006065 -2038221 -2056887 -2061635 
3872.240 -2057052 -2051181 -2051676 -2063185 -2085543 -2113934 -2140707 
3875.615 -2158182 -2161644 -2150038 -2126233 -2095469 -2063845 -2037561 
3878.990 -2020808 -2016026 -2021995 -2035451 -2050225 -2060481 -2061668 
3882.365 -2052138 -2033736 -2010914 -1990564 -1979647 -1983308 -2002273 
3885.741 -2032087 -2064372 -2088742 -2098370 -2091083 -2069517 -2039837 
3889.116 -2009891 -1987101 -1975985 -1977931 -1990300 -2007846 -2024666 
3892.491 -2035912 -2039408 -2034989 -2023710 -2006890 -1985880 -1961967 
3895.866 -1936238 -1910409 -1886591 -1866961 -1852840 -1845120 -1842678 
3899.242 -1843470 -1844955 -1845252 -1843602 -1840995 -1839906 -1843206 
3902.617 -1853104 -1871151 -1896389 -1926408 -1957943 -1986870 -2010089 
3905.992 -2025491 -2032252 -2031229 -2023842 -2012563 -1999832 -1988618 
3909.367 -1980504 -1976546 -1976546 -1978756 -1980735 -1979844 -1973511 
3912.743 -1960780 -1942275 -1919844 -1896982 -1877551 -1864585 -1859999 
3916.118 -1863991 -1874450 -1888405 -1902327 -1913312 -1919942 -1921724 
3919.493 -1919019 -1912751 -1903712 -1892232 -1879234 -1865641 -1853203 
3922.868 -1843932 -1839610 -1841028 -1847792 -1857690 -1867984 -1875308 
3926.244 -1877881 -1874714 -1866664 -1855611 -1843503 -1832021 -1822419 
3929.619 -1815325 -1811036 -1810244 -1813676 -1821759 -1834133 -1849805 
3932.994 -1866103 -1880784 -1891539 -1897114 -1897840 -1895366 -1891803 
3936.369 -1888867 -1887745 -1888207 -1889329 -1889593 -1888009 -1884182 
3939.745 -1879135 -1874021 -1870722 -1870689 -1874285 -1881081 -1889395 
3943.120 -1897543 -1903250 -1905362 -1903580 -1898467 -1891506 -1884908 
3946.495 -1880256 -1878574 -1880058 -1883786 -1888471 -1892595 -1895168 
3949.870 -1895696 -1894541 -1892496 -1889890 -1887217 -1884248 -1880619 
3953.246 -1876198 -1870821 -1865014 -1859274 -1854292 -1850267 -1847495 
3956.621 -1845680 -1844691 -1844229 -1844064 -1843833 -1842843 -1840302 
3959.996 -1835320 -1827204 -1815820 -1802127 -1787476 -1773848 -1762661 
3963.371 -1754939 -1750715 -1748966 -1748537 -1748339 -1747316 -1744973 
3966.747 -1741375 -1736623 -1731112 -1724709 -1718109 -1711838 -1706557 
3970.122 -1702894 -1701145 -1701244 -1702432 -1703686 -1703521 -1701310 
3973.497 -1696623 -1689758 -1681243 -1671968 -1662528 -1653484 -1645100 
3976.872 -1637672 -1631368 -1626152 -1622455 -1619814 -1618131 -1616942 
3980.248 -1616216 -1615853 -1616348 -1617800 -1620540 -1624766 -1630179 
3983.623 -1636517 -1643482 -1650447 -1657015 -1662627 -1666291 -1667116 
3986.998 -1664376 -1657379 -1647113 -1634768 -1622554 -1613113 -1607963 
3990.373 -1608062 -1612849 -1620606 -1629519 -1637441 -1643020 -1645694 
3993.749 -1645562 -1643086 -1639224 -1634669 -1630344 -1627439 -1627043 
3997.124 -1630344 -1637606 -1648334 -1661736 -1675466 -1687679 -1696623 
4000.499 -1701244 
##END=
