
##TITLE=Z361_1_d
##JCAMP-DX=5.01  $$ Nicolet v. 1
##DATATYPE=INFRARED SPECTRUM
##ORIGIN=UniL
##OWNER=Nicolet
##LONGDATE=2011/09/14
##TIME=10:57:39
##SPECTROMETER/DATA SYSTEM=Nicolet iS5
##DATA PROCESSING=
Ratio against background
%Transmittance->Absorbance
Truncated
ElementMultiply or ElementDivide
##COMMENTS=
Number of sample scans: 32
Collection length: 51.21 sec
Sample gain: 2.0
Background collected on: Mer Sep 14 10:43:08 2011 (GMT+02:00);
Number of background scans: 32
Background gain: 2.0
Sample spacing:  1.000
Number of scan points: 12415
Resolution points: 8192
Number of FFT points: 65536
Apodization: N-B fort;
Phase correction: Mertz;
Laser frequency: 15798.0 cm-1
Number of rejected sample scans: 0
Number of rejected background scans: 0
Bench serial number: ASB1000141;
##RESOLUTION=4.000
##XUNITS=1/CM
##YUNITS=ABSORBANCE
##FIRSTX=649.893372
##LASTX=4000.122314
##FIRSTY=0.106372
##MAXX=4000.122314
##MINX=649.893372
##MAXY=0.228341
##MINY=0.007899
##XFACTOR=1.000000
##YFACTOR=1.000000E-009
##NPOINTS=6950
##DELTAX=0.482117
##ZPD=6100
##XYDATA=(X++(Y..Y))
649.893 106372176 106631264 106912088 107197456 107468464 107715344 
652.786 107943080 108173568 108435400 108758504 109159120 109639176 
655.679 110187824 110790360 111433640 112110816 112817368 113545208 
658.571 114276808 114988536 115653992 116254544 116785776 117256808 
661.464 117684680 118087056 118481272 118886864 119330088 119851728 
664.357 120500632 121326416 122366728 123630408 125078144 126600560 
667.250 128040792 129252400 130207376 131037552 132001728 133387584 
670.142 135421456 138301696 142188800 147190352 153329760 160475248 
673.035 168312032 176265872 183567232 189376720 192851264 193409408 
675.928 190884000 185594448 178269504 169846128 161284992 153301136 
678.820 146328832 140518096 135779408 131880224 128527672 125464560 
681.713 122487736 119475424 116384392 113226264 110050896 106921080 
684.606 103901024 101040152 98367248 95894896 93623160 91546480 89659352 
687.981 87958304 86441312 85105952 83946576 82954224 82115056 81412608 
691.355 80826704 80335832 79919304 79557968 79235112 78939200 78662272 
694.730 78400280 78152128 77917920 77699136 77496144 77309952 77140856 
698.105 76989032 76854552 76736472 76633136 76542024 76459328 76381216 
701.480 76303632 76223816 76139392 76048832 75950984 75844552 75727656 
704.855 75598136 75453592 75292072 75113168 74918944 74713352 74502376 
708.229 74292544 74089248 73895560 73710944 73531976 73353560 73170424 
711.604 72979568 72780576 72575168 72365592 72152480 71932976 71701512 
714.979 71450872 71175200 70872512 70545408 70200088 69843168 69479384 
718.354 69109648 68731616 68341848 67938832 67524888 67106076 66689336 
721.729 66279276 65875084 65471232 65059012 64630456 64182124 63716488 
725.104 63241496 62767020 62302592 61855240 61429376 61027692 60653192 
728.478 60308372 59994748 59710852 59452184 59211552 58982324 58761680 
731.853 58551988 58360668 58196404 58066364 57973772 57917352 57894640 
735.228 57904180 57947680 58029552 58153860 58322276 58533260 58783796 
738.603 59073616 59407844 59798268 60262156 60818580 61484840 62279264 
741.978 63224980 64354704 65720908 67398488 69481168 72095800 75398016 
745.352 79573016 84855712 91497224 99729616 109700168 121368656 134402624 
748.727 148051600 161221264 172496944 180359984 183630480 181690816 
751.620 174737056 163683520 149970464 135178160 120615000 107277496 95711552 
754.995 86072376 78272776 72078744 67221408 63436932 60512092 58280552 
758.370 56599144 55351500 54438164 53773992 53299632 52977740 52788708 
761.744 52725440 52784780 52964640 53263968 53685720 54238392 54934524 
765.119 55788884 56813708 58016488 59402108 60977164 62754124 64754100 
768.494 67002684 69520672 72312400 75353040 78580424 81884816 85124408 
771.869 88130008 90714368 92708504 93963728 94369904 93874592 92483984 
775.244 90270192 87354648 83904808 80106816 76133552 72148296 68285464 
778.619 64645148 61306912 58321024 55710152 53472020 51580340 49993060 
781.993 48658360 47527576 46560076 45723620 44996628 44362032 43804072 
785.368 43308404 42862116 42455420 42083672 41746312 41444528 41178040 
788.743 40943496 40734448 40543972 40367040 40202428 40051900 39919192 
792.118 39805984 39710848 39629056 39554900 39483520 39413528 39346412 
795.493 39284600 39230412 39184068 39143712 39107308 39074064 39045388 
798.867 39023928 39011532 39007976 39009644 39011784 39009716 39001560 
802.242 38989272 38977168 38970064 38970752 38979124 38992680 39009064 
805.617 39028276 39052636 39086460 39134136 39197052 39273720 39359944 
808.992 39451336 39545832 39644304 39749044 39862492 39983740 40108224 
812.367 40228452 40336208 40426384 40497816 40554164 40601160 40644676 
815.742 40688848 40734120 40779760 40824020 40866240 40906724 40946812 
819.116 40987228 41028956 41071896 41116916 41165836 41221900 41288400 
822.491 41367184 41458452 41559916 41668400 41781984 41901076 42028480 
825.866 42168992 42326684 42503176 42697212 42904944 43121520 43343296 
829.241 43568732 43798244 44034520 44280608 44539464 44814452 45109064 
832.616 45426644 45770044 46139732 46532968 46942324 47356608 47763636 
835.990 48150756 48508060 48829028 49109792 49348376 49544236 49698684 
839.365 49816508 49908084 49991904 50093000 50240576 50466532 50797856 
842.740 51255952 51856464 52609220 53521716 54602584 55861908 57314308 
846.115 58978300 60873812 63022928 65445684 68154968 71151976 74417304 
849.490 77905672 81530680 85164720 88641760 91747960 94257632 95955976 
852.865 96659056 96263304 94757248 92235408 88879712 84948864 80751240 
856.239 76579576 72707632 69350856 66637836 64629116 63316664 62646552 
859.614 62534040 62882700 63600584 64594276 65777764 67070580 68387384 
862.989 69645560 70765536 71669584 72296360 72601408 72561896 72179984 
866.364 71481496 70515512 69343664 68038032 66671132 65301828 63976748 
869.739 62725180 61560356 60487448 59507012 58619636 57826804 57129996 
873.113 56528868 56020164 55597496 55253012 54977952 54764068 54603900 
876.488 54489884 54414352 54370148 54351748 54356368 54384980 54441240 
879.863 54529364 54652036 54808652 54995252 55206168 55436348 55683328 
883.238 55948584 56235500 56548076 56888452 57255632 57645712 58052996 
886.613 58472408 58900732 59336692 59780204 60231588 60689768 61153320 
889.987 61620072 62088128 62556812 63025536 63493460 63959048 64419532 
893.362 64872108 65315232 65750048 66180712 66612884 67053260 67506968 
896.737 67976888 68465112 68973584 69507104 70074496 70689032 71366552 
900.112 72125056 72980904 73949176 75042976 76272752 77646520 79168264 
903.487 80835376 82635200 84540968 86512560 88490176 90397712 92150880 
906.862 93652392 94805400 95524816 95738776 95406472 94526032 93141632 
910.236 91341448 89248688 87016464 84795776 82728112 80937712 79513480 
913.611 78517104 77982032 77912928 78287296 79052344 80129048 81402296 
916.986 82727552 83952688 84917472 85487864 85580944 85172176 84306472 
920.361 83083752 81650664 80163320 78763112 77566728 76643016 76020088 
923.736 75693216 75638088 75822616 76215880 76795072 77543592 78450880 
927.110 79511768 80725344 82097000 83637672 85366648 87310320 89499184 
930.485 91971200 94768256 97934816 101521528 105579256 110155496 115290840 
933.860 121009024 127309768 134157104 141478368 149154208 157012224 
936.753 164853168 172448048 179562864 186004000 191627696 196373872 
939.646 200276864 203471744 206177168 208644384 211138352 213860896 
942.538 216897344 220176736 223445296 226288208 228126048 228341200 
945.431 226375696 221811248 214509808 204635040 192652128 179217456 
948.324 165100576 151074432 137755744 125617192 114946392 105845952 98298896 
951.698 92196808 87385560 83680736 80889936 78831800 77324480 76208768 
955.073 75358840 74676912 74105872 73621392 73220904 72912984 72706920 
958.448 72608768 72618920 72734664 72951664 73264664 73665240 74140728 
961.823 74676480 75256176 75866800 76501992 77161632 77848592 78565336 
965.198 79310040 80076728 80858272 81651072 82457688 83287400 84152040 
968.573 85061136 86018736 87024152 88076424 89180000 90348264 91598976 
971.947 92949024 94403296 95949776 97558224 99188768 100805936 102387760 
975.322 103933768 105461304 107001440 108588200 110251112 112017496 
978.215 113911976 115958448 118184216 120619504 123300680 126284648 
981.108 129655288 133533864 138076656 143427024 149659776 156687008 
984.000 164205920 171632256 178129872 182814816 184872128 183835296 
986.893 179741008 173142464 164970144 156233616 147896240 140635760 
989.786 134789344 130421936 127380240 125411616 124234168 123617816 
992.678 123395536 123447968 123696968 124081280 124549256 125065864 
995.571 125611664 126182336 126780328 127403248 128035728 128653344 
998.464 129227416 129739432 130187480 130584640 130951048 131301520 
1001.356 131640272 131961224 132255760 132522416 132772040 133024872 
1004.249 133303792 133622736 133982328 134371872 134778416 135194816 
1007.142 135625888 136084720 136586016 137136176 137729296 138348080 
1010.035 138972528 139589184 140194256 140792672 141390912 141989328 
1012.927 142579936 143150928 143693568 144211568 144723184 145258384 
1015.820 145847232 146512656 147267408 148116384 149065888 150132560 
1018.713 151343824 152736704 154349536 156212304 158347760 160773488 
1021.605 163505760 166558384 169928048 173572688 177375008 181127552 
1024.498 184550640 187297584 189045968 189570272 188787152 186790992 
1027.391 183825024 180243872 176411616 172656736 169234896 166287904 
1030.284 163865264 161937280 160425024 159221616 158215328 157314832 
1033.177 156447376 155568416 154659904 153720640 152760256 151791712 
1036.070 150830480 149894320 149005312 148194496 147498576 146957024 
1038.963 146610640 146493712 146635424 147060160 147784112 148811760 
1041.856 150123904 151669488 153350416 155018784 156505280 157628672 
1044.750 158241472 158270288 157727008 156714704 155392240 153957776 
1047.643 152596896 151450688 150614160 150122352 149963536 150091136 
1050.536 150441152 150942976 151524048 152121840 152682688 153162128 
1053.429 153528608 153757280 153828368 153728224 153446832 152981696 
1056.322 152338864 151533728 150587680 149521104 148349824 147080064 
1059.215 145709856 144232784 142644544 140947984 139155184 137285136 
1062.108 135360048 133403208 131434384 129471448 127531976 125632064 
1065.001 123787376 122011008 120310752 118688728 117142672 115668472 
1067.894 114263320 112927496 111663976 110477064 109368864 108338224 
1070.787 107379480 106485168 105647672 104860168 104117672 103415824 
1073.680 102748280 102106744 101481720 100863240 100244472 99622496 98998576 
1077.055 98376720 97761728 97159040 96574200 96015072 95492864 95021264 
1080.431 94616208 94292208 94058928 93921112 93878416 93927976 94066912 
1083.806 94293896 94609528 95014128 95505336 96076752 96716016 97407224 
1087.181 98132304 98871288 99605992 100318640 100993040 101617272 102186392 
1090.556 102704968 103189240 103667904 104178976 104762608 105461848 
1093.449 106318208 107369800 108659040 110232016 112139256 114441776 
1096.343 117203208 120485632 124344144 128809912 133873400 139456288 
1099.236 145399328 151434176 157170112 162158016 165903552 167960672 
1102.129 168049360 166095696 162278208 156966368 150678464 143962944 
1105.022 137286832 131032360 125437976 120609312 116558384 113226560 
1107.915 110520440 108328448 106543688 105068560 103812344 102701648 
1110.808 101675184 100682760 99688432 98665352 97594280 96464544 95273048 
1114.183 94025808 92736928 91429088 90129208 88862880 87653552 86517856 
1117.558 85465272 84500040 83621680 82827624 82112336 81468400 80885936 
1120.934 80351976 79853272 79376824 78910824 78446680 77976680 77494432 
1124.309 76993896 76469240 75916808 75336880 74734840 74121904 73512744 
1127.684 72925520 72378744 71889264 71473376 71145688 70918904 70804888 
1131.059 70813072 70950424 71221728 71630040 72178776 72874072 73725432 
1134.435 74746960 75956424 77371512 79008904 80882232 82999584 85364960 
1137.810 87976440 90826344 93897056 97158136 100566000 104056104 107546080 
1141.185 110940776 114123200 116966744 119340600 121107328 122149032 
1144.078 122382232 121774728 120363736 118257032 115630848 112691032 
1146.971 109662288 106762544 104165296 102009008 100386688 99345432 98901496 
1150.346 99046400 99757592 101002696 102745976 104953144 107586328 110604888 
1153.722 113960304 117578904 121356472 125149296 128754824 131936432 
1156.615 134431712 135967568 136319888 135331264 132944136 129218848 
1159.508 124332984 118565808 112235008 105683376 99222328 93082720 87429840 
1162.883 82346448 77845896 73895440 70432704 67385872 64680024 62249400 
1166.258 60039908 58005276 56111208 54332632 52651408 51057944 49548432 
1169.634 48124176 46789072 45549016 44411572 43385288 42481400 41713844 
1173.009 41097176 40644532 40361948 40242592 40261096 40372020 40516692 
1176.384 40623500 40624556 40468100 40122360 39585680 38884100 38069268 
1179.759 37205492 36361916 35605956 34989700 34551340 34312604 34277608 
1183.135 34434500 34754780 35197404 35705232 36210552 36645004 36940328 
1186.510 37041928 36918464 36564404 36002472 35277036 34450784 33590128 
1189.885 32755394 31998866 31353976 30837516 30451798 30188486 30033082 
1193.260 29968394 29978406 30048280 30164512 30315700 30491608 30683336 
1196.635 30884546 31089904 31296000 31500876 31702642 31899650 32090184 
1200.011 32272450 32444082 32603032 32747102 32873676 32980620 33065744 
1203.386 33126604 33161256 33166908 33140302 33077150 32972574 32821782 
1206.761 32621424 32370862 32072812 31734724 31367722 30985024 30601522 
1210.136 30231040 29885082 29572842 29300882 29073020 28891666 28757470 
1213.512 28669788 28626466 28624838 28661470 28733220 28837628 28972522 
1216.887 29136262 29327148 29543300 29782656 30043698 30325826 30629966 
1220.262 30957838 31311776 31693480 32103814 32542244 33007394 33497598 
1223.637 34011356 34547212 35104748 35683360 36282552 36902560 37543968 
1227.013 38208216 38897728 39615952 40366604 41153852 41982088 42855756 
1230.388 43779444 44757296 45791912 46883852 48030088 49223780 50453844 
1233.763 51705504 52961868 54203028 55408600 56558796 57634928 58623128 
1237.138 59516320 60316212 61033600 61688120 62307488 62922800 63567860 
1240.514 64278124 65085688 66020988 67110608 68374968 69829080 71481424 
1243.889 73334928 75388240 77637920 80081240 82716368 85543056 88561880 
1247.264 91772768 95174448 98765000 102541504 106501088 110639040 114944976 
1250.639 119400128 123972128 128608752 133242104 137778992 142096464 
1253.532 146050144 149456720 152102000 153770736 154247824 153363056 
1256.426 151025360 147231872 142079136 135742256 128471600 120553728 
1259.319 112281864 103958472 95845360 88153136 81043208 74606552 68880232 
1262.694 63858664 59505572 55766920 52578440 49876376 47595788 45674956 
1266.069 44061068 42705840 41568848 40618952 39829188 39177432 38646264 
1269.444 38219756 37884732 37631220 37450916 37337556 37286068 37291052 
1272.820 37347020 37448392 37589056 37764428 37971220 38208360 38476220 
1276.195 38776816 39112856 39486240 39897760 40345696 40825836 41330160 
1279.570 41848132 42368108 42877588 43367128 43831708 44272388 44696620 
1282.945 45116192 45545412 45996084 46474144 46977764 47497084 48016800 
1286.321 48519360 48992012 49429016 49834716 50222164 50611852 51027272 
1289.696 51490388 52021188 52635812 53345524 54158852 55080820 56112608 
1293.071 57251212 58488520 59812032 61203288 62640660 64100736 65557844 
1296.446 66987724 68368416 69680912 70912936 72059808 73125608 74121040 
1299.822 75063184 75971656 76865192 77762344 78679944 79633152 80637648 
1303.197 81707656 82853240 84078928 85380408 86743232 88141168 89537832 
1306.572 90888624 92136960 93220928 94074152 94626424 94818504 94605744 
1309.947 93966808 92909056 91467080 89701024 87681736 85490440 83209064 
1313.323 80909576 78659248 76516304 74528816 72743128 71202568 69945752 
1316.698 69007800 68409568 68150704 68199280 68489712 68925272 69378216 
1320.073 69717016 69817016 69574848 68931528 67871848 66427356 64663836 
1323.448 62674456 60565764 58434880 56371596 54444432 52696148 51150752 
1326.823 49814424 48682192 47741700 46978092 46375216 45915420 45581476 
1330.199 45356756 45224692 45170532 45180860 45242304 45342852 45470348 
1333.574 45613272 45763124 45913656 46062652 46211700 46364748 46527728 
1336.949 46706932 46909172 47142380 47415696 47741628 48134504 48608440 
1340.324 49176244 49844972 50613752 51471736 52396272 53353240 54291968 
1343.700 55152744 55868164 56368916 56599372 56521996 56124972 55423960 
1347.075 54461824 53304388 52026976 50713540 49443568 48278900 47268080 
1350.450 46439372 45803400 45358332 45092228 44987144 45020664 45169796 
1353.825 45413108 45730504 46105388 46523196 46968312 47424568 47872020 
1357.201 48287192 48646316 48925216 49101852 49160512 49090832 48889764 
1360.576 48561672 48119992 47587988 46997588 46391032 45813120 45303128 
1363.951 44890280 44587592 44393448 44296016 44278844 44325520 44421412 
1367.326 44555508 44719352 44905788 45108844 45322880 45542356 45761948 
1370.702 45975972 46177944 46361392 46520612 46653588 46763940 46864104 
1374.077 46973628 47114240 47307428 47567764 47901688 48311296 48797700 
1377.452 49365864 50028120 50803704 51716928 52794132 54056620 55516576 
1380.827 57169564 58990144 60922492 62877572 64747328 66403076 67716528 
1384.203 68580688 68907176 68644208 67785968 66390140 64583668 62546320 
1387.578 60493660 58614672 57039640 55836244 55012968 54546008 54397224 
1390.953 54529664 54911096 55514576 56321308 57316692 58488332 59824044 
1394.328 61305312 62904952 64587668 66313936 68044072 69743048 71374800 
1397.704 72903064 74292032 75506776 76522864 77331288 77940720 78372184 
1401.079 78651744 78806568 78859768 78829096 78724984 78544848 78269088 
1404.454 77859688 77272104 76463392 75410624 74121984 72637560 71024824 
1407.829 69363368 67746040 66267736 65017872 64086488 63549148 63457644 
1411.205 63837560 64683712 65967948 67646368 69672976 72002432 74585784 
1414.580 77374096 80309080 83321160 86342512 89302608 92135352 94787960 
1417.955 97217152 99393784 101298552 102927984 104287904 105385904 106231448 
1421.330 106829576 107180368 107276688 107109040 106669472 105957832 
1424.223 104987152 103782136 102371488 100774600 98992504 97005496 94782888 
1427.599 92297160 89544632 86557848 83413696 80223616 77106184 74175872 
1430.974 71521424 69196680 67225048 65598152 64283616 63231916 62388388 
1434.349 61706992 61158504 60743956 60497160 60476708 60737176 61302144 
1437.724 62147192 63205280 64380372 65555260 66609756 67411136 67832296 
1441.100 67781248 67212168 66145368 64657876 62873124 60932136 58963308 
1444.475 57083360 55377324 53897724 52674936 51719388 51030180 50597896 
1447.850 50405208 50422768 50607276 50908412 51273592 51655272 52021748 
1451.225 52356984 52663756 52960896 53278880 53653400 54117792 54704124 
1454.601 55443384 56367444 57505696 58872272 60447272 62166424 63931680 
1457.976 65641352 67213824 68591632 69732272 70595576 71149328 71364288 
1461.351 71211272 70662552 69684376 68244720 66330380 63978976 61304204 
1464.726 58481848 55721300 53196704 51000816 49148636 47599632 46296104 
1468.102 45186160 44236800 43430656 42758964 42213212 41782752 41456012 
1471.477 41228464 41106532 41108536 41256916 41569176 42054504 42714180 
1474.852 43549940 44568060 45777592 47188808 48807860 50633672 52660764 
1478.227 54880944 57287688 59871356 62617464 65504132 68493784 71539432 
1481.603 74589440 77588992 80487032 83233216 85770960 88041368 89982032 
1484.978 91531504 92644600 93296944 93491640 93252752 92623072 91654576 
1488.353 90398456 88913624 87268752 85541808 83820248 82181184 80670800 
1491.728 79293336 78008680 76744184 75403608 73886168 72098144 69967008 
1495.104 67460944 64601772 61470600 58184016 54865716 51616608 48501316 
1498.479 45555532 42800244 40251244 37923276 35826872 33961980 32320242 
1501.854 30884260 29630022 28530318 27552668 26658062 25797748 24917450 
1505.229 23970122 22934166 21841616 20777246 19842296 19100852 18555210 
1508.604 18161380 17862464 17610294 17375342 17146826 16927628 16726825 
1511.980 16552309 16407866 16291955 16199462 16125007 16064283 16014431 
1515.355 15973866 15942311 15921688 15917288 15937086 15988201 16074117 
1518.730 16191483 16329419 16471151 16601086 16710779 16807824 16913126 
1522.105 17053910 17248934 17500236 17796318 18119442 18454664 18792810 
1525.481 19134162 19486386 19859846 20260740 20688380 21134772 21588170 
1528.856 22037548 22473116 22887852 23274772 23622850 23917114 24138224 
1532.231 24268160 24300082 24248750 24153460 24062150 24016100 24033432 
1535.606 24108066 24218304 24336420 24436938 24497020 24501544 24443318 
1538.982 24326924 24168558 23992988 23830018 23703744 23626978 23599236 
1542.357 23608892 23637370 23665534 23681560 23683452 23682050 23694332 
1545.732 23736814 23816962 23930488 24064076 24201698 24333020 24456076 
1549.107 24579796 24719302 24890078 25100170 25348296 25627176 25929450 
1552.483 26253580 26605112 26995888 27438826 27942778 28508486 29129992 
1555.858 29797490 30504510 31249424 32039602 32892686 33838460 34910016 
1559.233 36117968 37454964 38894684 40406420 41975772 43599872 45285992 
1562.608 47044332 48885944 50816184 52822944 54878464 56938012 58945132 
1565.984 60846672 62593624 64138264 65435560 66434236 67084232 67352168 
1569.359 67237384 66781096 66052616 65130376 64076848 62928660 61703208 
1572.734 60403404 59023164 57558016 56009044 54397752 52790128 51302712 
1576.109 50088092 49294444 49006888 49235100 49935476 51047584 52523504 
1579.485 54339808 56500716 59030456 61966776 65352128 69229632 73637208 
1582.860 78601592 84132336 90209744 96780688 103739968 110934144 118166160 
1586.235 125175120 131665576 137328064 141864784 145082544 146946848 
1589.128 147629680 147467712 146908768 146420096 146358624 146945680 
1592.021 148221616 150057936 152166528 154138464 155526320 155848400 
1594.914 154688384 151782304 147046576 140622160 132825432 124099840 
1597.807 114904608 105645768 96677888 88255480 80549928 73659512 67595112 
1601.183 62294560 57633604 53465500 49644784 46059044 42653052 39420856 
1604.558 36393404 33611964 31114286 28922370 27040916 25463944 24177492 
1607.933 23161800 22388194 21820780 21419418 21140338 20945298 20804150 
1611.308 20694288 20600470 20510006 20408206 20278306 20099652 19850586 
1614.684 19513488 19080042 18559086 17979864 17389276 16838202 16363755 
1618.059 15981773 15688576 15468532 15300973 15163877 15036704 14899245 
1621.434 14735471 14537426 14307795 14060145 13814622 13590364 13396770 
1624.809 13233799 13092643 12963103 12836163 12707792 12577482 12448267 
1628.185 12323386 12206106 12099317 12006452 11931793 11879655 11852889 
1631.560 11850165 11865284 11887112 11901245 11891743 11845808 11758137 
1634.935 11635053 11494619 11361849 11258735 11195832 11171320 11175467 
1638.310 11196920 11224154 11248942 11267168 11278628 11287878 11301753 
1641.686 11327939 11371304 11432090 11504894 11579310 11642302 11679708 
1645.061 11680457 11640226 11564167 11467027 11369705 11294305 11255777 
1648.436 11261149 11308419 11389740 11491761 11594453 11672186 11690429 
1651.811 11613239 11420524 11133447 10821117 10563260 10406779 10348071 
1655.187 10355638 10393442 10435288 10467430 10486336 10496078 10503546 
1658.562 10514850 10531993 10552498 10570389 10578944 10572392 10547575 
1661.937 10505447 10450187 10389505 10332190 10287199 10260737 10255376 
1665.312 10269184 10295647 10325438 10345560 10343524 10309593 10240381 
1668.688 10140823 10024437 9909810 9813954 9748448 9717104 9716867 9739739 
1672.545 9774304 9807922 9826833 9819648 9781488 9718188 9646767 9588093 
1676.402 9558929 9564722 9599272 9649782 9702771 9749803 9789689 9828698 
1680.260 9875980 9937744 10011823 10084933 10133158 10129699 10053972 
1683.635 9907098 9719476 9541757 9418047 9363265 9365161 9397257 9434978 
1687.492 9459325 9460782 9438804 9398037 9346675 9293561 9247357 9215609 
1691.350 9203561 9213341 9241840 9280020 9312077 9319153 9284590 9202511 
1695.207 9085868 8967429 8886696 8867521 8909592 8988909 9071692 9120516 
1699.065 9107591 9025546 8897924 8774060 8700765 8701036 8766588 8872121 
1702.922 8989112 9095951 9179228 9234258 9264721 9280426 9293967 9315699 
1706.780 9351178 9401252 9463897 9535661 9613195 9694708 9779048 9865879 
1710.637 9955541 10048003 10142655 10238108 10331682 10420422 10501339 
1714.012 10570763 10624645 10657820 10663016 10631843 10558574 10444011 
1717.387 10299413 10146352 10010636 9911132 9855134 9836561 9841950 9854117 
1721.245 9857812 9843170 9806160 9748990 9677631 9600119 9522960 9449471 
1725.102 9381581 9319457 9263265 9213376 9169583 9130633 9094158 9058395 
1728.960 9023651 8992664 8970609 8960800 8961882 8965367 8954610 8907292 
1732.817 8804997 8641882 8437068 8230866 8069687 7981695 7966981 8004814 
1736.675 8066548 8126467 8164584 8170965 8145543 8097402 8040287 7987736 
1740.532 7947982 7922335 7908062 7901246 7898952 7900706 7906881 7917882 
1744.389 7933606 7952942 7974170 7995904 8017268 8037654 8056557 8072927 
1748.247 8084438 8088827 8083560 8067189 8041266 8009775 7980210 7961548 
1752.104 7961683 7984935 8030870 8094869 8168264 8240118 8300974 8343598 
1755.962 8366837 8375991 8381800 8395550 8424028 8466968 8517178 8563844 
1759.819 8595274 8603048 8585439 8547657 8500216 8455515 8424231 8411224 
1763.677 8416426 8435885 8463961 8493965 8519847 8536573 8541406 8535053 
1767.534 8522009 8509574 8504946 8510792 8524172 8535661 8533195 8505249 
1771.391 8447507 8366262 8278481 8205372 8161883 8152666 8171810 8207836 
1775.249 8249371 8289997 8328398 8367209 8409264 8454907 8500587 8540426 
1779.106 8568812 8583851 8588887 8591962 8601797 8623258 8655435 8691604 
1782.964 8722840 8740724 8741840 8728080 8706072 8683931 8668111 8661790 
1786.821 8665272 8677001 8695525 8719223 8746065 8771760 8789511 8791100 
1790.678 8768886 8720338 8650332 8572597 8503797 8459231 8445954 8462070 
1794.536 8499708 8549280 8602642 8655300 8705836 8754856 8803509 8851931 
1798.393 8899345 8944598 8987387 9028184 9068579 9110771 9155810 9204474 
1802.251 9257003 9313939 9376266 9446424 9525770 9614957 9713207 9817615 
1806.108 9924794 10031693 10136075 10236479 10332293 10422187 10504700 
1809.483 10577485 10638499 10686787 10723260 10750636 10771966 10790443 
1812.859 10807903 10824684 10839835 10852201 10860524 10864533 10863955 
1816.234 10858893 10849007 10833109 10810485 10780763 10744895 10704819 
1819.609 10663831 10625223 10590726 10560646 10532808 10502901 10465359 
1822.984 10415331 10349462 10268268 10177014 10084491 10001516 9936421 
1826.360 9892081 9864727 9845068 9819716 9776066 9706769 9612517 9503045 
1830.217 9394312 9302463 9237474 9200311 9183628 9176588 9169143 9154863 
1834.074 9132292 9104071 9074669 9047096 9022162 8998246 8973247 8946560 
1837.932 8920922 8900629 8891296 8896707 8916357 8946053 8977612 9001595 
1841.789 9008327 8989890 8942670 8868265 8775006 8675920 8586690 8519543 
1845.647 8480618 8468894 8478422 8499742 8523733 8544447 8559755 8571144 
1849.504 8582600 8597201 8615924 8636744 8655875 8670004 8678793 8684708 
1853.362 8692585 8706715 8729027 8757865 8788429 8815716 8836140 8850275 
1857.219 8861367 8873980 8891431 8914294 8940336 8965976 8988673 9007819 
1861.076 9025478 9044761 9067463 9093819 9121903 9149347 9174422 9197807 
1864.934 9220584 9243667 9265431 9281002 9283168 9265669 9226033 9169008 
1868.791 9104816 9046926 9006601 8988774 8991581 9008259 9032074 9057685 
1872.649 9083263 9109621 9137909 9168128 9198823 9227150 9250673 9269662 
1876.506 9286181 9304224 9327108 9356257 9390858 9428307 9465996 9502267 
1880.364 9537388 9572207 9606623 9639449 9667941 9689489 9703144 9711683 
1884.221 9719375 9731911 9753124 9782911 9816937 9848796 9872116 9883234 
1888.078 9883166 9876726 9871641 9875031 9891742 9923335 9968696 10025149 
1891.936 10089578 10159716 10232748 10306234 10377967 10446352 10510844 
1895.311 10572902 10634391 10697280 10762556 10828998 10894192 10955931 
1898.686 11012988 11065600 11115805 11166526 11220346 11278390 11342292 
1902.062 11412156 11490570 11579684 11682533 11800591 11933563 12078808 
1905.437 12232960 12393374 12559133 12732938 12918283 13117947 13331882 
1908.812 13555323 13779324 13991361 14178784 14329404 14433042 14482028 
1912.187 14471340 14398722 14265814 14077703 13844244 13577030 13288800 
1915.563 12991405 12694248 12403875 12126915 11870665 11643868 11455392 
1918.938 11311241 11211404 11148201 11109347 11079400 11045513 11001332 
1922.313 10947402 10891033 10842247 10809601 10796557 10802095 10821389 
1925.688 10849958 10885529 10927422 10976082 11030694 11087932 11142456 
1929.063 11189270 11225549 11251424 11270229 11286722 11303011 11318927 
1932.439 11331034 11334809 11327803 11310323 11285735 11259518 11235851 
1935.814 11216334 11199640 11183694 11166798 11149188 11133414 11121584 
1939.189 11114038 11108667 11101256 11086877 11064309 11035555 11006429 
1942.564 10983252 10969422 10963781 10961130 10954605 10939043 10914375 
1945.940 10884713 10856991 10837288 10828896 10830629 10839292 10850537 
1949.315 10861611 10872993 10886311 10902823 10922903 10944514 10964868 
1952.690 10982233 10996064 11006769 11015673 11022232 11023659 11015673 
1956.065 10995690 10962320 10919370 10873706 10832259 10800396 10780083 
1959.441 10767788 10758379 10747511 10733483 10717792 10704107 10695005 
1962.816 10691507 10692458 10694733 10695956 10694801 10690828 10683765 
1966.191 10673204 10657752 10635816 10608551 10579420 10554365 10540276 
1969.566 10541193 10557183 10585192 10618941 10653337 10686684 10720849 
1972.942 10759364 10806816 10864907 10934116 11013362 11102684 11202767 
1976.317 11315118 11439132 11568489 11692506 11798276 11874853 11919226 
1979.692 11936322 11937412 11937310 11948004 11974741 12016091 12066441 
1983.067 12118227 12166270 12209718 12248502 12284562 12317625 12345953 
1986.443 12367396 12383044 12396306 12414751 12446699 12496586 12563976 
1989.818 12643519 12725466 12800808 12864763 12917669 12963377 13006768 
1993.193 13050949 13093735 13131470 13158588 13170986 13169243 13155479 
1996.568 13133314 13105141 13071778 13030975 12981641 12924188 12861043 
1999.944 12797396 12737852 12684150 12634820 12586419 12533212 12473398 
2003.319 12407829 12340873 12278699 12227235 12189408 12166406 12157819 
2006.694 12163271 12181979 12213228 12252898 12294446 12330271 12351475 
2010.069 12353452 12336817 12307536 12274473 12246457 12229382 12223384 
2013.445 12226383 12232279 12236778 12238414 12236130 12230916 12222941 
2016.820 12210911 12193020 12169814 12143917 12119487 12102486 12096796 
2020.195 12103030 12119316 12141225 12165555 12190294 12216875 12246320 
2023.570 12279211 12313535 12344317 12366952 12377725 12377589 12370430 
2026.946 12363099 12360952 12366373 12378407 12392964 12405954 12417103 
2030.321 12427502 12441822 12464532 12497029 12536657 12577652 12611181 
2033.696 12628578 12625065 12597845 12548900 12483900 12410522 12337260 
2037.071 12272871 12223555 12192645 12179049 12177924 12181025 12181740 
2040.447 12175266 12160989 12143372 12128993 12123507 12130833 12150937 
2043.822 12180139 12215444 12252864 12290526 12327783 12363577 12396238 
2047.197 12422490 12440288 12447721 12446358 12439675 12430469 12421672 
2050.572 12413694 12404284 12391806 12375577 12356997 12339305 12326318 
2053.948 12319159 12315989 12313399 12305729 12290663 12269462 12246866 
2057.323 12229859 12223759 12230643 12247071 12267793 12285550 12296253 
2060.698 12299150 12296423 12291242 12285517 12277915 12265339 12244480 
2064.073 12213978 12175335 12133389 12094105 12061466 12037722 12022121 
2067.448 12012174 12006111 12003829 12005703 12013060 12025630 12040687 
2070.824 12054892 12064328 12067633 12065964 12062557 12061535 12065317 
2074.199 12074413 12086677 12098432 12107357 12112162 12113695 12113933 
2077.574 12113797 12113422 12111583 12106369 12096762 12083168 12067735 
2080.949 12053189 12042117 12036224 12035883 12041402 12052507 12069575 
2084.325 12092537 12120748 12152061 12183649 12211865 12234358 12250717 
2087.700 12262135 12271201 12280437 12290936 12301775 12311626 12318920 
2091.075 12323897 12329283 12338862 12356725 12385157 12424195 12470568 
2094.450 12520287 12568750 12612648 12651092 12685071 12716459 12748190 
2097.826 12783439 12825242 12876811 12941154 13019810 13113234 13220716 
2101.201 13339980 13468537 13605030 13748542 13899081 14055936 14216989 
2104.576 14378412 14535370 14682516 14815756 14933606 15035743 15123186 
2107.951 15196989 15257145 15302792 15332653 15346109 15343329 15325823 
2111.327 15295825 15254366 15202136 15138350 15062327 14974006 14875448 
2114.702 14769613 14661026 14553186 14447464 14343718 14240408 14135617 
2118.077 14029311 13923167 13820231 13723475 13634912 13554400 13479953 
2121.452 13409585 13341004 13273289 13206165 13139018 13070549 12999360 
2124.828 12923505 12842818 12759825 12678418 12604087 12541363 12491437 
2128.203 12452052 12418604 12385908 12349907 12310399 12269769 12232620 
2131.578 12203686 12186239 12180889 12187738 12204981 12231290 12265747 
2134.953 12307229 12353452 12402545 12451370 12498053 12541875 12582769 
2138.329 12620732 12655288 12684968 12705985 12716630 12716561 12707656 
2141.704 12694521 12683058 12676644 12676883 12682614 12690870 12700014 
2145.079 12710249 12723862 12743720 12772314 12806507 12841931 12871624 
2148.454 12889952 12894560 12886982 12871930 12854115 12837323 12820669 
2151.830 12801729 12778047 12747644 12712126 12676371 12646044 12627248 
2155.205 12623973 12639664 12677019 12739080 12828074 12943816 13081749 
2158.580 13231306 13378009 13508117 13611936 13685483 13732264 13760102 
2161.955 13775732 13786267 13794817 13802923 13811816 13823275 13839045 
2165.331 13859501 13882421 13902810 13913314 13909345 13887998 13853754 
2168.706 13814553 13780623 13760478 13759145 13774775 13802137 13835180 
2172.081 13867882 13896961 13922723 13945612 13965663 13981814 13991394 
2175.456 13991120 13979726 13957006 13924365 13884576 13840345 13793928 
2178.832 13749090 13709454 13679773 13664180 13664727 13678541 13700460 
2182.207 13721423 13732743 13730896 13716533 13695399 13675772 13665274 
2185.582 13666335 13677823 13694339 13709659 13719132 13721560 13718243 
2188.957 13711847 13705418 13699709 13695229 13691809 13689928 13691638 
2192.333 13700563 13717832 13744644 13779187 13817769 13855601 13889297 
2195.708 13915777 13933774 13943627 13945167 13939590 13928881 13914922 
2199.083 13901784 13893300 13892787 13902229 13921560 13949239 13982601 
2202.458 14020002 14060556 14103613 14149275 14195353 14239518 14278346 
2205.833 14309850 14334335 14355396 14379473 14412628 14460344 14524201 
2209.209 14602358 14690398 14782639 14875175 14965123 15052140 15136086 
2212.584 15217029 15294520 15366740 15432207 15490301 15541123 15586491 
2215.959 15628839 15670162 15711866 15754949 15798312 15840339 15878864 
2219.334 15910449 15931655 15939286 15931072 15906598 15866730 15814256 
2222.710 15752373 15684040 15610224 15531027 15445460 15353008 15254469 
2226.085 15152657 15052208 14956824 14870271 14793232 14724708 14662500 
2229.460 14604242 14548596 14495115 14445066 14398551 14356047 14317109 
2232.835 14281223 14248249 14219044 14194702 14176353 14164508 14158380 
2236.211 14156909 14159031 14163824 14171354 14182515 14196414 14211923 
2239.586 14225823 14234553 14234690 14225001 14206719 14183405 14160229 
2242.961 14140854 14127915 14122198 14122370 14126306 14132570 14139862 
2246.336 14147906 14156909 14167042 14178304 14191278 14206684 14225035 
2249.712 14247290 14273209 14301459 14329677 14355293 14376082 14392077 
2253.087 14404682 14416943 14432426 14453459 14480897 14513580 14548904 
2256.462 14583922 14615859 14642623 14663288 14676826 14683201 14682069 
2259.837 14673913 14659861 14641458 14621033 14600438 14581215 14564254 
2263.213 14550343 14540715 14536878 14540955 14554626 14578165 14609999 
2266.588 14646290 14682069 14712677 14734683 14746954 14750622 14748188 
2269.963 14742360 14735334 14727690 14719497 14710483 14700441 14689439 
2273.338 14677922 14665756 14652219 14636934 14618566 14596977 14572752 
2276.714 14548082 14524509 14504261 14488194 14476376 14467846 14461474 
2280.089 14455959 14450478 14444073 14436604 14427596 14416978 14405127 
2283.464 14392830 14381871 14373274 14368308 14367246 14369404 14373377 
2286.839 14377795 14381905 14385364 14389268 14394132 14400572 14408826 
2290.215 14418280 14428418 14439037 14450307 14463187 14478568 14496827 
2293.590 14517760 14540955 14565522 14590844 14617024 14644782 14674872 
2296.965 14707638 14742807 14778868 14814453 14848225 14879735 14909944 
2300.340 14940705 14973937 15011561 15054575 15102979 15156398 15213734 
2303.716 15274374 15337871 15404124 15472893 15543356 15614963 15686616 
2307.091 15757527 15827039 15894981 15961457 16026532 16089899 16150868 
2310.466 16208507 16261719 16309569 16352093 16389286 16422525 16453186 
2313.841 16483402 16515274 16551655 16594717 16647080 16710572 16785920 
2317.217 16872474 16968834 17072174 17178952 17286240 17391518 17492612 
2320.592 17588040 17675756 17753032 17816718 17863500 17891120 17899994 
2323.967 17893674 17878518 17862876 17855936 17864672 17893502 17943052 
2327.342 18010256 18088972 18171470 18249974 18318366 18372872 18411934 
2330.718 18437552 18453072 18463064 18472746 18486506 18507148 18535710 
2334.093 18571672 18612378 18654850 18696184 18734618 18769490 18801908 
2337.468 18833396 18865646 18898974 18932580 18964284 18991626 19012398 
2340.843 19025586 19031438 19030434 19021780 19002116 18964768 18899562 
2344.219 18797100 18650458 18460644 18238674 18005834 17789274 17616610 
2347.594 17512070 17490302 17556332 17705814 17927030 18202634 18511814 
2350.969 18835092 19154870 19458388 19738780 19993680 20224082 20430884 
2354.344 20615062 20777210 20917794 21039294 21145696 21241440 21330212 
2357.719 21413778 21490678 21557666 21611086 21648522 21669872 21676978 
2361.095 21673564 21663012 21648314 21630588 21610354 21587510 21561290 
2364.470 21529986 21492280 21445386 21386698 21313994 21225922 21122842 
2367.845 21006638 20880072 20745478 20604534 20458044 20305910 20148064 
2371.220 19984900 19817082 19646278 19473982 19300850 19127444 18953726 
2374.596 18779454 18605080 18431640 18259892 18091632 17926994 17766184 
2377.971 17608570 17453636 17301306 17152272 17008492 16871822 16744835 
2381.346 16629763 16528077 16441073 16369157 16312459 16270421 16242111 
2384.721 16226014 16219996 16222369 16231345 16245896 16265811 16291026 
2388.097 16321680 16357426 16397441 16440660 16486431 16534410 16585011 
2391.472 16639473 16698727 16763121 16831934 16903718 16976000 17046604 
2394.847 17113842 17176780 17235386 17289998 17340926 17388448 17432594 
2398.222 17473538 17511448 17547016 17580758 17612950 17643836 17672926 
2401.598 17699292 17722762 17743194 17760694 17776574 17791692 17807398 
2404.973 17824554 17843922 17865882 17890842 17918432 17948472 17980798 
2408.348 18014540 18049318 18085242 18122550 18161970 18204570 18250874 
2411.723 18301568 18356594 18415460 18478104 18544076 18613484 18686290 
2415.099 18762294 18841010 18921190 19002116 19082952 19163386 19244460 
2418.474 19327108 19412544 19502016 19596048 19694710 19797870 19905492 
2421.849 20017550 20134182 20254942 20379002 20505178 20632086 20758964 
2425.224 20885946 21014392 21145974 21283232 21428398 21582320 21745530 
2428.600 21918136 22099878 22291112 22492516 22705012 22929626 23167008 
2431.975 23417634 23681492 23959092 24250782 24557638 24880220 25219228 
2435.350 25574318 25944538 26327468 26719898 27117900 27515742 27907374 
2438.725 28285744 28642642 28970006 29260228 29506380 29703494 29848594 
2442.101 29940848 29981210 29972692 29919584 29826484 29698670 29541420 
2445.476 29359692 29158516 28943266 28718600 28489240 28259610 28033000 
2448.851 27811842 27597576 27391004 27192714 27003222 26823648 26655736 
2452.226 26501838 26364188 26244958 26145814 26066996 26008454 25969442 
2455.602 25948972 25945944 25959418 25988578 26032378 26090076 26160384 
2458.977 26242738 26336516 26441478 26557240 26683570 26819770 26964404 
2462.352 27116348 27274384 27438366 27609158 27788740 27979564 28184474 
2465.727 28406102 28645720 28904416 29182506 29479536 29795218 30128570 
2469.103 30479060 30845556 31226922 31622060 32029684 32449224 32879676 
2472.478 33320576 33771736 34232864 34704384 35186984 35682460 36193408 
2475.853 36722664 37273148 37847784 38448308 39075404 39727984 40403404 
2479.228 41097248 41802564 42510996 43211768 43891860 44537552 45132884 
2482.604 45660568 46103844 46444644 46665868 46753684 46696788 46488932 
2485.979 46129008 45620704 44972664 44196816 43309504 42328912 41275244 
2489.354 40171024 39037088 37894348 36762332 35657064 34592672 33580924 
2492.729 32630000 31746022 30931934 30188948 29515316 28908452 28364788 
2496.104 27880132 27450896 27073640 26744950 26461620 26219826 26015244 
2499.480 25843320 25698638 25576180 25471182 25379664 25298596 25226462 
2502.855 25161714 25103892 25052534 25006906 24966052 24928678 24893412 
2506.230 24858572 24822538 24783562 24740348 24691770 24637164 24576292 
2509.605 24509676 24438058 24362388 24284068 24204220 24124072 24044814 
2512.981 23967880 23893972 23823962 23757708 23694822 23634606 23575936 
2516.356 23518218 23461698 23407142 23355708 23308928 23267676 23232230 
2519.731 23202064 23176304 23153938 23134088 23115986 23098792 23081670 
2523.106 23063466 23042362 23017276 22987824 22954078 22917750 22880412 
2526.482 22844196 22810320 22779520 22751832 22727146 22706128 22689476 
2529.857 22678444 22674150 22677326 22687592 22703928 22724738 22748480 
2533.232 22774144 22801206 22828864 22856942 22884532 22910940 22935600 
2536.607 22958760 22981152 23004418 23030202 23059134 23090896 23123638 
2539.983 23154986 23182526 23204650 23220904 23232334 23240584 23247470 
2543.358 23254112 23261068 23268410 23275260 23281622 23287008 23291692 
2546.733 23296098 23300886 23306480 23314102 23324694 23339552 23359902 
2550.108 23386652 23420118 23459776 23504788 23553442 23604482 23656472 
2553.484 23708296 23759388 23809190 23857112 23903040 23946978 23989380 
2556.859 24031156 24073812 24118468 24166246 24217778 24272224 24328850 
2560.234 24386290 24443456 24499544 24554902 24610232 24667254 24728070 
2563.609 24793632 24865168 24942154 25023016 25105296 25186326 25264038 
2566.985 25337266 25406572 25473536 25540826 25610762 25684858 25763678 
2570.360 25846414 25931314 26016756 26101406 26184772 26266990 26348838 
2573.735 26431054 26514058 26598172 26683430 26770006 26858434 26949524 
2577.110 27044724 27144848 27250956 27363796 27483440 27609688 27742364 
2580.486 27880944 28025366 28175034 28330056 28489948 28654356 28823112 
2583.861 28996750 29175526 29360792 29554506 29758776 29975780 30207668 
2587.236 30455532 30720002 31000146 31294826 31601712 31918586 32242902 
2590.611 32571886 32903016 33233180 33558588 33875460 34179016 34464488 
2593.987 34727176 34962512 35167080 35338024 35474092 35575132 35642320 
2597.362 35677604 35684080 35664688 35622716 35560856 35481604 35386912 
2600.737 35277972 35155940 35021700 34875652 34719104 34553348 34380200 
2604.112 34201956 34021460 33841144 33663232 33489258 33320182 33156716 
2607.488 32998816 32846834 32701016 32561566 32428340 32301114 32179560 
2610.863 32063074 31951680 31845630 31745452 31652604 31567860 31491794 
2614.238 31424322 31364628 31311634 31264200 31222436 31186548 31158140 
2617.613 31138846 31130516 31134432 31151412 31181208 31223256 31277090 
2620.989 31341762 31416912 31502694 31599254 31707384 31827554 31960844 
2624.364 32107882 32268952 32443692 32630998 32828786 33034566 33245236 
2627.739 33458192 33670788 33881156 34087472 34288148 34481456 34665664 
2631.114 34838708 34999108 35145092 35275488 35388960 35484232 35559276 
2634.490 35612108 35640412 35642064 35615988 35561792 35480168 35372604 
2637.865 35241204 35089012 34918596 34733424 34537168 34333580 34126608 
2641.240 33919992 33717084 33520684 33332988 33156034 32990736 32838508 
2644.615 32700158 32576710 32469150 32377712 32303110 32245326 32204148 
2647.990 32179202 32170210 32176528 32197222 32231518 32278020 32335412 
2651.366 32402630 32477896 32559924 32646966 32737278 32829038 32920566 
2654.741 33010614 33098284 33183824 33267844 33351272 33435218 33520288 
2658.116 33606772 33694384 33783192 33872808 33963876 34057152 34153708 
2661.491 34254984 34362128 34475572 34595796 34722440 34855008 34993112 
2664.867 35136004 35283252 35434328 35589052 35747068 35908344 36072348 
2668.242 36239220 36408752 36580764 36755152 36931884 37110892 37292532 
2671.617 37477176 37665764 37859028 38058052 38263504 38475716 38694620 
2674.992 38919688 39149912 39383960 39620420 39857988 40095904 40333480 
2678.368 40570492 40806724 41041888 41275756 41507816 41737228 41963584 
2681.743 42186484 42405876 42622316 42836264 43048704 43260668 43472916 
2685.118 43686404 43902012 44120444 44342288 44567988 44797668 45031468 
2688.493 45269552 45512036 45759332 46012180 46271224 46537392 46811840 
2691.869 47095328 47388684 47692476 48007328 48333112 48669628 49016456 
2695.244 49372396 49736508 50108060 50486040 50870116 51260164 51655568 
2698.619 52055700 52459380 52865268 53271948 53678332 54083824 54488156 
2701.994 54891244 55292940 55692936 56090248 56483848 56872740 57256272 
2705.370 57633716 58005012 58369724 58727312 59077068 59417952 59749024 
2708.745 60069508 60379224 60677844 60965308 61241552 61505836 61757328 
2712.120 61995440 62218924 62426832 62618500 62792720 62948652 63085452 
2715.495 63202476 63299372 63375972 63432144 63467348 63480764 63471176 
2718.871 63436664 63375780 63286952 63168988 63021168 62843144 62634228 
2722.246 62394660 62124560 61824716 61496676 61142372 60764840 60367076 
2725.621 59952676 59525368 59089444 58649484 58210612 57777744 57355900 
2728.996 56949004 56560268 56191940 55845480 55522112 55223248 54950428 
2732.372 54704912 54488416 54301584 54144064 54015268 53913144 53835572 
2735.747 53779876 53743764 53724756 53720816 53730040 53751004 53782692 
2739.122 53824020 53874316 53933288 54000520 54075532 54158328 54249432 
2742.497 54349756 54461672 54587448 54729832 54890792 55071604 55272468 
2745.873 55492444 55730192 55983600 56251640 56532528 56825304 57128632 
2749.248 57441248 57761280 58087156 58416916 58749352 59083484 59418560 
2752.623 59754160 60090016 60425220 60759088 61090156 61417204 61738344 
2755.998 62051244 62354036 62644488 62920308 63180020 63422284 63646576 
2759.374 63852332 64039604 64208700 64360620 64496980 64620308 64734092 
2762.749 64842448 64948908 65056584 65166792 65279224 65391912 65501392 
2766.124 65603428 65693304 65765664 65815360 65837184 65826348 65779036 
2769.499 65692924 65567552 65403664 65204024 64972228 64712056 64427564 
2772.875 64122668 63800944 63465812 63120624 62767908 62410420 62050896 
2776.250 61691596 61335608 60986276 60647096 60321580 60012860 59722944 
2779.625 59453208 59203576 58973748 58762892 58570192 58394704 58235124 
2783.000 58090148 57957416 57834028 57717684 57605112 57493972 57382104 
2786.375 57267464 57147264 57018820 56878936 56724216 56551852 56359636 
2789.751 56146576 55912368 55657680 55383456 55091124 54782184 54458516 
2793.126 54121692 53774104 53417800 53055120 52688332 52319460 51950524 
2796.501 51583700 51220536 50862740 50511496 50167416 49830664 49501644 
2799.876 49180100 48866812 48562304 48267416 47983536 47711488 47452136 
2803.252 47205912 46973664 46755568 46552480 46365228 46194232 46040328 
2806.627 45903600 45783632 45680440 45593140 45521012 45463104 45418548 
2810.002 45386768 45367124 45359548 45364512 45382244 45413732 45459092 
2813.377 45517964 45589312 45670872 45759844 45853776 45950116 46046956 
2816.753 46143416 46239124 46333964 46428312 46522676 46617284 46712800 
2820.128 46809480 46907804 47008224 47110692 47215808 47324388 47437800 
2823.503 47558112 47688152 47830512 47987900 48162156 48354404 48565492 
2826.878 48795956 49047020 49319796 49616144 49937296 50283764 50654040 
2830.254 51045236 51452488 51868560 52285896 52695216 53086380 53450772 
2833.629 53778900 54063600 54300304 54486916 54624116 54715060 54764068 
2837.004 54775872 54755084 54706076 54632796 54540072 54434104 54320916 
2840.379 54208024 54102404 54010016 53935952 53884596 53859540 53864792 
2843.755 53905116 53985176 54109532 54281756 54502840 54770908 55080704 
2847.130 55423508 55786776 56155704 56514184 56844376 57130748 57359792 
2850.505 57521888 57613172 57634892 57593992 57501084 57370152 57216888 
2853.880 57056188 56902880 56769676 56666600 56601408 56579028 56602012 
2857.256 56670680 56783724 56938692 57132148 57359452 57616612 57898308 
2860.631 58199928 58516692 58843928 59177528 59513472 59846716 60172520 
2864.006 60485280 60779016 61048280 61288600 61496712 61670820 61810120 
2867.381 61915000 61985736 62023228 62029264 62006296 61958448 61891268 
2870.757 61810120 61720852 61628052 61535312 61445372 61361176 61285812 
2874.132 61223812 61180324 61160488 61168768 61207716 61277988 61378500 
2877.507 61507172 61661696 61839308 62038208 62256280 62491072 62740536 
2880.882 63001780 63272388 63550376 63834144 64122552 64414688 64709328 
2884.258 65005244 65301524 65597036 65891512 66184880 66477560 66769624 
2887.633 67061336 67352480 67643000 67932864 68222344 68512088 68802464 
2891.008 69094152 69386456 69678616 69969464 70257608 70541664 70819824 
2894.383 71090312 71350544 71598000 71829840 72043576 72238328 72413384 
2897.759 72568984 72705440 72822024 72918152 72992512 73043976 73072560 
2901.134 73079456 73066840 73037672 72994584 72940064 72875752 72803064 
2904.509 72723928 72640576 72555784 72473088 72395656 72326064 72266688 
2907.884 72219184 72185464 72167304 72166488 72184872 72223336 72281920 
2911.260 72359408 72453008 72559504 72674144 72790960 72903344 73003088 
2914.635 73081384 73130112 73142040 73112824 73041040 72928384 72778848 
2918.010 72597488 72389272 72158152 71906472 71635240 71344064 71031768 
2921.385 70696400 70336536 69950968 69539768 69104832 68649840 68180088 
2924.760 67702248 67222952 66747980 66281632 65826580 65383940 64953724 
2928.136 64535536 64128272 63731640 63344612 62966696 62597528 62237236 
2931.511 61886380 61545772 61216756 60900116 60596540 60306008 60027844 
2934.886 59761456 59506100 59261072 59026052 58800600 58583612 58373968 
2938.261 58169924 57969644 57771880 57575944 57381912 57190388 57002388 
2941.637 56818584 56639688 56466336 56298864 56137940 55984092 55837644 
2945.012 55698324 55565564 55437928 55313448 55190780 55068408 54945840 
2948.387 54823612 54702880 54585644 54474332 54371836 54281268 54205624 
2951.762 54147892 54110620 54095872 54105480 54140496 54202052 54290204 
2955.138 54404396 54542400 54699612 54868912 55040724 55203120 55344124 
2958.513 55452304 55518796 55538152 55508932 55433372 55316200 55164972 
2961.888 54988372 54795192 54594960 54396548 54207536 54034968 53884032 
2965.263 53758164 53659400 53588508 53544992 53527000 53532284 53556536 
2968.639 53594620 53640316 53686468 53725428 53751116 53758200 53743204 
2972.014 53704992 53643544 53560172 53456916 53335744 53198800 53048344 
2975.389 52886560 52715976 52539136 52358332 52175212 51990600 51804460 
2978.764 51615528 51422908 51225456 51023248 50817448 50610480 50405284 
2982.140 50205460 50014288 49834008 49666812 49513784 49375440 49252060 
2985.515 49143408 49048728 48967052 48897292 48838632 48790880 48754992 
2988.890 48732344 48725376 48736052 48765408 48813900 48881124 48966380 
2992.265 49069764 49192644 49337800 49509032 49709944 49941796 50202452 
2995.641 50485408 50778156 51063796 51322996 51534224 51677848 51739620 
2999.016 51711552 51594668 51399524 51146240 50860544 50571576 50309808 
3002.391 50100364 49962876 49909272 49942240 50056004 50236152 50462072 
3005.766 50706876 50939560 51130324 51250212 51276796 51197084 51008008 
3009.142 50717340 50341020 49901804 49424448 48932152 48446524 47983828 
3012.517 47555044 47167344 46823504 46522932 46263004 46039844 45848732 
3015.892 45685152 45545596 45427052 45327108 45244068 45175788 45119576 
3019.267 45073116 45033744 44999496 44969468 44943304 44920856 44902480 
3022.643 44887712 44875476 44864748 44854200 44842888 44830836 44818344 
3026.018 44806148 44795128 44785688 44778012 44771952 44767248 44763136 
3029.393 44759352 44755020 44749436 44741796 44731656 44718436 44702680 
3032.768 44684756 44665260 44644180 44621228 44595344 44565272 44530140 
3036.144 44489060 44442812 44392600 44340380 44288128 44237536 44189476 
3039.519 44143880 44100312 44057584 44014568 43970900 43926320 43881448 
3042.894 43837720 43796632 43759728 43728432 43703480 43684720 43671456 
3046.269 43662588 43657020 43654016 43653648 43656284 43662992 43674752 
3049.645 43692304 43715828 43745216 43779996 43820164 43865540 43916788 
3053.020 43974748 44040824 44116004 44201804 44298880 44407796 44529036 
3056.395 44662652 44808208 44964912 45131416 45304932 45481092 45654088 
3059.770 45816032 45956820 46065748 46131696 46143712 46094192 45977816 
3063.146 45793424 45544232 45237044 44882344 44492068 44079552 43657972 
3066.521 43238632 42831692 42444972 42084072 41752768 41453136 41185616 
3069.896 40949760 40743472 40564380 40409292 40274948 40158560 40058004 
3073.271 39971352 39898412 39838664 39791820 39756996 39732124 39714224 
3076.646 39699628 39684420 39665284 39639984 39608040 39570184 39528588 
3080.022 39486240 39445672 39409316 39378700 39354392 39336292 39323920 
3083.397 39316736 39314016 39315468 39320548 39328164 39336796 39343144 
3086.772 39342640 39329944 39298892 39244452 39163364 39054848 38921496 
3090.147 38767828 38600560 38426480 38251636 38080772 37917016 37762112 
3093.523 37616876 37481908 37357708 37244768 37142832 37051276 36968464 
3096.898 36891880 36818732 36746104 36671684 36593996 36512536 36427600 
3100.273 36340264 36251968 36163952 36077280 35992572 35909496 35827556 
3103.648 35745844 35663536 35579808 35494800 35408696 35321856 35234884 
3107.024 35147788 35060168 34971708 34881684 34789888 34696560 34602360 
3110.399 34508288 34415276 34324004 34234904 34147868 34062492 33978284 
3113.774 33894876 33811920 33728868 33645616 33561844 33477698 33393600 
3117.149 33310488 33229322 33151064 33076040 33003356 32931932 32859520 
3120.525 32784156 32704622 32620638 32532890 32443296 32354154 32267168 
3123.900 32183520 32103744 32027118 31953036 31880752 31809584 31739712 
3127.275 31670992 31603492 31537286 31472058 31406976 31341870 31276166 
3130.650 31209796 31143012 31076556 31010964 30946666 30884332 30823856 
3134.026 30765380 30708764 30653896 30601130 30550436 30502092 30456064 
3137.401 30411888 30368714 30325150 30279780 30231324 30179110 30123278 
3140.776 30064898 30004926 29945214 29887104 29831240 29777866 29726770 
3144.151 29677310 29628852 29581142 29533972 29487478 29442018 29397840 
3147.527 29355156 29314140 29274404 29235664 29197532 29159226 29120354 
3150.902 29080602 29039648 28997706 28955274 28912420 28869498 28826794 
3154.277 28784130 28741398 28698566 28655594 28612628 28570622 28530070 
3157.652 28491714 28456478 28424568 28396164 28371014 28348624 28328182 
3161.028 28308978 28289916 28270006 28249142 28227008 28204094 28181714 
3164.403 28161210 28143992 28131690 28125220 28124442 28129074 28138194 
3167.778 28150886 28166618 28185746 28208762 28237474 28273756 28319340 
3171.153 28376038 28445406 28528124 28625016 28736584 28862736 29004046 
3174.529 29160642 29332644 29520566 29724854 29945852 30184118 30440106 
3177.904 30713280 31002568 31305936 31619850 31939662 32260246 32575778 
3181.279 32880322 33168626 33435468 33675836 33885852 34061488 34199592 
3184.654 34298400 34357176 34377296 34361264 34313320 34237808 34140088 
3188.030 34025476 33898852 33765680 33630868 33498812 33372704 33254896 
3191.405 33145450 33043216 32945588 32849762 32752960 32653074 32548706 
3194.780 32439406 32325242 32206644 32084334 31959564 31833258 31706988 
3198.155 31582326 31460620 31342652 31229664 31122080 31020752 30926208 
3201.531 30839118 30759264 30686822 30620578 30559394 30502624 30449986 
3204.906 30402116 30360220 30325506 30298220 30277790 30262338 30249406 
3208.281 30237116 30224468 30211716 30200492 30192678 30189232 30190298 
3211.656 30194916 30201096 30208024 30215446 30224186 30236298 30253564 
3215.031 30276512 30304792 30336664 30369886 30402544 30434064 30464488 
3218.407 30495126 30527152 30561242 30597398 30635300 30674092 30713528 
3221.782 30753714 30795436 30839294 30885968 30935350 30986802 31039614 
3225.157 31092502 31144648 31195734 31245474 31293790 31341332 31388774 
3228.532 31437072 31487696 31541280 31598364 31658768 31721462 31784878 
3231.908 31847696 31908992 31968478 32027044 32085762 32145772 32207820 
3235.283 32272060 32337484 32403134 32468076 32531638 32593746 32654968 
3238.658 32716520 32779652 32845546 32914706 32987266 33062312 33138548 
3242.033 33214010 33287306 33357676 33425700 33492978 33561844 33634912 
3245.409 33713540 33798092 33886852 33977780 34067868 34155428 34240104 
3248.784 34322608 34404840 34488808 34575664 34665732 34758512 34852780 
3252.159 34947360 35041960 35136468 35231540 35327532 35424804 35522776 
3255.534 35620556 35717284 35811688 35903740 35993612 36081672 36169064 
3258.910 36256580 36344620 36433652 36523600 36614000 36704204 36793488 
3262.285 36880736 36965256 37046296 37123448 37196756 37267044 37334924 
3265.660 37401692 37468724 37536924 37606832 37678920 37752212 37826164 
3269.035 37899700 37971804 38041452 38108404 38172144 38232820 38290752 
3272.411 38346160 38399768 38451928 38503156 38553344 38602444 38649888 
3275.786 38694620 38736092 38773480 38806848 38836740 38864244 38890584 
3279.161 38916860 38943640 38970900 38998408 39026028 39053400 39080768 
3282.536 39108648 39137400 39166992 39197052 39226828 39255332 39281700 
3285.912 39305240 39326060 39344344 39360340 39374200 39385988 39395788 
3289.287 39403584 39409716 39414868 39419332 39423648 39428040 39432104 
3292.662 39435876 39439288 39442556 39446544 39451624 39458592 39467556 
3296.037 39478040 39489216 39500248 39510228 39518684 39525580 39531168 
3299.413 39535416 39538716 39541040 39542380 39542744 39542200 39540420 
3302.788 39537772 39534360 39530440 39527248 39525980 39527792 39534000 
3306.163 39545396 39561252 39580452 39601252 39621504 39640056 39656540 
3309.538 39671528 39686272 39702352 39720032 39739640 39760520 39781724 
3312.914 39802676 39823412 39844696 39867612 39893652 39923804 39958384 
3316.289 39997692 40041036 40087836 40137224 40188508 40240884 40294504 
3319.664 40348860 40404496 40462028 40521860 40583992 40648240 40713556 
3323.039 40778484 40841708 40901992 40958788 41012356 41063376 41112436 
3326.415 41160372 41207440 41253892 41299584 41344372 41387776 41429476 
3329.790 41468552 41504060 41534936 41560464 41580372 41594992 41605276 
3333.165 41612240 41616216 41617636 41616104 41611364 41603560 41593280 
3336.540 41581280 41568956 41556308 41543108 41527792 41508252 41482040 
3339.916 41448176 41405856 41355924 41300168 41240412 41178404 41115204 
3343.291 41051248 40986100 40918888 40848372 40773280 40692744 40606508 
3346.666 40515020 40419732 40322900 40226452 40132244 40040964 39952208 
3350.041 39864672 39776640 39686668 39594320 39499996 39404640 39309300 
3353.417 39215004 39121556 39028528 38935272 38841016 38746056 38650612 
3356.792 38555116 38460328 38366536 38273744 38182020 38091620 38002756 
3360.167 37916040 37831988 37750440 37670932 37592416 37513732 37433800 
3363.542 37352292 37269352 37185456 37101468 37017968 36935672 36854836 
3366.917 36775636 36697712 36621032 36544792 36467992 36389872 36309712 
3370.293 36227336 36143136 36058236 35973816 35891216 35811076 35733292 
3373.668 35657244 35582504 35508320 35434760 35361964 35290336 35220220 
3377.043 35151272 35082728 35014340 34945888 34877268 34809236 34742684 
3380.418 34677684 34614380 34551876 34489312 34425320 34360228 34293920 
3383.794 34227736 34163316 34101520 34043068 33988172 33936364 33887104 
3387.169 33840180 33795404 33752500 33711068 33670180 33627824 33582536 
3390.544 33532422 33476480 33415322 33350092 33283264 33217228 33153746 
3393.919 33093348 33035674 32978904 32921460 32861844 32799556 32735240 
3397.295 32670398 32606926 32546174 32488822 32434874 32382998 32332272 
3400.670 32281552 32230660 32179772 32129608 32080196 32031860 31983566 
3404.045 31933956 31881608 31825486 31765092 31700682 31633322 31564154 
3407.420 31494216 31424608 31355082 31285532 31215636 31144898 31073316 
3410.796 31001036 30928270 30855800 30783982 30713032 30642694 30572796 
3414.171 30502518 30431258 30358834 30285252 30210616 30135778 30060706 
3417.546 29985294 29909040 29830778 29749620 29665000 29576958 29486626 
3420.921 29395748 29306412 29220284 29138638 29061576 28988674 28918934 
3424.297 28851226 28784306 28717290 28649330 28580140 28509194 28436418 
3427.672 28361712 28284858 28205900 28124406 28040210 27953450 27864304 
3431.047 27773834 27683560 27594998 27509528 27427884 27349926 27274522 
3434.422 27200616 27127248 27054176 26982490 26913354 26847684 26786360 
3437.798 26728460 26672014 26614658 26553542 26486412 26412496 26332538 
3441.173 26248230 26162144 26077270 25996318 25920868 25851584 25787550 
3444.548 25726410 25664892 25599868 25528668 25450312 25366244 25279316 
3447.923 25193594 25112070 25037054 24968228 24903730 24840712 24776162 
3451.299 24708044 24635202 24557918 24477074 24393896 24309648 24225030 
3454.674 24141340 24059558 23980838 23905666 23834114 23765198 23697342 
3458.049 23628518 23557222 23482788 23405640 23326616 23247296 23168756 
3461.424 23091734 23016262 22942272 22869410 22797086 22725158 22653102 
3464.800 22579904 22505184 22428488 22350272 22271826 22194718 22120030 
3468.175 22048596 21979406 21910610 21840256 21766814 21689762 21610076 
3471.550 21529742 21450398 21373474 21298856 21225470 21151538 21076022 
3474.925 20998328 20919290 20840508 20763620 20689944 20620030 20553360 
3478.301 20489062 20426058 20362854 20298062 20230364 20158754 20082716 
3481.676 20003014 19921208 19839764 19761250 19687674 19619480 19555528 
3485.051 19493352 19429142 19360366 19285470 19204702 19120208 19035002 
3488.426 18952306 18874956 18804642 18741570 18684906 18633372 18584778 
3491.802 18537162 18488858 18438380 18385318 18330048 18272540 18213934 
3495.177 18154748 18095294 18036020 17977206 17919262 17863394 17810368 
3498.552 17761316 17715858 17672752 17629204 17581896 17528248 17466466 
3501.927 17397208 17323236 17248108 17176400 17111152 17053772 17003324 
3505.302 16957428 16912676 16865552 16813610 16755303 16690532 16620813 
3508.678 16548488 16476898 16409105 16348239 16295809 16251709 16214561 
3512.053 16181819 16150936 16119231 16085325 16048983 16010134 15969398 
3515.428 15927324 15883468 15837383 15788794 15738012 15686205 15635606 
3518.803 15588620 15546995 15510698 15478181 15445940 15410303 15367597 
3522.179 15316213 15256562 15191980 15126308 15063734 15006965 14956343 
3525.554 14909910 14864407 14816922 14765088 14709284 14650779 14592078 
3528.929 14535611 14482576 14432940 14386426 14342040 14299953 14260951 
3532.304 14226336 14196996 14172690 14151158 14129216 14103237 14070379 
3535.680 14029174 13980821 13928402 13874895 13823412 13775698 13732264 
3539.055 13692630 13656692 13624039 13595423 13571458 13552280 13537137 
3542.430 13523737 13508595 13487369 13456199 13412284 13354740 13284973 
3545.805 13206302 13124230 13045008 12974096 12915689 12871419 12839439 
3549.181 12815687 12795040 12772178 12743311 12707622 12666239 12623223 
3552.556 12582291 12547229 12519469 12498394 12482298 12468692 12455871 
3555.931 12442914 12429684 12415910 12401556 12385737 12367532 12346294 
3559.306 12321988 12296048 12270553 12247991 12231018 12221135 12218749 
3562.682 12222668 12229723 12235517 12234120 12218476 12182184 12119998 
3566.057 12030705 11917965 11791091 11663608 11548208 11455426 11390012 
3569.432 11350319 11331068 11324300 11323008 11321171 11315798 11306038 
3572.807 11293217 11279411 11266386 11254961 11245372 11236701 11227351 
3576.183 11215756 11200762 11181349 11157687 11130252 11100407 11070087 
3579.558 11041061 11014925 10993686 10978427 10970475 10970645 10979515 
3582.933 10996540 11019921 11045887 11068727 11081303 11075865 11045275 
3586.308 10986617 10901735 10798256 10689741 10591133 10514850 10468618 
3589.684 10452903 10462678 10488475 10519806 10547269 10563497 10565093 
3593.059 10551988 10527172 10495773 10462373 10431317 10404845 10383838 
3596.434 10368092 10357030 10349530 10344236 10339146 10331885 10320145 
3599.809 10302671 10279158 10251882 10223928 10199572 10182034 10173284 
3603.185 10173385 10180406 10192075 10204626 10214124 10216532 10207374 
3606.560 10182204 10138653 10077200 10002024 9921776 9847034 9786639 9745127 
3610.417 9721170 9708701 9699010 9684746 9662656 9635858 9612246 9601339 
3614.275 9610959 9643786 9695860 9757970 9817988 9864252 9887030 9881064 
3618.132 9846525 9789282 9719205 9648088 9587551 9545517 9525534 9527092 
3621.990 9546567 9578982 9619903 9667095 9720696 9781929 9851847 9927607 
3625.847 10001041 10058176 10079303 10044239 9940184 9770373 9558896 9344983 
3629.704 9170158 9059004 9013874 9019151 9051054 9087391 9111550 9116929 
3633.562 9105763 9086207 9068545 9059749 9062388 9073688 9087966 9099741 
3637.419 9105933 9106609 9104071 9101060 9099538 9099977 9101297 9102752 
3641.277 9104918 9110738 9124847 9152290 9196521 9257714 9332254 9412698 
3645.134 9488551 9549174 9583961 9585350 9548802 9474259 9365635 9229215 
3648.991 9074297 8912941 8759082 8628801 8536743 8492410 8498390 8548367 
3652.849 8629241 8722535 8808142 8868028 8888354 8864883 8804693 8725578 
3656.706 8648709 8592807 8568170 8574151 8603250 8644146 8687244 8724564 
3660.564 8752421 8770138 8779334 8782715 8783256 8784304 8788970 8800703 
3664.421 8822343 8856159 8901780 8956639 9015261 9069053 9106609 9116421 
3668.279 9088237 9017460 8909592 8783019 8666320 8588616 8570468 8614910 
3672.136 8708878 8825082 8930223 8992800 8986779 8902422 8753537 8578545 
3675.993 8424873 8327959 8299859 8327317 8387104 8453859 8511264 8553131 
3679.851 8582296 8606866 8635020 8671931 8717600 8769123 8823561 8880136 
3683.708 8940776 9008495 9083770 9162747 9235544 9288043 9304528 9273081 
3687.566 9190328 9064823 8915680 8765336 8634378 8533060 8463015 8419771 
3691.423 8398826 8396530 8411596 8442643 8487545 8541035 8597133 8649318 
3695.281 8693092 8727776 8756208 8783865 8815378 8853047 8894779 8935330 
3699.138 8966685 8981704 8976292 8951227 8912467 8869685 8833502 8812402 
3702.995 8810407 8827247 8859608 8902693 8951836 9003624 9055452 9105662 
3706.853 9152561 9193915 9226880 9247695 9251926 9234766 9192833 9124273 
3710.710 9031500 8921058 8804963 8698196 8614876 8566447 8557254 8584966 
3714.568 8641611 8717059 8800060 8880541 8952513 9012758 9061982 9102989 
3718.425 9139094 9172358 9202274 9226406 9240892 9243193 9232667 9211887 
3722.282 9185624 9160108 9139500 9125558 9116218 9107827 9095816 9078120 
3726.140 9056467 9037149 9029301 9040431 9075210 9131378 9201496 9273420 
3729.997 9334285 9374200 9388996 9382461 9363975 9345829 9335774 9332796 
3733.855 9326261 9301008 9244311 9152832 9036642 8916695 8817812 8758034 
3737.712 8743835 8771186 8831507 8915376 9016716 9132800 9260355 9391806 
3741.570 9513138 9600594 9625018 9561504 9401185 9167079 8914294 8714659 
3745.427 8618696 8636947 8743835 8896470 9051257 9170665 9231787 9225797 
3749.284 9159532 9049363 8916458 8779367 8649791 8536405 8447879 8392239 
3753.142 8376599 8401969 8462137 8543434 8629748 8706106 8761888 8793129 
3756.999 8801548 8792689 8772403 8744476 8710196 8671491 8632418 8600816 
3760.857 8586115 8595004 8628362 8679942 8737613 8787178 8818962 8829140 
3764.714 8823764 8814228 8814499 8832725 8868468 8911757 8948488 8964825 
3768.572 8952445 8911249 8850241 8784811 8729703 8695661 8686027 8697825 
3772.429 8723888 8756546 8789578 8819436 8845303 8868400 8890484 8912467 
3776.286 8933301 8949299 8954948 8944733 8915206 8868096 8810543 8754856 
3780.144 8713949 8697047 8706816 8738087 8780923 8822613 8853285 8867149 
3784.001 8864512 8850072 8831372 8815005 8804388 8800094 8800264 8802325 
3787.859 8805098 8808243 8812639 8818860 8826671 8835835 8845912 8857274 
3791.716 8870937 8888083 8908476 8930020 8948049 8957350 8953663 8937157 
3795.573 8913550 8893494 8890620 8914800 8968174 9043408 9124509 9190023 
3799.431 9217098 9189076 9100621 8964588 8810035 8677339 8600716 8595510 
3803.288 8655740 8757967 8872594 8967869 9019692 9015532 8958026 8865830 
3807.146 8768245 8694815 8662872 8674331 8718276 8780247 8847130 8912602 
3811.003 8977544 9046791 9124847 9211514 9298266 9369596 9407144 9394447 
3814.861 9325686 9211548 9080556 8969527 8908983 8912602 8972064 9063234 
3818.718 9152663 9208096 9205151 9133577 9003726 8846927 8706005 8615654 
3822.575 8593348 8633871 8717194 8816832 8908713 8977138 9015701 9028725 
3826.433 9027001 9025140 9034308 9058565 9095105 9135912 9171952 9195810 
3830.290 9204847 9200887 9190463 9181258 9181225 9195472 9225932 9270339 
3834.148 9323079 9375792 9417539 9437145 9425530 9378229 9298401 9196893 
3838.005 9091180 8999498 8934756 8902084 8897890 8912873 8935601 8956978 
3841.863 8971252 8976766 8975243 8970710 8968343 8972841 8988300 9017392 
3845.720 9061170 9119332 9190124 9271998 9363197 9463558 9573800 9693827 
3849.577 9821513 9949100 10060923 10133701 10138959 10048817 9849847 9556524 
3853.435 9218249 8902592 8669091 8546036 8526301 8582432 8681328 8797153 
3857.292 8912230 9017528 9110839 9192866 9264044 9324772 9373726 9409311 
3861.150 9431253 9439854 9435824 9419605 9391197 9351787 9305713 9262791 
3865.007 9235815 9237474 9274740 9343696 9430576 9512359 9565230 9569091 
3868.865 9516491 9416794 9296776 9190836 9124374 9106203 9125761 9162341 
3872.722 9193407 9203696 9189921 9161022 9134051 9125558 9146606 9197029 
3876.579 9267970 9344339 9410294 9452621 9462982 9440091 9390452 9327514 
3880.437 9268512 9230128 9223732 9251452 9305340 9368817 9422787 9446457 
3884.294 9425971 9359236 9259067 9151918 9067699 9030553 9048753 9113885 
3888.152 9205963 9300906 9376536 9416456 9414391 9375182 9313397 9246917 
3892.009 9193171 9163187 9160412 9182408 9223969 9279580 9344509 9414255 
3895.866 9485130 9552325 9610688 9654932 9680646 9686203 9672990 9645784 
3899.724 9611061 9574545 9539589 9505551 9468570 9423093 9365228 9294949 
3903.581 9217200 9141191 9078188 9037758 9024666 9038604 9073857 9123562 
3907.439 9179600 9235578 9287061 9331645 9367971 9395937 9416422 9430982 
3911.296 9442394 9455024 9472532 9497966 9531765 9571021 9610214 9641957 
3915.154 9659743 9659234 9640465 9607030 9565467 9522993 9484182 9452485 
3919.011 9428544 9412460 9404504 9405384 9415474 9433861 9457429 9481744 
3922.868 9501047 9511004 9509785 9499727 9485739 9474259 9471042 9478526 
3926.726 9496408 9521469 9549988 9578372 9603676 9624544 9639280 9646191 
3930.583 9643006 9628270 9601339 9564620 9523163 9483708 9452892 9435317 
3934.441 9432303 9441953 9459867 9481371 9502606 9521571 9538438 9554628 
3938.298 9571699 9590431 9609774 9627219 9639381 9642634 9634673 9615668 
3942.156 9588331 9557372 9528988 9508498 9499557 9502910 9516220 9535423 
3946.013 9555068 9570311 9578203 9577898 9570886 9559742 9547887 9537760 
3949.870 9530716 9527057 9526414 9528446 9533120 9539827 9548768 9558761 
3953.728 9568617 9576746 9581658 9583080 9581319 9578169 9575662 9575426 
3957.585 9578033 9583216 9589043 9593344 9594327 9590702 9582742 9571563 
3961.443 9559539 9549480 9543857 9544467 9551918 9565399 9583148 9602355 
3965.300 9620410 9635045 9645073 9650019 9650867 9648833 9645378 9641686 
3969.157 9638535 9636603 9636603 9638839 9644057 9652357 9663775 9677022 
3973.015 9690743 9703618 9714529 9723000 9729506 9734453 9738723 9742416 
3976.872 9745432 9747329 9747228 9745025 9740653 9734928 9728624 9722254 
3980.730 9716359 9711073 9706533 9702805 9700061 9698502 9698333 9699180 
3984.587 9700908 9703211 9706058 9710057 9715816 9724016 9734995 9748448 
3988.445 9763053 9777591 9790401 9800399 9806973 9810091 9809989 9806600 
3992.302 9799992 9790638 9779116 9766781 9755665 9748041 9745635 9749329 
3996.159 9758614 9772338 9788672 9805922 9823105 9839984 9856625 9873268 
4000.017 9889437 9904352 
##END=
