
##TITLE=Z361_3_a
##JCAMP-DX=5.01  $$ Nicolet v. 1
##DATATYPE=INFRARED SPECTRUM
##ORIGIN=UniL
##OWNER=Nicolet
##LONGDATE=2011/09/14
##TIME=13:31:54
##SPECTROMETER/DATA SYSTEM=Nicolet iS5
##DATA PROCESSING=
Ratio against background
%Transmittance->Absorbance
Truncated
ElementMultiply or ElementDivide
##COMMENTS=
Number of sample scans: 32
Collection length: 51.23 sec
Sample gain: 2.0
Background collected on: Mer Sep 14 13:30:21 2011 (GMT+02:00);
Number of background scans: 32
Background gain: 2.0
Sample spacing:  1.000
Number of scan points: 12415
Resolution points: 8192
Number of FFT points: 65536
Apodization: N-B fort;
Phase correction: Mertz;
Laser frequency: 15798.0 cm-1
Number of rejected sample scans: 0
Number of rejected background scans: 0
Bench serial number: ASB1000141;
##RESOLUTION=4.000
##XUNITS=1/CM
##YUNITS=ABSORBANCE
##FIRSTX=649.893372
##LASTX=4000.122314
##FIRSTY=0.122211
##MAXX=4000.122314
##MINX=649.893372
##MAXY=0.234867
##MINY=0.004882
##XFACTOR=1.000000
##YFACTOR=1.000000E-009
##NPOINTS=6950
##DELTAX=0.482117
##ZPD=6100
##XYDATA=(X++(Y..Y))
649.893 122211112 122483384 122843848 123287296 123787416 124312688 
652.786 124840536 125372616 125930936 126549560 127253640 128050400 
655.679 128923688 129844920 130784128 131720992 132647992 133561712 
658.571 134455952 135315744 136120576 136854736 137516384 138122048 
661.464 138698656 139273024 139862496 140469248 141083872 141692848 
664.357 142285984 142858208 143403792 143912560 144369776 144768752 
667.250 145134512 145552672 146170880 147136496 148568640 150545552 
670.142 153115552 156343600 160309248 165083856 170683808 177002256 
673.035 183774928 190506608 196524080 201092672 203482720 203212160 
675.928 200179664 194723952 187536624 179475504 171398256 163926832 
678.820 157423808 151998208 147552736 143871760 140692608 137787088 
681.713 134973312 132137256 129232960 126263872 123271104 120312024 
684.606 117449864 114736024 112202488 109866176 107731440 105797504 
687.498 104063640 102529504 101192384 100043472 99066552 98238936 97533872 
690.873 96927824 96401080 95939944 95535056 95179192 94863640 94579664 
694.248 94317616 94069872 93832272 93604248 93387856 93185816 93000000 
697.623 92831744 92681392 92549176 92436064 92341792 92264008 92197624 
700.998 92134584 92065112 91981360 91878872 91757624 91621224 91474160 
704.373 91319736 91157976 90985776 90799304 90595440 90374712 90140008 
707.747 89895784 89645552 89390768 89129920 88860080 88578288 88283336 
711.122 87975640 87656632 87327256 86986704 86631944 86257960 85859056 
714.497 85430744 84970016 84476488 83952568 83403536 82836720 82260672 
717.872 81684416 81116040 80560536 80020088 79493624 78977976 78469464 
721.247 77964472 77460376 76955528 76447592 75934168 75412440 74879568 
724.621 74333784 73775376 73206192 72630544 72054408 71485360 70932048 
727.996 70403904 69908736 69452400 69036584 68659352 68314976 67997696 
731.371 67703400 67431728 67185160 66968120 66783996 66633740 66515864 
734.746 66427476 66367208 66335976 66336632 66373424 66449136 66565724 
738.121 66724412 66928924 67187296 67512000 67919232 68426240 69048392 
741.496 69801064 70702792 71779528 73073584 74647192 76582304 78994440 
744.870 82029680 85862280 90709344 96792984 104304256 113338560 123808344 
748.245 135356432 147256800 158505952 167858928 174034512 176087456 
751.138 173581488 166774144 156507616 144048992 130764288 117774576 
754.031 105929168 95687760 87172640 80297640 74851464 70596280 67300048 
757.405 64774752 62871636 61459420 60428080 59682264 59140168 58746732 
760.780 58469260 58295332 58225236 58264564 58419528 58696360 59102008 
764.155 59645888 60336884 61181736 62182292 63335596 64638728 66094512 
767.530 67716848 69533080 71576040 73872968 76431624 79226440 82192760 
770.905 85219104 88166576 90875760 93177232 94923336 95988912 96283776 
774.279 95766944 94447240 92388064 89695808 86516488 83013624 79340312 
777.654 75642664 72042984 68634632 65494692 62674804 60201560 58077348 
781.029 56280116 54770572 53497616 52412572 51474796 50653444 49929232 
784.404 49288432 48718292 48206252 47739408 47306804 46903044 46527472 
787.779 46182664 45871852 45594724 45347192 45123216 44915596 44719868 
791.154 44534800 44361260 44199968 44050764 43911288 43778932 43652880 
794.528 43534188 43426448 43332564 43253348 43186148 43125108 43063928 
797.903 42999284 42931756 42866436 42809460 42765876 42736844 42719664 
801.278 42709096 42700504 42692244 42685296 42682736 42687272 42700468 
804.653 42721344 42748652 42782256 42823428 42875068 42939436 43016328 
808.028 43102528 43191748 43278056 43357756 43431316 43502472 43576572 
811.402 43657388 43744812 43835228 43922800 44002432 44071448 44130680 
814.777 44182984 44231664 44278808 44324124 44366252 44403868 44437048 
818.152 44467180 44496660 44526760 44558040 44589648 44621116 44653104 
821.527 44688248 44730704 44784624 44852220 44933456 45026580 45129536 
824.902 45241460 45363924 45499856 45652912 45824684 46014684 46219880 
828.277 46436608 46661812 46894296 47134584 47384100 47644036 47914932 
831.651 48196884 48490984 48800036 49128232 49480104 49857384 50257424 
835.026 50671088 51085224 51483188 51849188 52171736 52443788 52663868 
838.401 52835404 52965236 53063880 53145060 53228124 53335404 53491356 
841.776 53721716 54047728 54486688 55051932 55752644 56598012 57598644 
845.151 58766684 60117568 61668684 63437396 65441452 67696752 70214024 
848.525 72994976 76024512 79264416 82638368 86029600 89283032 92195656 
851.900 94552760 96148640 96808304 96433264 95013632 92639680 89484528 
855.275 85793320 81857768 77954952 74344088 71228800 68730608 66905424 
858.650 65742844 65188468 65158164 65557264 66296996 67288912 68453088 
862.025 69715816 70998768 72225176 73321160 74213960 74845440 75174152 
865.400 75177896 74857920 74237464 73360696 72284496 71076888 69808224 
868.774 68537736 67313904 66168284 65115668 64160616 63301676 62535724 
872.149 61860476 61274860 60777228 60364144 60030660 59769860 59574772 
875.524 59438808 59356560 59322260 59330540 59375176 59450284 59551552 
878.899 59677096 59827776 60006352 60215640 60457668 60731992 61036688 
882.274 61369496 61729104 62115576 62529868 62973208 63444680 63941544 
885.648 64459696 64994044 65541192 66099912 66670136 67252200 67845192 
889.023 68445480 69047656 69645792 70234784 70812640 71379680 71937520 
892.398 72487576 73029040 73559376 74075608 74575792 75060632 75534216 
895.773 76002168 76470944 76945520 77430160 77928664 78446752 78993440 
899.148 79580848 80223416 80936520 81733736 82627104 83627992 84746640 
902.523 85993368 87377048 88900776 90557640 92325024 94163912 96013712 
905.897 97796088 99425320 100804640 101840448 102452352 102574360 102169664 
909.272 101238528 99824512 98013368 95925184 93709608 91514608 89479440 
912.647 87725320 86338064 85375808 84868688 84818856 85202856 85968088 
916.022 87037440 88298192 89609504 90822824 91782016 92357896 92471888 
919.397 92103528 91299904 90161216 88831736 87463648 86193184 85131584 
922.771 84343648 83854048 83655872 83723080 84022480 84522328 85198824 
926.146 86035248 87021488 88153384 89431520 90862728 92459344 94241376 
929.521 96234896 98469536 100980576 103805656 106983640 110557616 114570512 
932.896 119061480 124064000 129595848 135652336 142195232 149151488 
935.789 156404544 163789120 171116672 178173920 184746496 190660320 
938.681 195788944 200083856 203581488 206409552 208771024 210896432 
941.574 213028528 215351584 217942768 220738080 223508816 225883888 
944.467 227348032 227355056 225412688 221150464 214441264 205420272 
947.359 194488448 182219824 169297616 156419072 144150528 132935184 
950.252 123052520 114611624 107611496 101963576 97533840 94158104 91662104 
953.627 89879360 88640384 87794024 87218120 86814728 86524448 86320032 
957.002 86196816 86163240 86230072 86404728 86688864 87079584 87571376 
960.377 88157976 88830560 89577408 90385144 91239032 92126760 93041336 
963.751 93981048 94947528 95942912 96965968 98011832 99074616 100150280 
967.126 101240160 102351480 103495624 104682736 105919952 107210904 
970.019 108558888 109971536 111463280 113052352 114755224 116577808 
972.912 118510040 120524904 122585184 124657360 126719880 128771320 
975.804 130829272 132925328 135094848 137368912 139774480 142332752 
978.697 145061216 147978272 151103088 154461456 158096688 162076480 
981.590 166501008 171498560 177181952 183595792 190630032 197975104 
984.482 205062752 211101568 215273088 216845776 215433440 211127488 
987.375 204502896 196475296 188015536 180035808 173166448 167710016 
990.268 163708400 161000928 159337424 158445440 158105216 158158336 
993.160 158489920 159022256 159691760 160444096 161242240 162066320 
996.053 162912032 163780912 164667760 165552640 166405072 167190976 
998.946 167887568 168490496 169012560 169473952 169890416 170267760 
1001.839 170602880 170892624 171143360 171374704 171614880 171891776 
1004.731 172220208 172598704 173012800 173447040 173894688 174364032 
1007.624 174873360 175442560 176081536 176784112 177531056 178298784 
1010.517 179070752 179840560 180610464 181383760 182156352 182914672 
1013.409 183642160 184328528 184979328 185618944 186285488 187017328 
1016.302 187842496 188775728 189820384 190979856 192267664 193709408 
1019.195 195340736 197198720 199310976 201696096 204366896 207335248 
1022.087 210611424 214190320 218028512 222007568 225918656 229481840 
1024.980 232353744 234219872 234867296 234228560 232411520 229665696 
1027.873 226342880 222795536 219334208 216193984 213499568 211286176 
1030.766 209512768 208092160 206908864 205843296 204797856 203697344 
1033.659 202500336 201196512 199796416 198322976 196800832 195256400 
1036.552 193717632 192217168 190799360 189515264 188418272 187561840 
1039.446 186989040 186733536 186821808 187270544 188084816 189247504 
1042.339 190709440 192374624 194096160 195704624 197017376 197885328 
1045.232 198233360 198070656 197494640 196655936 195739808 194915920 
1048.125 194309552 194000464 194012976 194328800 194897200 195651280 
1051.018 196516640 197414528 198275984 199042000 199665104 200114096 
1053.911 200367072 200408960 200229040 199819408 199178160 198310848 
1056.804 197231856 195960208 194512208 192897536 191115360 189157664 
1059.697 187015888 184690032 182192992 179552896 176805824 173989488 
1062.590 171139808 168285520 165450688 162658864 159931616 157290672 
1065.483 154754496 152333952 150032528 147846880 145771392 143801568 
1068.376 141936960 140180112 138534064 136998512 135567840 134231392 
1071.269 132976264 131790904 130666704 129597720 128578320 127599760 
1074.162 126649824 125712944 124773976 123822224 122854496 121874464 
1077.055 120890656 119914000 118955576 118025784 117136512 116302704 
1079.948 115541216 114870720 114307376 113861504 113537200 113332536 
1082.842 113243336 113265704 113398224 113641576 113995160 114454664 
1085.735 115009560 115642616 116333624 117061536 117806912 118553920 
1088.628 119289616 120002400 120684560 121332904 121953088 122560752 
1091.521 123184200 123860656 124629064 125530648 126602608 127877888 
1094.414 129391592 131181624 133290144 135767776 138665920 142032528 
1097.307 145904960 150296832 155183968 160480864 166034176 171598656 
1100.200 176826832 181325744 184668336 186474400 186510656 184725264 
1103.093 181285760 176524048 170900928 164902128 158939968 153352960 
1105.986 148352384 144033216 140407488 137423424 134996720 133023024 
1108.879 131398872 130026800 128814280 127684936 126574960 125431792 
1111.772 124218080 122905888 121477200 119925664 118256552 116489360 
1114.665 114653904 112789744 110939280 109138120 107416312 105793272 
1117.558 104279016 102878184 101591312 100416248 99347848 98377096 97489912 
1120.934 96667544 95889408 95135216 94386704 93629744 92853448 92048768 
1124.309 91208824 90329136 89409088 88453048 87472240 86483888 85507232 
1127.684 84564480 83676480 82861344 82136024 81515216 81011136 80633976 
1131.059 80390528 80283368 80312264 80475344 80771872 81205032 81783368 
1134.435 82520912 83436424 84548496 85875160 87431224 89226384 91266504 
1137.810 93551848 96076296 98823904 101765592 104859616 108044328 111241736 
1141.185 114363592 117302080 119941256 122162344 123839944 124867216 
1144.078 125168624 124716360 123546160 121758760 119517792 117013032 
1146.971 114450352 112028904 109906240 108207448 107015560 106371624 
1149.864 106288112 106753696 107743024 109221112 111149368 113490944 
1152.757 116206744 119256256 122592352 126144992 129816008 133471016 
1155.650 136922352 139953120 142325392 143793952 144159264 143282112 
1158.543 141112384 137704320 133216288 127898080 122034664 115934648 
1161.437 109879056 104075848 98673384 93744520 89299760 85309064 81717576 
1164.812 78464024 75486040 72730232 70153544 67720136 65404320 63188376 
1168.187 61061780 59021004 57067524 55206620 53444664 51789152 50248240 
1171.562 48830956 47548576 46414888 45443788 44647524 44031108 43587668 
1174.938 43293248 43105932 42971588 42824524 42601956 42254476 41750760 
1178.313 41086028 40280984 39380476 38441684 37527496 36699876 36007724 
1181.688 35486568 35157200 35024000 35076512 35288860 35623328 36027308 
1185.063 36437616 36790784 37023056 37083536 36943828 36599148 36071664 
1188.438 35403232 34652204 33879940 33142052 32486002 31942766 31528026 
1191.814 31244654 31085134 31036020 31080330 31201788 31384286 31613472 
1195.189 31877364 32165930 32470896 32786120 33106256 33426772 33743548 
1198.564 34052744 34350724 34634620 34901684 35149620 35376308 35579268 
1201.939 35755956 35903416 36018992 36100072 36143568 36145588 36100936 
1205.315 36003368 35845512 35621312 35326524 34960972 34529096 34040560 
1208.690 33509694 32952738 32388568 31835362 31308998 30823500 30389822 
1212.065 30015222 29704630 29459748 29279544 29160642 29098318 29087086 
1215.440 29121842 29198524 29314494 29467584 29656346 29879154 30134074 
1218.816 30419352 30733374 31075134 31444520 31841672 32267314 32721878 
1222.191 33205784 33719376 34262548 34834864 35435296 36062228 36713468 
1225.566 37386812 38080912 38795616 39532328 40293960 41084172 41906584 
1228.941 42765144 43663212 44604188 45591372 46627320 47713112 48847308 
1232.317 50024620 51236676 52471044 53712492 54944940 56150272 57310412 
1235.692 58408880 59430412 60365020 61208976 61967312 62653020 63286684 
1239.067 63895600 64508660 65156668 65871232 66680752 67612336 68689928 
1242.442 69932016 71351640 72955272 74743336 76711288 78852256 81159656 
1245.818 83627752 86252704 89031848 91962400 95041224 98265032 101630672 
1249.193 105135032 108773528 112535968 116404576 120348608 124320544 
1252.086 128259512 132084264 135689600 138953648 141722016 143814400 
1254.979 145050160 145247632 144263024 142018880 138511872 133822856 
1257.872 128099528 121555008 114435560 106995760 99501312 92185256 85237976 
1261.247 78807240 72978352 67787800 63232756 59281996 55887648 52992488 
1264.623 50540304 48474012 46739328 45289780 44082376 43080760 42256416 
1267.998 41584856 41045968 40624372 40305704 40078352 39932592 39859800 
1271.373 39852796 39905276 40010736 40163100 40356240 40583808 40840944 
1274.748 41124200 41432316 41766228 42128756 42523604 42953700 43420072 
1278.124 43919976 44446812 44989312 45532828 46061804 46561068 47019412 
1281.499 47432032 47801584 48138280 48457456 48777384 49113540 49474796 
1284.874 49861624 50266096 50674516 51071996 51448088 51800652 52137140 
1288.249 52472612 52827512 53223220 53677320 54204120 54813460 55511604 
1291.625 56303164 57191524 58177992 59261604 60437216 61695952 63023500 
1295.000 64402312 65812544 67231776 68638464 70012128 71334568 72593888 
1298.375 73785112 74911696 75983536 77016248 78027400 79033104 80048888 
1301.750 81088728 82165736 83293664 84485784 85751864 87096024 88513000 
1305.125 89987656 91492936 92993064 94445264 95796808 96990656 97965784 
1308.501 98657200 99009232 98979144 98546264 97716784 96523216 95021424 
1311.876 93277112 91364264 89356088 87315504 85301080 83363712 81546072 
1315.251 79890512 78437504 77223336 76281080 75631144 75274344 75182976 
1318.626 75298888 75534768 75774680 75898368 75792160 75362112 74555920 
1322.002 73363360 71818344 69986592 67959328 65839260 63719288 61684608 
1325.377 59800548 58107648 56629192 55371412 54328952 53489112 52835256 
1328.752 52349320 52011436 51802068 51702668 51694420 51760448 51884244 
1332.127 52049052 52239852 52441996 52642436 52831852 53003868 53155804 
1335.503 53288540 53405280 53511332 53613064 53718792 53838724 53984576 
1338.878 54171128 54414236 54728364 55126184 55613840 56190620 56845888 
1342.253 57559036 58298592 59018688 59665808 60179600 60498612 60573840 
1345.628 60372488 59885276 59127904 58141092 56987500 55738816 54475308 
1349.004 53272432 52189076 51269676 50538816 50003728 49658972 49490168 
1352.379 49478212 49599876 49832152 50153468 50543132 50983488 51458756 
1355.754 51953216 52451788 52937388 53389920 53788840 54111824 54337140 
1359.129 54447064 54428172 54273912 53986264 53577152 53069984 52498080 
1362.505 51906424 51343172 50850900 50462408 50192668 50041056 49994436 
1365.880 50033620 50138592 50290500 50475356 50682708 50904576 51134384 
1369.255 51365212 51588588 51795428 51975064 52117076 52213284 52258764 
1372.630 52255100 52211308 52146292 52085584 52056112 52082220 52179136 
1376.006 52351904 52598712 52915980 53303040 53767280 54324260 54997060 
1379.381 55812696 56794184 57955708 59294724 60787328 62381004 63992260 
1382.756 65520464 66847064 67853560 68441416 68529280 68070512 67062848 
1386.131 65565316 63703364 61650468 59611716 57763968 56225880 55055464 
1389.507 54255212 53796828 53639944 53745268 54078268 54609576 55318344 
1392.882 56188772 57210536 58377268 59680024 61102740 62619796 64195872 
1396.257 65790100 67362312 68870328 70274640 71541624 72643632 73567024 
1399.632 74313144 74896184 75336608 75654648 75868144 75991000 76032912 
1403.008 75998576 75883176 75668336 75320456 74800048 74069440 73109296 
1406.383 71927976 70563416 69078728 67547768 66057288 64696140 63548496 
1409.758 62700108 62223704 62169828 62564424 63403344 64660372 66293100 
1413.133 68257048 70508576 73000664 75686672 78510472 81403216 84296856 
1416.509 87117968 89797744 92282200 94532128 96529552 98272008 99774680 
1419.884 101055376 102123888 102982704 103624448 104037744 104207080 
1422.777 104119856 103769760 103161712 102313064 101251152 100003336 
1425.670 98585016 96992032 95201136 93179776 90900344 88359352 85588128 
1429.045 82660168 79681312 76763040 74012976 71514936 69319840 67450840 
1432.420 65900652 64638608 63616312 62779160 62079336 61485640 60997908 
1435.796 60651820 60512856 60646600 61087716 61819328 62775828 63858248 
1439.171 64945296 65914764 66636404 66988960 66888800 66297652 65239908 
1442.546 63791432 62070240 60208600 58327164 56534640 54910760 53504436 
1445.921 52343492 51436824 50782548 50371344 50187572 50205200 50384852 
1449.297 50679804 51039904 51418212 51782432 52115732 52420536 52715152 
1452.672 53029812 53397524 53846560 54399628 55074424 55888136 56856312 
1456.047 57989296 59279304 60691828 62164856 63622064 64989580 66203168 
1459.422 67208488 67954296 68401808 68518648 68275344 67644816 66594884 
1462.798 65096812 63142048 60773340 58108216 55322336 52620064 50167640 
1466.173 48049740 46274652 44797776 43559024 42505332 41602320 40831188 
1469.548 40180872 39640892 39199444 38846484 38581660 38418516 38383404 
1472.923 38503412 38796232 39265956 39906948 40714140 41689152 42839552 
1476.299 44176124 45705876 47427856 49333788 51410040 53642944 56015340 
1479.674 58507516 61095116 63743272 66411728 69058880 71641568 74120336 
1483.049 76455136 78598928 80501512 82108048 83364032 84229384 84682288 
1486.424 84725536 84381800 83690456 82699448 81456296 80014984 78438144 
1489.800 76797008 75172104 73634344 72226392 70951360 69770552 68613984 
1493.175 67389320 66000268 64358620 62397452 60089484 57458268 54581136 
1496.550 51566348 48526920 45553136 42701892 40004668 37480176 35142904 
1499.925 33006966 31081896 29367526 27855400 26529062 25366140 24341256 
1503.301 23423964 22577356 21754586 20903956 19981606 18971172 17909212 
1506.676 16883396 15995111 15305572 14814179 14472812 14222296 14011550 
1510.051 13809115 13604106 13399640 13206542 13034902 12890840 12773952 
1513.426 12679988 12603336 12539419 12485571 12440664 12405545 12383418 
1516.802 12379839 12401965 12455189 12540374 12651809 12777262 12899680 
1520.177 13004822 13087793 13160671 13248147 13379239 13571390 13823549 
1523.552 14120487 14440681 14766664 15087713 15404055 15724063 16059538 
1526.927 16418431 16801176 17200532 17605636 18005972 18393060 18760874 
1530.302 19102896 19407798 19659658 19837856 19923740 19911494 19818192 
1533.678 19685938 19564748 19496194 19496644 19557920 19655326 19759100 
1537.053 19842226 19881560 19861928 19777616 19634700 19451906 19257588 
1540.428 19084650 18959472 18895928 18892328 18934448 19000732 19069382 
1543.803 19126508 19169550 19209238 19262678 19346542 19467292 19619238 
1547.179 19787640 19955310 20111070 20253346 20392370 20544224 20725460 
1550.554 20944082 21198122 21478876 21778518 22095380 22436688 22816956 
1553.929 23252014 23752108 24317566 24939102 25601484 26291244 26999062 
1557.304 27725128 28483084 29306518 30242336 31322282 32555960 33921712 
1560.680 35381520 36907536 38483064 40104736 41773816 43495844 45274700 
1564.055 47102200 48958852 50811748 52615988 54326212 55896916 57280888 
1567.430 58433248 59306384 59858200 60066464 59940884 59527952 58893408 
1570.805 58105752 57214392 56244136 55202556 54085516 52882896 51586164 
1574.181 50194492 48727188 47248576 45872184 44747160 44018276 43769000 
1577.556 44008740 44693796 45763268 47166796 48877344 50894816 53238012 
1580.931 55938560 59033072 62557420 66542276 71007312 75955200 81363096 
1584.306 87178312 93303400 99599952 105894408 111961584 117551272 122407536 
1587.682 126291336 129056440 130692752 131362456 131359768 131065248 
1590.575 130867912 131058440 131807744 133132008 134905328 136869088 
1593.468 138665360 139908256 140185376 139141664 136551888 132343976 
1596.361 126638336 119705920 111929808 103710560 95406344 87334344 79726968 
1599.736 72744224 66481336 60954252 56111248 51842952 48018172 44505836 
1603.111 41205072 38066840 35086860 32294758 29728970 27424920 25403200 
1606.487 23668860 22217314 21036546 20109124 19409044 18903056 18553620 
1609.862 18319748 18165596 18063274 17991812 17937216 17886874 17826420 
1613.237 17738052 17600598 17391690 17093266 16697591 16214767 15675109 
1616.612 15127166 14622472 14197578 13867130 13625270 13454490 13331814 
1619.988 13233765 13138506 13026059 12881897 12700321 12487720 12261624 
1623.363 12044672 11856771 11706666 11591322 11498906 11415897 11330932 
1626.738 11238538 11138683 11035691 10935883 10844795 10767346 10707706 
1630.113 10668755 10652896 10660027 10686684 10724959 10762659 10785382 
1633.489 10777604 10727642 10631775 10499167 10350853 10214633 10114538 
1636.864 10061330 10052073 10074792 10115862 10162056 10203472 10235326 
1640.239 10257547 10275087 10295308 10326015 10371621 10431147 10497401 
1643.614 10558438 10600165 10608755 10575618 10500796 10395546 10280753 
1646.990 10181187 10118948 10106433 10145064 10227524 10341081 10468143 
1650.365 10584309 10660401 10658432 10541464 10293476 9946694 9584774 
1653.740 9297284 9133070 9083297 9109215 9168331 9230128 9278497 9308556 
1657.597 9323891 9331407 9337230 9343324 9347522 9343797 9326025 9289633 
1661.455 9233615 9160784 9078256 8995506 8922005 8865898 8831710 8819436 
1665.312 8824609 8838541 8849564 8843849 8808513 8735044 8622549 8479943 
1669.170 8324480 8178191 8059595 7979435 7939107 7932054 7946801 7968196 
1673.027 7981189 7970390 7924765 7841897 7732635 7620364 7530036 7480345 
1676.885 7474311 7501886 7544938 7585937 7614463 7629064 7637596 7651590 
1680.742 7680189 7721841 7762654 7777193 7736851 7621342 7434705 7212133 
1684.599 7008834 6870864 6811689 6816031 6854033 6898636 6929239 6935770 
1688.457 6917152 6877664 6824951 6767364 6713622 6671998 6649052 6648244 
1692.314 6666951 6695888 6717660 6711333 6658035 6551458 6406066 6258405 
1696.172 6152597 6114825 6144263 6213732 6285331 6318008 6282036 6172359 
1700.029 6018325 5875732 5796008 5801851 5880233 6000721 6130081 6243143 
1703.886 6325606 6373416 6392481 6396046 6399980 6416322 6451027 6503728 
1707.744 6570295 6645452 6724625 6805193 6886147 6967789 7050793 7135329 
1711.601 7220555 7304248 7383138 7453817 7513551 7560042 7591298 7604617 
1715.459 7594974 7556030 7482536 7374881 7242690 7105352 6986644 6903989 
1719.316 6863593 6859183 6876418 6897424 6906076 6892240 6851778 6788130 
1723.174 6708776 6623448 6539920 6462529 6392347 6328632 6270472 6216690 
1727.031 6166275 6117681 6068992 6019803 5971662 5929405 5899478 5886177 
1730.888 5888461 5896791 5893096 5853667 5758904 5603205 5406462 5210278 
1734.746 5062552 4991491 4995948 5053334 5132888 5206556 5253237 5262125 
1738.603 5233819 5179227 5114314 5054541 5009288 4980061 4963538 4954020 
1742.461 4948389 4945072 4944368 4947250 4953685 4962801 4973492 4984888 
1746.318 4996719 5009154 5021992 5033925 5042707 5045255 5038551 5021422 
1750.176 4996049 4967761 4945038 4936928 4950367 4987569 5045557 5117097 
1754.033 5191935 5258066 5306330 5330983 5333566 5322598 5311898 5314581 
1757.890 5337591 5379993 5432262 5481652 5514134 5520578 5498766 5454843 
1761.748 5401061 5351613 5318405 5306833 5316023 5340342 5372311 5403845 
1765.605 5427632 5438436 5434409 5418238 5396666 5379322 5374424 5384522 
1769.463 5405187 5424814 5429209 5405321 5348426 5266149 5178020 5107575 
1773.320 5071939 5076163 5112772 5168061 5227783 5282818 5330044 5371304 
1777.177 5409817 5447461 5482692 5511450 5529504 5535679 5533397 5529806 
1781.035 5532927 5546854 5570448 5597667 5620626 5632608 5631501 5620256 
1784.892 5605286 5593572 5589108 5593069 5603876 5619115 5637577 5658288 
1788.750 5680242 5700217 5712336 5708408 5681618 5629688 5558869 5482860 
1792.607 5419111 5381704 5376403 5399954 5442864 5494806 5547827 5597701 
1796.465 5643954 5687426 5728922 5767601 5801582 5829051 5849738 5866194 
1800.322 5883020 5905423 5937366 5980733 6035124 6099267 6171989 6253060 
1804.179 6342618 6440670 6545941 6656083 6767903 6878505 6985937 7089051 
1808.037 7187271 7279920 7365377 7441547 7506370 7558930 7599795 7631358 
1811.894 7656514 7677491 7695028 7708316 7715770 7715905 7708755 7696141 
1815.752 7681200 7667104 7655671 7646735 7638001 7626232 7608562 7584015 
1819.609 7553670 7519922 7485402 7451592 7418054 7381891 7338923 7285244 
1823.467 7218433 7139876 7055036 6972806 6903181 6853023 6824109 6811487 
1827.324 6805193 6791764 6758682 6698479 6611572 6507731 6402300 6311452 
1831.181 6245665 6205968 6185701 6174039 6160865 6139088 6107197 6068286 
1835.039 6027833 5990576 5958998 5932629 5909856 5889435 5872374 5861694 
1838.896 5861593 5875061 5901829 5937634 5974753 6003946 6014999 5999882 
1842.754 5955135 5883054 5792952 5699377 5618679 5562594 5535981 5535847 
1846.611 5553902 5579510 5603272 5620088 5629923 5636905 5646640 5663826 
1850.469 5689105 5719387 5748563 5771093 5784356 5789762 5791710 5795437 
1854.326 5804335 5818775 5836103 5852592 5866362 5877646 5889670 5905725 
1858.183 5927658 5954295 5981908 6006466 6025280 6039189 6051587 6067715 
1862.041 6090967 6122453 6160058 6199952 6238740 6274506 6306779 6335255 
1865.898 6358084 6371265 6369113 6347258 6305098 6248186 6187482 6135727 
1869.756 6103232 6093655 6103366 6124906 6150581 6174845 6196255 6216556 
1873.613 6238370 6263749 6292424 6322311 6351225 6377653 6401628 6424494 
1877.470 6447160 6469726 6490511 6508404 6523035 6535917 6550348 6569790 
1881.328 6595996 6627586 6660087 6688486 6709180 6721630 6729202 6737884 
1885.185 6752759 6776451 6807415 6840905 6871335 6894664 6909510 6918735 
1889.043 6927387 6941527 6965263 7000820 7047796 7104275 7166958 7232785 
1892.900 7298250 7360086 7416302 7466525 7512472 7558121 7607719 7664405 
1896.758 7729093 7799390 7871352 7940929 8005691 8066076 8124645 8185146 
1900.615 8250485 8321407 8396901 8475144 8555295 8638028 8726018 8822648 
1904.472 8931002 9052610 9187316 9334217 9492682 9663029 9846254 10043425 
1908.330 10253849 10474592 10699487 10919131 11122365 11296787 11429232 
1911.705 11507344 11521838 11466892 11343380 11157924 10923141 10654356 
1915.080 10366463 10072757 9781387 9497762 9226541 8973721 8747621 8558505 
1918.938 8412812 8311950 8248526 8210200 8181499 8149829 8109216 8061349 
1922.795 8014466 7978489 7961211 7964821 7985914 8017741 8054564 8093215 
1926.653 8133388 8176604 8223673 8273753 8323940 8371059 8413116 8449906 
1930.510 8482882 8512988 8539344 8558809 8567156 8561851 8543602 8517414 
1934.367 8490281 8468759 8456022 8450346 8446697 8439737 8427001 8410414 
1938.225 8394739 8384943 8382409 8383861 8381733 8367580 8336708 8290267 
1942.082 8236505 8185788 8147467 8126130 8120053 8123834 8132139 8142571 
1945.940 8156008 8175422 8203075 8238125 8276758 8313909 8344949 8368390 
1949.797 8385550 8398961 8410481 8419197 8422710 8417947 8403285 8381057 
1953.655 8355825 8332485 8313942 8298812 8283007 8261224 8231102 8193958 
1957.512 8155907 8124172 8103748 8096220 8097907 8103072 8107596 8110398 
1961.369 8114516 8124510 8142875 8169108 8199057 8225699 8244171 8251701 
1965.227 8249472 8240794 8228569 8213610 8195580 8174105 8149559 8125015 
1969.084 8104423 8091088 8086430 8088422 8094026 8100945 8109925 8124780 
1972.942 8150370 8190279 8243394 8305702 8371701 8438758 8508933 8589461 
1976.799 8688224 8808243 8944869 9084481 9210972 9309945 9374979 9409142 
1980.656 9423329 9430643 9441141 9460205 9486688 9516762 9546838 9576103 
1984.514 9606217 9640465 9680240 9724389 9768915 9809345 9842831 9869303 
1988.371 9891233 9911980 9933879 9956729 9979240 10000702 10022843 10050038 
1992.229 10088324 10141434 10208289 10282348 10353568 10409731 10442653 
1995.604 10448219 10428431 10388894 10336500 10277700 10216532 10155341 
1998.979 10096869 10043798 9998566 9962186 9932658 9904454 9869472 9821749 
2002.837 9758207 9681697 9600187 9525060 9466911 9432404 9422889 9435791 
2006.694 9465387 9505315 9550292 9595918 9637993 9673701 9700332 9717240 
2010.552 9725067 9726252 9723677 9718426 9709921 9696503 9675903 9648190 
2014.409 9616651 9587077 9566415 9558929 9564959 9579964 9597342 9610214 
2018.266 9615567 9614313 9610485 9609604 9615600 9630506 9652764 9680952 
2022.124 9713580 9750413 9790740 9833273 9874760 9912183 9941777 9963203 
2025.981 9979037 9994599 10014943 10042408 10076149 10110639 10140891 
2029.356 10162836 10177421 10188751 10203371 10225997 10256902 10291542 
2032.732 10322317 10342506 10347799 10338638 10318924 10293612 10266503 
2036.107 10238583 10208493 10174878 10137432 10098192 10060482 10027692 
2039.482 10002092 9982868 9968831 9958559 9951473 9948829 9952016 9962051 
2043.340 9977884 9996600 10014773 10030812 10045019 10062076 10088188 
2046.715 10129190 10189191 10267725 10360288 10458061 10549883 10625019 
2050.090 10673407 10689402 10671573 10623797 10555077 10475983 10400093 
2053.465 10338027 10295851 10274137 10268506 10270100 10271389 10267046 
2056.841 10256699 10242959 10230339 10222604 10221587 10226438 10234885 
2060.216 10244554 10253781 10262331 10269931 10275833 10278446 10275358 
2063.591 10265249 10247233 10222842 10194111 10163583 10133294 10104127 
2066.966 10076387 10050987 10030066 10016265 10011823 10017181 10029421 
2070.342 10044070 10054887 10058074 10053158 10043595 10035152 10033490 
2073.717 10041459 10057837 10078387 10097446 10110435 10115794 10115048 
2077.092 10111555 10109181 10110300 10115488 10124238 10135702 10149642 
2080.467 10166262 10185562 10207035 10228406 10247064 10261008 10269286 
2083.843 10273357 10275155 10277258 10280312 10283399 10284044 10279430 
2087.218 10268743 10253238 10236582 10222842 10215718 10216295 10223317 
2090.593 10233732 10244757 10254697 10264196 10275358 10291407 10315225 
2093.968 10348648 10392492 10446046 10508163 10576704 10648821 10721665 
2097.344 10791463 10855972 10913831 10966397 11016794 11069509 11129335 
2100.719 11200150 11283627 11380182 11488698 11607657 11734817 11867464 
2104.094 12002569 12136489 12265679 12387066 12498564 12599755 12691109 
2107.469 12772724 12844319 12904356 12950165 12979797 12991883 12987581 
2110.844 12969487 12941119 12905892 12865480 12819884 12767741 12707724 
2114.220 12639085 12562679 12480013 12392658 12301263 12205697 12105177 
2117.595 11999537 11890075 11779721 11671743 11569169 11472505 11380556 
2120.970 11289952 11198008 11103941 11009623 10919267 10837661 10768128 
2124.345 10710728 10663185 10620808 10579080 10535319 10488984 10441600 
2127.721 10395173 10351499 10310679 10272000 10234444 10197231 10160937 
2131.096 10127087 10097650 10075234 10062211 10061228 10074759 10104975 
2134.471 10152627 10216804 10293103 10375252 10455754 10528089 10587500 
2137.846 10632217 10662098 10678602 10682983 10675987 10658296 10631436 
2141.222 10598196 10563157 10532265 10511082 10503444 10511218 10532909 
2144.597 10565670 10604749 10644848 10680232 10705600 10716503 10710627 
2147.972 10689164 10656836 10620639 10587364 10561325 10542483 10526052 
2151.347 10504836 10471944 10424529 10364936 10299991 10237633 10184545 
2154.723 10144046 10116370 10101685 10104433 10133260 10201878 10322927 
2158.098 10500355 10725808 10978325 11229935 11454168 11634304 11765729 
2161.473 11853979 11911120 11948412 11974468 11992691 12003489 12005771 
2164.848 11999673 11987071 11969257 11948276 11924572 11897873 11867940 
2168.224 11835388 11801817 11768826 11736860 11704521 11668680 11626749 
2171.599 11577030 11521906 11467061 11419265 11384637 11366406 11363515 
2174.974 11371746 11385250 11399128 11409809 11415591 11415421 11408379 
2178.349 11393073 11368583 11336578 11301175 11268767 11246426 11238810 
2181.725 11246018 11263632 11284240 11299338 11303181 11293829 11272780 
2185.100 11243910 11211778 11179139 11147249 11116757 11087693 11061317 
2188.475 11039327 11022266 11011187 11004866 11002215 11002080 11004696 
2191.850 11011187 11023082 11040823 11064105 11089971 11115941 11139363 
2195.226 11159148 11175535 11189883 11202020 11211234 11215382 11212016 
2198.601 11200320 11180703 11157143 11134026 11116383 11107069 11106865 
2201.976 11114139 11126751 11142422 11160610 11181621 11206848 11237925 
2205.351 11275806 11321138 11373617 11433144 11498599 11569237 11642915 
2208.727 11717695 11792318 11866136 11939898 12015411 12095161 12180037 
2212.102 12270621 12364600 12458803 12550129 12635776 12714411 12785179 
2215.477 12847596 12899748 12939549 12964810 12973789 12966859 12947230 
2218.852 12919444 12888518 12859371 12834662 12815141 12799648 12786441 
2222.228 12772554 12755492 12732392 12700321 12656482 12599345 12529325 
2225.603 12449495 12364736 12281733 12206038 12140953 12086813 12041504 
2228.978 12000900 11960878 11919055 11874478 11827182 11777882 11727464 
2232.353 11676339 11625558 11577098 11534087 11499892 11477098 11467129 
2235.729 11468966 11480126 11497307 11518095 11540552 11564371 11588566 
2239.104 11612081 11632739 11648633 11658060 11661464 11660716 11659558 
2242.479 11660749 11665719 11673581 11681070 11684950 11682635 11674228 
2245.854 11662009 11650165 11642711 11641928 11648293 11660068 11674398 
2249.229 11688864 11701561 11711568 11718920 11723959 11727499 11730971 
2252.605 11736826 11748060 11768043 11798718 11840053 11889189 11940852 
2255.980 11988536 12026720 12052133 12064431 12066679 12063239 12059048 
2259.355 12057344 12059525 12064772 12071312 12076763 12079012 12077411 
2262.730 12072641 12066543 12061228 12059457 12062898 12072402 12087290 
2266.106 12105518 12124700 12142316 12156627 12167361 12175095 12181161 
2269.481 12186818 12192645 12198472 12203414 12206310 12206481 12203686 
2272.856 12198064 12190192 12180411 12169780 12158331 12147018 12137034 
2276.231 12129436 12124768 12123405 12124155 12125109 12124393 12120578 
2279.607 12113116 12102962 12091515 12080511 12071074 12063817 12058503 
2282.982 12054449 12051349 12048726 12045933 12042833 12038370 12032204 
2286.357 12023518 12012379 11999469 11986287 11974229 11964284 11956621 
2289.732 11951069 11946539 11942453 11938570 11935062 11932576 11930839 
2293.108 11929341 11926956 11922359 11914935 11905058 11894434 11885000 
2296.483 11878905 11876964 11878905 11883094 11887759 11890824 11891539 
2299.858 11889734 11886328 11881970 11877270 11872605 11867600 11862458 
2303.233 11856942 11851834 11847918 11845944 11846624 11850200 11856602 
2306.609 11865387 11875704 11886057 11894502 11899065 11897464 11888509 
2309.984 11871822 11848804 11821939 11794292 11768588 11746698 11729064 
2313.359 11715040 11703569 11693800 11685562 11679572 11676882 11678517 
2316.734 11685085 11696114 11710921 11728486 11747208 11766648 11786189 
2320.110 11805323 11823812 11841006 11855784 11866680 11871345 11867123 
2323.485 11851528 11822348 11778597 11721304 11653568 11579922 11506119 
2326.860 11437975 11379569 11333415 11299441 11276281 11261456 11253261 
2330.235 11250574 11253465 11262272 11277064 11296924 11320185 11344639 
2333.611 11368345 11389740 11408516 11424606 11438587 11450358 11460359 
2336.986 11468150 11473696 11477029 11478152 11477607 11475736 11472811 
2340.361 11469374 11466245 11464000 11462911 11462434 11460835 11455936 
2343.736 11445799 11430048 11412020 11397699 11395794 11415285 11462809 
2347.112 11540212 11644310 11768010 11901313 12032885 12153287 12254637 
2350.487 12332078 12384407 12413250 12423479 12420547 12410762 12398965 
2353.862 12388669 12381578 12377589 12375782 12374929 12373293 12370395 
2357.237 12365725 12360066 12354679 12350589 12349191 12350930 12356009 
2360.613 12364259 12375509 12389760 12407659 12429991 12457440 12490175 
2363.988 12527653 12568375 12610158 12650819 12688073 12720519 12747508 
2367.363 12769209 12786339 12799716 12810739 12819987 12828348 12836607 
2370.738 12845275 12854968 12865958 12878040 12891215 12904732 12918283 
2374.114 12931459 12944942 12959315 12976042 12996355 13021381 13051257 
2377.489 13085812 13124060 13164564 13205892 13246917 13286510 13324228 
2380.864 13360070 13394583 13428654 13463411 13500392 13540556 13584928 
2384.239 13633476 13685551 13739993 13795193 13849786 13903016 13954029 
2387.615 14003166 14050460 14096562 14141778 14186520 14231609 14277696 
2390.990 14325978 14377418 14432700 14492168 14555345 14621411 14688993 
2394.365 14756758 14823264 14887244 14947427 15002678 15052208 15095672 
2397.740 15133753 15167548 15199082 15230240 15262740 15297369 15333787 
2401.115 15370721 15406217 15438352 15465992 15488310 15505548 15518837 
2404.491 15529756 15540265 15552490 15568288 15589032 15615307 15646838 
2407.866 15682392 15720250 15758695 15796628 15833981 15871646 15910722 
2411.241 15952794 15998686 16048674 16102208 16158639 16217519 16278367 
2414.616 16341392 16406972 16475143 16546147 16619608 16695628 16774314 
2417.992 16856148 16941718 17031270 17124802 17221630 17320548 17420556 
2421.367 17521038 17621992 17724246 17828664 17936388 18047592 18162244 
2424.742 18280074 18400838 18524298 18650768 18780698 18914580 19052936 
2428.117 19196114 19344706 19499868 19662918 19835844 20020360 20218284 
2431.493 20430224 20656620 20897316 21151888 21420150 21702022 21997706 
2434.868 22307368 22631038 22967842 23316582 23674948 24039772 24405988 
2438.243 24767672 25117652 25447888 25750598 26018832 26246470 26429328 
2441.618 26565024 26652354 26692026 26685718 26636536 26548612 26426934 
2444.994 26277340 26105524 25917174 25717658 25511274 25301898 25093218 
2448.369 24887974 24688894 24498106 24317180 24146734 23987138 23838244 
2451.744 23700140 23573768 23460578 23362490 23281344 23218072 23172670 
2455.119 23143418 23128740 23126610 23136008 23157188 23191088 23238940 
2458.495 23301656 23378784 23468834 23569218 23677012 23789836 23906226 
2461.870 24025798 24149432 24278742 24415732 24562616 24721406 24893834 
2465.245 25081214 25284828 25505230 25742582 25996916 26267836 26555056 
2468.620 26857800 27175922 27508786 27855824 28216188 28588564 28971460 
2471.996 29363520 29763246 30169874 30583852 31005912 31438108 31883214 
2475.371 32344088 32823782 33324332 33847808 34394472 34964096 35554600 
2478.746 36163052 36784436 37412056 38037872 38652348 39244196 39801916 
2482.121 40312284 40760868 41132832 41412236 41583800 41634668 41554480 
2485.497 41338140 40985588 40501672 39896052 39181460 38374104 37490828 
2488.872 36550088 35570820 34570604 33566392 32573924 31606558 30676260 
2492.247 29793304 28965438 28198086 27494420 26854522 26276600 25756928 
2495.622 25291044 24874676 24503646 24175214 23887042 23637404 23424734 
2498.998 23246560 23100226 22981572 22885966 22808260 22744046 22689126 
2502.373 22640952 22597808 22559242 22524936 22494786 22468232 22444294 
2505.748 22421372 22397578 22371414 22341412 22306810 22267256 22222964 
2509.123 22174214 22121670 22065888 22007254 21946784 21885136 21823254 
2512.499 21761970 21702370 21645180 21590990 21539838 21491688 21445944 
2515.874 21401840 21358820 21316534 21275124 21235246 21197984 21164446 
2519.249 21135190 21110352 21089134 21070388 21052580 21034008 21013662 
2522.624 20991092 20966022 20939144 20911154 20882924 20855424 20829386 
2526.000 20805436 20784024 20765220 20748606 20733766 20720004 20706868 
2529.375 20694322 20682714 20672846 20666140 20663568 20666106 20674168 
2532.750 20687336 20705026 20725912 20748468 20771824 20794660 20816802 
2536.125 20838320 20859838 20882262 20906564 20933232 20962198 20992764 
2539.500 21023748 21053868 21081760 21106282 21127016 21143400 21155680 
2542.876 21163820 21168204 21169142 21167784 21165178 21163020 21162950 
2546.251 21166184 21173316 21184346 21198436 21214754 21232290 21250800 
2549.626 21270390 21291548 21315628 21342914 21374134 21409044 21447056 
2553.001 21487196 21528732 21570516 21611746 21652074 21691328 21729992 
2556.377 21768730 21808968 21852138 21899458 21951698 22008894 22070002 
2559.752 22133592 22197160 22259026 22317552 22372390 22423988 22473778 
2563.127 22523786 22575924 22631840 22692340 22757244 22825546 22895886 
2566.502 22966480 23036176 23104382 23171272 23237612 23304452 23372700 
2569.878 23442604 23514160 23586396 23658364 23729222 23798622 23867052 
2573.253 23935284 24004788 24077104 24153146 24233614 24318758 24408020 
2576.628 24500842 24596558 24694646 24794614 24896712 25001008 25108070 
2580.003 25218736 25333542 25453368 25578744 25710450 25848702 25994030 
2583.379 26146800 26307718 26477254 26656336 26845604 27045430 27256036 
2586.754 27477442 27709306 27951718 28204660 28468118 28742248 29026222 
2590.129 29318712 29617146 29917986 30217222 30510196 30793016 31062284 
2593.504 31314838 31548190 31759780 31946868 32106738 32237082 32336268 
2596.880 32403954 32440976 32449402 32431800 32391102 32330166 32251682 
2600.255 32157972 32051514 31934172 31807694 31673166 31531516 31383288 
2603.630 31229238 31070436 30908772 30746176 30585132 30427880 30276050 
2607.005 30130594 29992252 29861016 29736988 29620162 29510280 29407058 
2610.381 29309708 29217484 29129566 29045600 28965614 28890498 28820846 
2613.756 28757578 28700936 28650640 28606222 28567224 28533856 28507000 
2617.131 28488390 28479970 28483578 28499960 28529044 28569632 28620060 
2620.506 28678460 28744018 28816136 28895528 28983360 29081382 29191046 
2623.882 29313394 29449076 29597566 29757854 29927962 30105734 30288768 
2627.257 30474866 30662500 30850430 31038012 31224324 31408400 31588492 
2630.632 31762384 31927716 32081802 32222666 32348014 32456436 32546316 
2634.007 32615996 32663684 32687798 32687154 32661256 32610104 32534744 
2637.383 32436908 32318958 32183450 32033504 31872514 31703678 31530588 
2640.758 31356468 31183986 31015628 30853170 30697918 30551040 30413664 
2644.133 30287136 30172326 30070758 29982880 29909362 29849872 29804376 
2647.508 29772118 29752708 29745896 29751358 29768818 29797950 29837876 
2650.884 29887778 29946420 30012170 30083894 30160214 30240100 30322486 
2654.259 30406806 30492140 30578022 30663672 30748666 30832502 30914714 
2657.634 30995342 31074528 31152908 31231160 31309996 31390414 31472876 
2661.009 31557988 31645902 31737038 31831726 31930532 32033894 32142312 
2664.385 32256034 32374892 32498426 32626104 32757320 32891720 33029168 
2667.760 33170056 33314564 33463166 33616188 33773668 33935576 34101772 
2671.135 34272048 34446264 34624212 34805644 34990456 35178396 35369512 
2674.510 35563408 35760416 35960212 36163012 36368508 36576800 36787680 
2677.885 37000972 37216464 37433616 37651636 37869260 38085256 38297740 
2681.261 38505472 38708128 38905844 39099368 39290188 39479856 39669388 
2684.636 39859876 40051684 40244848 40439516 40636232 40835372 41038028 
2688.011 41244928 41456704 41674164 41897204 42126056 42360728 42601116 
2691.386 42847564 43100556 43360980 43629580 43907368 44194908 44492400 
2694.762 44799428 45115240 45438196 45767024 46100272 46436976 46776412 
2698.137 47118116 47461712 47807132 48153976 48502020 48851092 49200700 
2701.512 49550516 49899980 50248128 50594168 50936656 51275008 51608400 
2704.887 51936632 52259476 52577056 52889036 53194904 53493720 53784528 
2708.263 54066712 54339692 54603228 54857256 55101620 55335956 55559500 
2711.638 55772044 55972632 56161360 56337792 56501884 56653200 56791128 
2715.013 56914364 57021884 57112268 57184680 57238280 57272456 57286180 
2718.388 57278620 57248828 57195416 57117408 57013836 56884300 56728484 
2721.764 56546680 56339188 56106988 55851508 55574260 55277320 54962576 
2725.139 54632008 54287692 53931900 53567628 53198800 52829980 52466480 
2728.514 52113192 51774408 51453348 51152056 50871384 50611964 50374284 
2731.889 50158864 49966624 49798372 49654664 49535548 49440152 49367088 
2735.265 49314600 49280340 49262268 49258072 49266052 49284500 49312336 
2738.640 49349160 49394596 49448356 49510328 49579632 49655404 49736732 
2742.015 49823380 49915776 50015772 50125836 50248984 50387980 50544920 
2745.390 50720208 50913628 51123504 51347796 51584632 51832200 52088724 
2748.766 52352612 52622460 52896816 53174756 53455716 53739452 54026112 
2752.141 54315852 54608184 54902072 55196120 55487848 55775436 56056768 
2755.516 56330624 56595596 56850948 57095828 57329280 57550108 57757344 
2758.891 57949424 58125752 58285328 58427908 58553996 58664764 58763156 
2762.267 58852388 58936860 59020700 59107172 59198032 59292940 59389800 
2765.642 59484708 59572796 59648816 59707052 59743016 59752600 59732908 
2769.017 59682228 59600200 59487672 59346268 59178100 58985592 58770520 
2772.392 58534892 58280480 58009480 57724192 57427368 57121864 56810880 
2775.768 56497052 56183608 55873440 55569520 55274804 54992508 54725056 
2779.143 54473992 54240648 54024984 53827244 53646692 53482964 53335108 
2782.518 53202172 53082228 52973212 52872868 52778756 52688776 52600992 
2785.893 52513932 52425284 52332280 52231596 52119096 51991420 51845604 
2789.269 51680276 51495760 51293128 51074340 50841100 50594692 50336256 
2792.644 50066156 49785700 49496444 49200400 48900184 48598548 48297488 
2796.019 47998672 47703316 47412112 47125280 46843436 46567008 46296880 
2799.394 46033844 45778624 45531944 45294228 45065468 44845312 44633676 
2802.770 44430184 44235116 44049224 43873604 43709856 43559756 43425016 
2806.145 43306576 43205400 43121044 43053280 43001404 42964016 42940316 
2809.520 42928756 42928244 42937644 42956592 42985196 43023792 43073624 
2812.895 43135352 43209060 43294380 43389460 43491996 43599468 43709452 
2816.271 43820456 43931012 44040680 44148944 44255472 44359828 44462008 
2819.646 44562148 44661144 44760052 44860484 44963812 45071016 45183140 
2823.021 45300628 45424364 45555640 45695940 45847552 46012624 46193276 
2826.396 46391180 46608248 46845428 47103860 47384656 47688484 48014916 
2829.771 48363000 48730564 49113648 49506988 49904404 50297752 50678088 
2833.147 51036588 51364056 51652844 51897724 52096080 52248300 52357324 
2836.522 52428012 52465248 52473740 52457476 52419672 52363676 52293036 
2839.897 52212840 52128360 52046476 51973268 51914828 51876740 51863112 
2843.272 51877784 51923716 52003036 52117152 52266500 52450332 52666108 
2846.648 52910140 53176892 53458532 53746128 54028960 54295160 54533532 
2850.023 54734788 54891920 55002436 55067768 55093492 55087892 55060808 
2853.398 55023196 54984648 54954228 54939672 54946668 54980024 55042868 
2856.773 55137132 55263588 55422152 55611808 55830896 56077200 56347828 
2860.149 56639156 56947040 57267276 57594972 57926288 58257136 58583724 
2863.524 58902628 59209732 59500820 59771572 60017500 60235132 60421488 
2866.899 60574788 60694112 60779856 60832948 60855668 60851204 60823724 
2870.274 60778560 60720676 60655404 60586676 60517652 60450852 60388476 
2873.650 60333536 60289908 60262232 60255076 60273120 60318840 60393808 
2877.025 60497160 60627592 60782564 60959624 61156368 61370452 61599488 
2880.400 61841068 62092756 62352468 62618540 62889904 63165808 63445756 
2883.775 63728960 64014448 64301096 64587972 64874380 65160060 65445028 
2887.151 65729656 66013692 66296644 66577576 66856028 67131288 67403360 
2890.526 67672544 67939256 68203928 68466624 68726880 68983992 69236592 
2893.901 69483232 69722032 69950664 70166552 70367856 70552504 70719240 
2897.276 70867800 70998256 71110760 71205304 71281072 71336992 71371752 
2900.652 71384360 71374480 71342848 71290880 71220640 71134496 71034624 
2904.027 70923616 70803752 70677448 70547240 70415704 70284952 70156968 
2907.402 70033112 69914656 69802464 69697408 69600480 69512352 69433504 
2910.777 69364224 69303944 69251512 69204688 69160392 69114384 69061712 
2914.153 68996880 68914280 68809256 68678560 68520432 68335416 68125816 
2917.528 67894824 67646720 67385528 67115048 66837520 66553980 66264108 
2920.903 65965824 65656000 65331408 64989580 64629384 64251884 63860164 
2924.278 63458948 63053460 62649004 62249552 61858028 61476292 61105068 
2927.654 60744760 60395176 60055772 59725720 59403820 59088948 58780532 
2931.029 58478400 58183408 57896948 57620700 57355820 57102932 56862200 
2934.404 56632780 56414192 56205704 56006896 55817144 55635836 55461604 
2937.779 55293016 55128176 54965736 54804892 54645312 54487476 54331920 
2941.155 54178968 54028960 53881820 53737392 53595596 53456392 53320008 
2944.530 53185988 53053844 52922564 52790652 52656796 52520180 52380684 
2947.905 52238996 52096420 51954860 51816408 51682848 51556572 51439360 
2951.280 51333328 51240744 51163832 51105352 51068228 51055596 51070244 
2954.656 51114444 51188700 51290856 51416196 51556832 51702368 51840524 
2958.031 51959900 52050060 52102956 52114608 52083828 52012708 51905604 
2961.406 51768624 51609260 51435368 51255172 51076576 50906288 50750332 
2964.781 50613232 50497800 50406136 50338940 50296152 50276248 50276808 
2968.156 50293768 50321676 50354748 50386192 50409448 50419084 50410528 
2971.532 50380648 50327624 50250992 50151200 50029980 49889908 49734312 
2974.907 49566744 49390920 49209936 49025992 48840152 48652688 48463308 
2978.282 48271344 48076352 47878676 47679388 47479304 47280348 47084104 
2981.657 46892044 46705644 46526696 46356932 46198580 46053996 45925220 
2985.033 45813416 45718800 45640212 45575512 45522044 45477744 45441692 
2988.408 45414360 45397620 45394088 45406448 45436024 45483448 45548096 
2991.783 45629132 45726344 45840592 45974536 46131696 46315308 46526920 
2995.158 46764384 47021480 47286444 47543292 47773916 47958408 48079388 
2998.534 48124656 48087904 47971436 47785344 47548240 47283044 47015532 
3001.909 46772540 46576820 46447004 46395384 46426652 46537504 46716012 
3005.284 46944240 47196712 47443860 47656756 47807392 47873716 47842940 
3008.659 47711412 47485104 47177800 46809336 46401248 45974500 45548616 
3012.035 45139060 44756964 44410104 44102400 43834824 43605912 43412784 
3015.410 43251336 43117276 43006488 42915440 42840724 42779984 42730996 
3018.785 42691840 42660876 42636644 42618004 42604076 42594064 42587228 
3022.160 42582844 42580100 42578240 42576408 42574252 42571404 42568224 
3025.536 42565340 42563288 42563144 42565408 42570160 42577176 42585436 
3028.911 42593548 42600460 42605172 42607656 42608424 42608864 42609776 
3032.286 42611972 42615040 42618112 42619136 42616796 42609928 42598376 
3035.661 42582916 42564352 42543264 42520020 42494004 42464408 42430980 
3039.037 42393676 42353712 42312548 42271788 42232456 42195064 42159244 
3042.412 42124780 42091700 42060784 42033332 42010740 41994352 41984644 
3045.787 41981320 41983476 41989900 41999792 42012492 42027932 42046112 
3049.162 42067208 42091120 42118320 42149460 42185824 42229024 42280664 
3052.538 42341696 42412272 42491484 42578056 42670712 42768912 42873164 
3055.913 42984940 43106188 43238668 43383056 43538844 43703480 43872724 
3059.288 44041044 44201068 44343976 44460352 44540052 44573020 44550880 
3062.663 44467808 44321080 44112008 43845892 43531772 43180624 42805840 
3066.039 42420856 42037716 41667780 41319884 40999680 40710828 40454356 
3069.414 40229508 40034132 39865724 39721592 39598856 39495348 39409100 
3072.789 39338104 39280720 39235492 39201040 39176276 39159884 39150348 
3076.164 39145996 39144724 39144292 39142372 39137256 39127464 39112856 
3079.540 39093604 39071160 39047232 39024036 39003736 38988152 38978980 
3082.915 38976876 38981988 38993732 39010696 39031284 39053324 39074788 
3086.290 39092768 39104044 39105168 39092152 39060940 39008772 38934036 
3089.665 38837140 38720480 38588464 38446320 38299476 38153192 38011472 
3093.041 37877500 37753040 37639208 37536560 37444956 37363844 37292316 
3096.416 37228848 37172032 37120056 37071120 37023704 36976260 36927484 
3099.791 36876584 36823168 36767092 36709108 36649980 36590784 36532324 
3103.166 36474692 36417832 36360760 36302724 36243220 36182352 36120452 
3106.542 36058376 35996640 35935628 35874876 35813704 35750920 35685880 
3109.917 35618292 35548416 35477112 35405712 35335472 35267692 35203188 
3113.292 35142364 35085172 35031040 34978780 34927324 34875292 34821796 
3116.667 34766804 34711024 34655612 34601964 34550948 34502548 34455696 
3120.042 34408640 34359076 34305468 34247168 34184860 34120124 34055612 
3123.418 33993188 33934320 33879544 33828320 33779828 33733056 33687292 
3126.793 33642536 33599184 33557696 33518534 33481706 33447098 33413712 
3130.168 33380826 33347334 33312384 33276178 33238798 33201136 33164584 
3133.543 33130288 33099320 33072002 33048294 33027414 33008434 32990522 
3136.919 32973040 32955668 32938472 32921568 32904766 32887432 32868848 
3140.294 32847908 32824036 32796874 32767254 32736134 32705124 32675758 
3143.669 32648928 32625142 32603994 32584778 32566566 32548674 32531030 
3147.044 32513674 32497286 32482538 32469790 32459292 32450582 32443014 
3150.420 32435514 32427374 32417878 32406562 32393530 32379250 32364148 
3153.795 32349120 32334912 32322134 32311462 32303252 32297648 32294546 
3157.170 32293618 32294116 32295506 32296828 32297614 32297794 32297398 
3160.545 32296900 32297042 32298256 32301146 32306000 32313284 32322920 
3163.921 32335698 32351974 32372500 32397636 32427982 32463114 32502536 
3167.296 32545600 32591746 32640930 32693476 32750570 32813780 32884576 
3170.671 32964640 33055018 33156536 33269416 33393924 33530240 33678304 
3174.046 33838424 34011212 34197336 34397704 34613736 34846500 35097452 
3177.422 35367284 35655732 35961580 36281796 36612412 36948516 37284592 
3180.797 37615144 37934700 38238392 38521588 38779384 39007688 39202312 
3184.172 39360124 39479236 39559440 39602520 39611672 39591564 39547284 
3187.547 39483992 39406668 39320220 39229216 39137836 39049628 38967384 
3190.923 38892472 38825072 38764172 38707476 38653220 38598712 38542512 
3194.298 38483172 38419852 38352024 38279536 38202716 38122184 38039680 
3197.673 37956724 37875548 37797900 37725104 37658216 37597872 37544476 
3201.048 37498704 37460992 37431632 37410684 37397320 37390096 37387104 
3204.424 37386740 37387464 37388728 37390568 37393712 37398912 37407184 
3207.799 37419532 37436616 37459300 37487940 37522872 37564092 37610808 
3211.174 37661936 37716252 37772380 37829784 37888348 37948624 38011436 
3214.549 38077548 38147256 38220084 38295168 38371680 38448600 38525604 
3217.925 38602408 38679476 38757616 38837392 38919504 39004604 39092952 
3221.300 39184324 39278400 39374160 39470748 39566880 39661584 39754272 
3224.675 39844512 39932520 40018472 40103024 40186832 40271020 40356608 
3228.050 40444864 40536736 40632708 40732444 40835120 40939456 41044216 
3231.426 41148752 41252836 41357128 41462612 41569652 41678176 41787532 
3234.801 41896988 42005484 42113208 42220588 42328840 42439308 42552584 
3238.176 42668336 42786204 42904580 43023024 43140952 43259060 43377964 
3241.551 43498152 43619832 43742472 43865468 43988356 44111276 44235404 
3244.927 44362068 44492660 44628352 44768756 44913028 45059844 45207520 
3248.302 45354912 45501808 45647980 45793496 45938660 46083356 46227404 
3251.677 46371200 46514968 46659896 46807192 46957936 47113020 47272628 
3255.052 47436132 47602368 47769960 47937280 48103188 48266860 48428004 
3258.427 48586724 48743352 48898144 49051808 49204708 49356876 49508588 
3261.803 49659716 49809928 49958860 50105792 50250024 50390508 50526868 
3265.178 50658244 50785044 50907816 51027680 51145716 51262740 51379420 
3268.553 51495424 51610040 51722076 51830520 51934544 52033776 52128100 
3271.928 52217920 52303500 52385696 52464652 52541120 52615468 52687804 
3275.304 52758212 52826276 52891728 52954192 53013488 53069984 53124236 
3278.679 53176928 53228724 53280188 53331472 53382876 53434360 53486000 
3282.054 53537720 53589448 53640804 53690932 53738704 53783556 53824844 
3285.429 53862804 53898248 53931712 53964016 53994968 54024384 54051140 
3288.805 54074704 54094896 54111896 54126760 54140496 54153784 54167184 
3292.180 54180396 54193644 54206784 54220412 54234828 54251156 54269180 
3295.555 54288852 54309240 54329068 54347204 54363088 54376308 54386672 
3298.930 54394256 54398500 54399216 54396096 54388888 54378372 54365416 
3302.306 54351860 54338980 54328580 54321744 54319116 54320996 54327488 
3305.681 54338004 54351896 54368232 54386072 54404624 54423928 54444320 
3309.056 54466668 54491800 54520308 54552168 54586996 54623780 54661992 
3312.431 54701640 54743660 54788992 54839064 54894028 54953924 55017440 
3315.807 55083488 55150332 55218136 55287072 55358312 55433148 55512888 
3319.182 55597948 55688752 55784364 55883988 55986052 56089416 56192396 
3322.557 56293732 56392344 56488112 56581440 56673248 56764692 56856160 
3325.932 56948064 57039300 57128856 57215220 57297712 57376016 57450440 
3329.308 57521092 57587748 57650176 57707128 57757724 57801704 57839104 
3332.683 57870712 57897288 57919248 57936136 57946924 57950408 57945596 
3336.058 57932120 57910728 57882336 57847848 57807836 57762036 57710152 
3339.433 57651464 57585820 57513336 57434784 57350716 57261832 57168200 
3342.809 57069948 56966948 56859560 56748080 56632700 56513580 56390196 
3346.184 56261672 56127120 55985940 55838468 55685592 55528960 55370848 
3349.559 55212752 55056108 54901548 54749300 54598904 54450032 54301880 
3352.934 54153484 54004160 53853012 53700044 53545292 53389472 53233328 
3356.310 53077772 52922868 52768800 52615016 52461396 52308208 52156004 
3359.685 52005724 51858632 51714948 51574336 51435592 51297228 51158092 
3363.060 51018032 50877456 50737932 50600872 50467464 50337820 50211044 
3366.435 50085972 49960940 49834756 49707416 49578628 49449432 49320020 
3369.811 49190940 49061972 48933076 48804004 48675412 48547408 48421004 
3373.186 48296896 48175560 48056664 47939944 47824516 47709304 47593936 
3376.561 47478196 47362852 47248832 47137096 47028788 46924048 46822360 
3379.936 46722136 46621564 46518324 46410980 46298868 46182624 46064236 
3383.312 45945840 45830172 45718908 45613600 45513876 45419176 45328104 
3386.687 45239068 45151228 45064032 44977704 44892560 44809236 44727692 
3390.062 44647300 44567072 44485720 44402140 44316048 44228032 44139296 
3393.437 44051680 43966244 43883612 43802828 43722024 43639324 43553016 
3396.813 43462808 43369616 43275860 43183808 43095244 43010844 42929524 
3400.188 42849648 42768616 42684896 42597388 42506244 42411908 42315288 
3403.563 42216900 42116600 42014644 41911108 41806536 41702500 41600096 
3406.938 41500852 41405128 41312012 41220192 41127148 41030892 40929844 
3410.313 40823396 40712136 40597524 40481484 40365332 40250228 40136244 
3413.689 40022944 39909164 39794216 39677156 39557732 39436492 39313548 
3417.064 39189076 39062896 38934544 38803080 38668180 38529844 38389484 
3420.439 38249392 38111984 37979756 37854616 37736524 37624756 37517272 
3423.814 37411476 37305208 37196288 37084004 36968032 36848848 36727028 
3427.190 36603512 36478804 36353160 36226472 36098704 35969464 35838568 
3430.565 35706276 35572904 35439508 35307476 35177676 35051228 34928756 
3433.940 34810492 34696272 34585604 34477652 34371484 34266312 34161056 
3437.315 34055112 33948008 33839356 33729224 33617620 33504684 33390488 
3440.691 33275462 33159826 33044468 32930538 32819174 32711018 32605782 
3444.066 32501962 32396708 32286904 32170176 32045558 31914412 31779744 
3447.441 31645902 31516768 31394474 31278980 31168358 31059510 30949618 
3450.816 30837124 30722064 30606038 30490790 30377738 30267418 30158828 
3454.192 30050836 29942160 29832092 29720738 29608988 29497620 29387346 
3457.567 29278196 29169750 29061258 28951802 28840674 28727558 28612346 
3460.942 28495218 28376672 28257736 28139256 28022504 27908186 27796722 
3464.317 27687304 27579252 27471086 27362066 27251628 27140086 27027622 
3467.693 26914906 26801548 26687692 26572598 26456372 26339402 26222288 
3471.068 26106228 25991428 25878066 25764802 25650268 25533306 25413670 
3474.443 25292238 25171334 25053762 24942084 24838046 24741960 24652630 
3477.818 24567700 24483874 24397612 24305828 24205762 24096366 23977860 
3481.194 23852596 23724182 23597136 23475898 23363154 23259530 23163164 
3484.569 23070802 22978182 22881566 22778998 22670242 22557044 22441782 
3487.944 22327214 22215362 22107130 22002690 21901306 21802350 21705470 
3491.319 21610702 21518218 21428226 21340930 21255496 21171404 21087290 
3494.695 21002082 20915290 20827230 20738980 20652100 20568472 20489548 
3498.070 20415602 20345594 20277334 20207454 20132724 20050374 19959194 
3501.445 19859082 19752234 19641424 19531232 19425676 19328494 19242038 
3504.820 19166954 19101648 19043034 18986400 18927110 18860940 18785578 
3508.196 18700924 18608988 18514132 18420578 18332398 18251876 18179416 
3511.571 18113638 18052496 17993574 17934626 17874304 17811610 17746128 
3514.946 17678138 17607846 17535734 17462912 17390414 17319582 17251450 
3518.321 17186570 17124974 17066212 17008976 16950814 16889872 16824012 
3521.697 16751619 16672868 16589245 16503984 16421149 16344110 16274756 
3525.072 16212497 16154066 16095091 16031139 15959326 15879275 15793227 
3528.447 15704997 15618844 15537277 15461219 15390391 15323214 15258587 
3531.822 15195926 15135571 15077662 15021405 14965054 14906241 14842670 
3535.198 14773555 14699618 14623466 14549041 14479972 14418622 14365396 
3538.573 14319986 14280298 14244928 14212299 14181487 14150952 14119323 
3541.948 14083693 14041459 13989752 13926759 13852214 13767147 13674404 
3545.323 13577817 13482003 13391781 13311518 13244218 13191069 13150869 
3548.698 13119620 13091754 13060817 13020868 12968327 12902718 12826403 
3552.074 12744915 12664124 12589624 12525573 12472887 12430912 12397772 
3555.449 12370395 12345134 12319159 12289505 12253818 12211218 12161670 
3558.824 12106506 12048215 11989421 11933223 11882276 11838146 11802872 
3562.199 11776418 11758443 11745336 11732026 11710002 11669633 11602144 
3565.575 11502342 11371814 11219802 11062508 10919098 10804778 10727981 
3568.950 10687670 10675954 10680403 10688858 10692560 10686175 10668381 
3572.325 10640502 10605529 10566451 10525746 10484944 10444689 10405184 
3575.700 10365920 10326117 10285198 10242552 10198113 10153542 10109927 
3579.076 10070181 10036305 10009721 9990632 9978562 9972256 9970561 9972121 
3582.933 9975375 9978257 9976765 9964933 9935675 9881607 9797552 9683019 
3586.791 9544061 9393263 9247729 9125355 9038469 8992495 8984580 9005451 
3590.648 9041851 9079914 9108741 9119433 9108301 9076023 9027102 8968445 
3594.505 8908104 8853285 8808818 8777001 8757764 8748365 8744476 8740758 
3598.363 8731866 8713205 8682308 8639482 8587873 8533769 8483220 8442136 
3602.220 8414130 8399569 8396732 8402036 8411934 8421595 8426899 8422676 
3606.078 8403657 8364709 8303541 8221613 8125927 8027698 7939849 7872161 
3609.935 7827391 7800807 7782759 7761913 7729633 7684438 7631695 7582801 
3613.792 7549085 7538094 7549961 7578013 7609068 7628558 7624343 7587623 
3617.650 7516281 7414818 7295049 7172516 7064230 6984994 6943715 6941123 
3621.507 6971762 7025402 7090701 7157661 7221195 7280493 7337709 7395237 
3625.365 7450749 7495043 7511460 7478559 7376734 7198691 6959506 6698614 
3629.222 6467237 6311351 6250337 6274338 6354218 6455668 6549809 6617258 
3633.080 6652113 6658237 6646461 6628495 6612750 6602085 6594550 6586408 
3636.937 6574870 6559834 6543620 6529392 6519570 6514054 6510725 6506856 
3640.794 6500836 6493336 6488156 6490981 6507294 6539954 6588663 6648143 
3644.652 6710257 6764234 6799034 6804756 6773994 6702854 6591421 6444469 
3648.509 6270170 6082029 5897899 5737718 5622203 5567125 5578335 5650902 
3652.367 5768809 5909453 6045237 6151320 6207581 6203313 6141339 6038450 
3656.224 5922351 5820991 5754573 5729962 5741243 5774350 5814141 5849268 
3660.082 5872945 5883524 5883423 5876370 5866127 5856286 5849670 5849268 
3663.939 5857529 5877277 5909621 5954026 6006701 6061163 6107768 6133912 
3667.796 6127292 6077694 5982110 5849133 5701828 5574274 5498229 5494303 
3671.654 5560883 5676784 5805410 5904012 5934712 5869687 5705421 5469036 
3675.511 5217488 5013847 4899597 4882406 4939174 5033958 5132687 5214503 
3679.369 5272320 5311160 5341315 5373485 5412971 5459238 5508832 5558533 
3683.226 5608743 5662920 5725061 5795941 5869519 5932562 5968673 5960577 
3687.083 5897999 5781972 5628278 5461822 5309550 5191231 5114013 5074118 
3690.941 5062686 5071972 5096412 5133894 5182747 5239655 5299387 5355471 
3694.798 5402235 5437228 5461386 5479974 5499504 5524638 5556453 5590820 
3698.656 5620290 5635764 5629923 5599580 5547962 5483733 5419312 5367983 
3702.513 5340409 5341550 5370734 5423539 5492356 5568770 5645868 5717910 
3706.371 5781132 5833652 5874859 5903743 5919261 5918354 5896690 5849570 
3710.228 5774216 5671917 5550546 5425015 5313407 5233249 5196596 5206119 
3714.085 5256624 5335981 5430115 5525443 5610690 5679168 5728351 5759475 
3717.943 5775424 5780360 5776532 5765150 5746515 5720495 5688634 5654259 
3721.800 5622471 5598003 5584107 5580751 5584544 5589108 5588337 5578335 
3725.658 5559876 5539404 5527289 5535444 5571455 5636469 5722744 5816928 
3729.515 5901258 5959166 5980262 5961921 5912442 5847017 5782375 5728989 
3733.373 5685815 5642477 5584343 5501920 5397840 5288016 5196864 5148311 
3737.230 5153442 5209976 5305256 5423774 5553063 5686721 5822737 5958931 
3741.087 6087203 6190877 6243278 6213867 6079945 5842719 5542257 5251057 
3744.945 5051658 4992731 5071738 5245020 5455178 5648687 5783080 5836372 
3748.802 5805309 5705118 5562426 5406261 5260280 5138387 5048607 4997524 
3752.660 4990719 5031143 5114985 5231237 5361978 5487860 5592834 5666579 
3756.517 5706058 5715425 5702399 5674468 5637375 5594881 5551385 5513866 
3760.375 5493061 5498866 5536619 5602333 5683935 5763437 5822099 5848226 
3764.232 5839965 5807358 5768239 5741747 5739833 5762127 5797351 5827943 
3768.089 5837984 5818003 5769078 5701996 5634791 5584208 5561319 5568904 
3771.947 5602198 5652111 5708643 5763974 5813301 5854977 5889905 5919764 
3775.804 5945629 5966053 5977507 5974081 5951407 5907539 5846883 5778983 
3779.662 5719152 5680980 5672924 5694644 5737349 5787445 5830226 5854977 
3783.519 5857059 5839461 5809742 5777472 5751249 5735099 5729257 5731776 
3787.376 5740303 5752525 5767399 5783483 5799500 5813436 5824316 5832678 
3791.234 5841678 5855547 5877848 5909285 5945662 5978179 5996320 5991752 
3795.091 5962290 5914894 5864783 5831570 5830965 5868276 5935518 6013958 
3798.949 6076686 6095839 6051990 5940019 5777036 5599278 5454776 5382408 
3802.806 5397270 5487860 5623042 5764914 5874187 5922586 5897462 5807122 
3806.664 5678899 5552929 5466989 5440784 5473465 5547290 5640799 5735234 
3810.521 5820958 5897832 5971696 6048093 6126452 6197902 6245597 6251043 
3814.378 6199851 6092008 5945763 5798526 5692025 5655837 5697397 5799433 
3818.236 5928498 6043792 6109482 6100207 6009221 5853331 5671782 5514470 
3822.093 5420251 5405724 5461721 5563332 5678429 5778748 5846849 5877143 
3825.951 5876605 5860988 5849335 5855547 5884464 5930647 5982816 6028136 
3829.808 6056661 6064691 6055182 6037106 6020375 6014462 6025044 6052628 
3833.666 6093520 6139995 6182676 6210472 6212724 6181668 6114825 6017855 
3837.523 5904180 5793456 5705387 5653017 5639557 5659160 5699713 5746783 
3841.380 5789393 5820353 5837379 5843189 5842618 5842450 5849167 5868142 
3845.238 5903206 5955908 6025716 6109919 6205229 6307485 6413901 6522396 
3849.095 6630446 6733206 6821315 6877966 6879751 6801256 6621429 6338920 
3852.953 5983521 5619350 5320317 5141874 5099395 5171112 5316895 5495712 
3856.810 5677389 5843088 5983790 6097889 6186676 6252152 6295685 6318647 
3860.667 6323454 6313368 6292727 6264455 6228824 6185197 6133206 6076820 
3864.525 6027094 5999445 6008649 6061197 6150682 6256656 6348939 6398400 
3868.382 6382428 6296996 6160192 6010800 5893197 5836573 5846816 5904986 
3872.240 5981807 6047085 6082533 6085557 6069294 6055081 6062910 6104408 
3876.097 6177602 6268993 6359059 6428193 6460747 6448000 6390330 6298643 
3879.955 6192961 6096612 6032671 6015369 6045774 6111901 6191045 6257329 
3883.812 6285600 6260657 6183248 6073393 5965515 5895649 5889637 5951440 
3887.669 6065531 6202237 6330582 6422779 6461083 6441880 6375097 6283011 
3891.527 6190776 6121041 6086868 6090732 6126956 6186071 6258640 6336163 
3895.384 6411480 6479580 6534942 6572818 6589335 6582574 6553476 6507125 
3899.242 6451498 6395508 6346518 6307317 6275784 6245194 6207111 6155924 
3903.099 6090967 6018594 5950164 5899478 5877713 5889099 5931488 5996220 
3906.957 6073427 6152900 6227480 6293298 6348939 6394902 6431791 6460814 
3910.814 6482943 6500365 6516140 6533933 6556335 6583717 6613288 6639362 
3914.671 6654872 6654031 6634450 6598452 6551592 6502383 6458258 6423351 
3918.529 6398938 6384243 6378225 6380982 6393356 6416020 6448236 6486004 
3922.386 6522900 6551626 6566326 6565417 6552030 6532890 6516577 6510489 
3926.244 6517519 6536859 6564240 6594348 6622136 6644072 6658371 6663654 
3930.101 6659381 6645115 6621295 6590177 6555763 6524145 6501442 6491721 
3933.958 6496396 6513011 6536859 6561919 6583919 6600504 6612144 6621396 
3937.816 6631186 6644072 6659919 6676608 6690269 6696528 6692052 6675296 
3941.673 6648110 6614634 6581295 6554182 6538709 6537128 6548431 6568916 
3945.531 6592767 6614735 6630177 6636973 6635526 6628394 6618704 6609588 
3949.388 6602960 6599125 6597880 6598721 6601514 6606896 6615576 6627721 
3953.246 6642895 6659515 6675396 6688250 6696460 6699590 6698210 6693600 
3957.103 6687072 6679703 6672167 6664831 6657766 6651037 6645216 6640539 
3960.960 6637343 6636031 6636704 6639866 6645620 6654569 6666615 6681420 
3964.818 6698142 6715439 6732062 6747037 6759792 6770898 6780725 6789712 
3968.675 6798260 6805766 6811387 6814820 6815459 6814113 6811790 6810074 
3972.533 6809872 6811588 6814921 6818758 6821820 6823200 6822427 6820137 
3976.390 6817377 6814954 6814651 6816368 6820137 6825287 6830504 6834442 
3980.248 6836361 6835520 6832356 6827980 6823470 6819767 6817613 6816873 
3984.105 6817007 6817310 6817209 6816806 6816906 6818320 6822494 6829596 
3987.962 6839593 6851542 6864367 6876923 6888133 6897896 6906043 6912338 
3991.820 6916681 6918903 6918701 6916512 6913449 6910419 6909510 6911900 
3995.677 6918128 6928195 6940955 6955466 6970415 6985331 6999709 7013649 
3999.535 7026884 7038838 7048705 
##END=
