
##TITLE=Z361_3_d
##JCAMP-DX=5.01  $$ Nicolet v. 1
##DATATYPE=INFRARED SPECTRUM
##ORIGIN=UniL
##OWNER=Nicolet
##LONGDATE=2011/09/14
##TIME=13:38:06
##SPECTROMETER/DATA SYSTEM=Nicolet iS5
##DATA PROCESSING=
Ratio against background
%Transmittance->Absorbance
Truncated
ElementMultiply or ElementDivide
##COMMENTS=
Number of sample scans: 32
Collection length: 51.23 sec
Sample gain: 2.0
Background collected on: Mer Sep 14 13:30:21 2011 (GMT+02:00);
Number of background scans: 32
Background gain: 2.0
Sample spacing:  1.000
Number of scan points: 12415
Resolution points: 8192
Number of FFT points: 65536
Apodization: N-B fort;
Phase correction: Mertz;
Laser frequency: 15798.0 cm-1
Number of rejected sample scans: 0
Number of rejected background scans: 0
Bench serial number: ASB1000141;
##RESOLUTION=4.000
##XUNITS=1/CM
##YUNITS=ABSORBANCE
##FIRSTX=649.893372
##LASTX=4000.122314
##FIRSTY=0.095993
##MAXX=4000.122314
##MINX=649.893372
##MAXY=0.209941
##MINY=0.001881
##XFACTOR=1.000000
##YFACTOR=1.000000E-009
##NPOINTS=6950
##DELTAX=0.482117
##ZPD=6100
##XYDATA=(X++(Y..Y))
649.893 95993040 96237296 96563896 96950608 97362776 97770152 98159016 
653.268 98539288 98939112 99390664 99913744 100509328 101158256 101833368 
656.643 102509536 103172976 103821944 104459696 105089024 105704808 
659.536 106297680 106860008 107388816 107890192 108372960 108844568 
662.428 109308720 109767560 110226424 110701160 111216864 111803040 
665.321 112484496 113270384 114144752 115060696 115959320 116801432 
668.214 117618256 118511304 119633600 121147304 123185912 125883240 
671.107 129365576 133732496 139021040 145141184 151844400 158655136 
673.999 164919616 169915648 172908672 173384224 171182464 166563888 
676.892 160147968 152743488 145189184 138116672 131916912 126733704 
679.785 122500216 119023864 116056952 113378184 110809168 108236184 
682.677 105609896 102926096 100213376 97515128 94881072 92355064 89967768 
686.052 87741536 85689984 83820648 82139152 80647784 79344008 78218696 
689.427 77256424 76436768 75735824 75131600 74604312 74137784 73720800 
692.802 73344336 73001368 72685536 72391080 72112504 71846336 71590656 
696.177 71345304 71112480 70894864 70695616 70516952 70359368 70221192 
699.551 70099064 69988064 69883168 69780048 69675320 69567264 69455704 
702.926 69340672 69222752 69101768 68977432 68848192 68712408 68568040 
706.301 68412672 68244672 68062992 67867776 67660696 67445120 67224384 
709.676 67002380 66781484 66562556 66344200 66123992 65898104 65663084 
713.051 65415024 65149664 64862496 64549296 64206936 63835220 63437700 
716.425 63021852 62597448 62173804 61756680 61347136 60941744 60534568 
719.800 60120308 59698040 59271140 58844916 58424456 58011336 57602312 
723.175 57191032 56770204 56335040 55885008 55423548 54955316 54485712 
726.550 54018644 53557584 53107500 52675800 52271432 51903548 51577692 
729.925 51293468 51044156 50819828 50610628 50410788 50219004 50038304 
733.300 49872808 49725880 49599204 49493732 49412492 49359960 49342364 
736.674 49364564 49427452 49528492 49663688 49831744 50039012 50299020 
740.049 50631996 51059060 51597356 52260184 53060924 54019204 55172496 
743.424 56581704 58330540 60539176 63358604 66969016 71596904 77481960 
746.799 84845200 93831240 104414304 116304744 128833352 141017392 151575760 
750.174 159118736 162544336 161238656 155315824 145554256 133238632 
753.066 119816584 106512224 94277760 83649440 74792608 67638400 61971516 
756.441 57539668 54093620 51432232 49399756 47864208 46719148 45874064 
759.816 45251572 44798436 44480688 44280496 44190796 44207340 44326252 
763.191 44546072 44869340 45305336 45867360 46569368 47421352 48427304 
766.566 49589028 50911468 52408536 54107204 56040632 58238496 60713396 
769.940 63446024 66378832 69407072 72396320 75188568 77612128 79513840 
773.315 80760624 81252496 80939872 79824248 77964352 75465104 72473448 
776.690 69155608 65666592 62153388 58736340 55504828 52530012 49858356 
780.065 47512276 45492644 43778676 42333732 41110612 40064000 39155856 
783.440 38357528 37651528 37025760 36469904 35973100 35523748 35111108 
786.815 34728864 34374280 34048372 33753184 33488792 33252214 33039038 
790.189 32843724 32662254 32493036 32335486 32188694 32051086 31919050 
793.564 31789370 31660978 31535044 31415738 31307396 31213608 31134432 
796.939 31067408 31008936 30955810 30907244 30864340 30828872 30801838 
800.314 30782204 30767160 30753930 30741054 30729426 30721672 30720606 
803.689 30726972 30739420 30754426 30768868 30781884 30795472 30813898 
807.063 30842320 30883514 30937700 31001820 31072606 31147070 31224502 
810.438 31305686 31391874 31482246 31574238 31663186 31744384 31815290 
813.813 31875760 31927786 31973898 32015488 32051980 32081410 32102492 
817.188 32115694 32124862 32135564 32153014 32180418 32217562 32261424 
820.563 32308642 32356724 32406058 32459472 32520640 32591638 32672792 
823.938 32762182 32857556 32957848 33064742 33181820 33313922 33464632 
827.312 33635128 33823880 34027944 34243940 34469080 34701764 34940752 
830.687 35184832 35432744 35683576 35938328 36200432 36475308 36769436 
834.062 37086424 37425708 37780728 38140308 38489688 38814636 39104552 
837.437 39352868 39558136 39723192 39853556 39957440 40045432 40132828 
840.812 40237504 40380492 40585264 40872868 41262492 41770860 42410556 
844.186 43193724 44132368 45238444 46526032 48010512 49706856 51630680 
847.561 53795252 56208612 58869848 61762908 64851068 68064504 71297832 
850.936 74411336 77220928 79529000 81142488 81891784 81675064 80471080 
854.311 78352736 75474208 72060904 68386024 64711788 61285164 58301132 
857.686 55877772 54071328 52876608 52247176 52109568 52379972 52978752 
861.060 53825180 54844852 55967808 57119372 58226524 59219032 60028268 
864.435 60598792 60890776 60882160 60572696 59983260 59154744 58139732 
867.810 57001216 55803276 54599016 53431060 52326560 51298312 50351288 
871.185 49486752 48704912 48007404 47395708 46869528 46425248 46056720 
874.560 45755720 45513692 45323872 45180460 45078992 45015516 44985528 
877.935 44984464 45009160 45057672 45129980 45227264 45350756 45501292 
881.309 45678344 45880436 46106644 46356820 46631708 46932136 47258476 
884.684 47609100 47980872 48370224 48773640 49189456 49617812 50059460 
888.059 50514772 50982296 51458232 51937232 52414252 52885400 53349268 
891.434 53806692 54259228 54707468 55150936 55587328 56014320 56430908 
894.809 56838260 57239720 57640604 58046288 58462024 58892764 59344024 
898.183 59822640 60338332 60902248 61526568 62223168 63002088 63871376 
901.558 64838180 65908940 67088984 68381984 69787520 71296184 72886608 
904.933 74524808 76159448 77724736 79149152 80350944 81251336 81782608 
908.308 81889336 81541552 80740264 79523192 77962368 76158584 74237344 
911.683 72323712 70537224 68984416 67743256 66869244 66393464 66321232 
915.058 66634588 67289024 68218312 69325480 70488896 71579400 72458600 
918.432 73008064 73150272 72855336 72153616 71124576 69891264 68589224 
921.807 67344624 66264836 65416216 64828872 64503088 64419644 64551184 
925.182 64869688 65353552 65985648 66754392 67653728 68682400 69845808 
928.557 71155880 72632112 74299656 76186656 78325112 80749288 83495656 
931.932 86606632 90128064 94106000 98585224 103598792 109160824 115256368 
935.306 121837048 128812672 136043968 143363088 150569536 157450224 
938.199 163819072 169524320 174481168 178687344 182230912 185283152 
941.092 188056720 190791648 193685696 196841680 200229872 203654160 
943.985 206764736 209049632 209941216 208902192 205498976 199540816 
946.877 191110768 180579984 168520816 155637600 142663184 130202768 
949.770 118735496 108568920 99829968 92528144 86579448 81851168 78178904 
953.145 75388632 73314488 71788712 70662480 69816392 69155104 68620504 
956.520 68185008 67841512 67594416 67449800 67410712 67475616 67640520 
959.894 67900440 68249872 68681048 69182304 69739232 70336304 70960688 
963.269 71606200 72273304 72967032 73691896 74448888 75233408 76038600 
966.644 76858504 77692720 78546720 79431008 80354648 81323336 82338680 
970.019 83401648 84516576 85695360 86954360 88309400 89766896 91318552 
973.394 92939624 94595320 96254248 97895168 99515568 101129816 102764072 
976.768 104447600 106205680 108060520 110030832 112134408 114391920 
979.661 116825888 119465344 122356408 125568776 129205600 133402480 
982.554 138286208 143927776 150259136 157024224 163720624 169621552 
985.447 173951760 175986816 175295952 171884048 166209616 159075824 
988.339 151371856 143963088 137471232 132216992 128275800 125523256 
991.232 123740536 122679576 122136528 121962304 122049544 122326152 
994.125 122734080 123223224 123758824 124321376 124906136 125515568 
997.017 126148000 126789392 127416400 128001376 128524464 128981472 
999.910 129382448 129744352 130080624 130395904 130686256 130946848 
1002.803 131179648 131398424 131624608 131881040 132180336 132521600 
1005.695 132892208 133277536 133669256 134071248 134496816 134961600 
1008.588 135474368 136031200 136617920 137216016 137812768 138403536 
1011.481 138991376 139580272 140168800 140747632 141303840 141829280 
1014.374 142327584 142817600 143329312 143893392 144532480 145258752 
1017.266 146075280 146985328 148000512 149142800 150443312 151934512 
1020.159 153641472 155582112 157769168 160214224 162927792 165907488 
1023.052 169119952 172468896 175782032 178825360 181306624 182952192 
1025.945 183567072 183073488 181541456 179166160 176238416 173060976 
1028.838 169911296 167010240 164485136 162386752 160696928 159352240 
1031.731 158261888 157327168 156464944 155608816 154718208 153777936 
1034.624 152789376 151764544 150717568 149665296 148626352 147623872 
1037.517 146690144 145863376 145183200 144689232 144412752 144377728 
1040.410 144602336 145097872 145866992 146894608 148140064 149523664 
1043.303 150923424 152197488 153192112 153780544 153897552 153549264 
1046.196 152818048 151834432 150761680 149753504 148927200 148362048 
1049.089 148087808 148095744 148346640 148785248 149349232 149972336 
1051.982 150596544 151172272 151658960 152029008 152261696 152341120 
1054.875 152255344 151994864 151555808 150941392 150162992 149236928 
1057.768 148178368 146997776 145696704 144270176 142711312 141018400 
1060.661 139198960 137271552 135261584 133195888 131100280 128995120 
1063.554 126896728 124820968 122782744 120797304 118878896 117036632 
1066.448 115275112 113594008 111990992 110464248 109014464 107644232 
1069.341 106356552 105151872 104026800 102974688 101987088 101056632 
1072.234 100177944 99347096 98560112 97809536 97085248 96374320 95663936 
1075.609 94945184 94215144 93476728 92736568 92003392 91285928 90591976 
1078.984 89930352 89311888 88748776 88254664 87841352 87516416 87282936 
1082.359 87140080 87085408 87117488 87236840 87445776 87745472 88133616 
1085.735 88603000 89140088 89729048 90352264 90992840 91636040 92268888 
1089.110 92878928 93457336 93998736 94505928 94990288 95474208 95988128 
1092.485 96564808 97240072 98048536 99022840 100199688 101620112 103329776 
1095.860 105384480 107842872 110763504 114201600 118193000 122741152 
1098.753 127791392 133217064 138792432 144176576 148966704 152707696 
1101.646 154974768 155483712 154131184 151044304 146534096 141059168 
1104.540 135119600 129150328 123514944 118446184 114052712 110354736 
1107.433 107303880 104817768 102794968 101137512 99754968 98563104 97493104 
1110.808 96486968 95496368 94486488 93430624 92310024 91115104 89844520 
1114.183 88507440 87121376 85711856 84308000 82935808 81618200 80370280 
1117.558 79200512 78112944 77108760 76187800 75348232 74585576 73891784 
1120.934 73254512 72658432 72087816 71527280 70964736 70390696 69798024 
1124.309 69181488 68537736 67865960 67168656 66453308 65731736 65017872 
1127.684 64328076 63678420 63082844 62554972 62107052 61749996 61494500 
1131.059 61349308 61320804 61413384 61629848 61972664 62447224 63062004 
1134.435 63829920 64767980 65893636 67224112 68774664 70556128 72576304 
1137.810 74838512 77341112 80074144 83016064 86133176 89371552 92659040 
1141.185 95909520 99013480 101849000 104288080 106193072 107442912 107948176 
1144.560 107666048 106620000 104901592 102668736 100110888 97437248 94853576 
1147.936 92524944 90583856 89119504 88177456 87773576 87899808 88535024 
1151.311 89649784 91212872 93195136 95566520 98295608 101344368 104653224 
1154.686 108135016 111665904 115068080 118130584 120615784 122271304 
1157.579 122884656 122297872 120439240 117343584 113152952 108106584 
1160.472 102485792 96601608 90742792 85127840 79917432 75195696 70982024 
1163.847 67252160 63953212 61023076 58396332 56015492 53833512 51810136 
1167.223 49915144 48126176 46426872 44807952 43265792 41800776 40416276 
1170.598 39117964 37913440 36811628 35824248 34965496 34249424 33688584 
1173.973 33288486 33043112 32929574 32908018 32926430 32922174 32835398 
1177.348 32619532 32245398 31709056 31030680 30252816 29429750 28620874 
1180.724 27885078 27269090 26807786 26522618 26419610 26491026 26714188 
1184.099 27054916 27464768 27884726 28255330 28515988 28617406 28530566 
1187.474 28247836 27786198 27181178 26484300 25750494 25030806 24369852 
1190.849 23797922 23332002 22977658 22730988 22582314 22518480 22525914 
1194.225 22590898 22700334 22843182 23009624 23191544 23383156 23579644 
1197.600 23777516 23973870 24166352 24352646 24531202 24700538 24859168 
1200.975 25005220 25136364 25249814 25342218 25410578 25452490 25465594 
1204.350 25447958 25397158 25309800 25181410 25007922 24786020 24514830 
1207.726 24197214 23839818 23453270 23049594 22642872 22246436 21871476 
1211.101 21527758 21222652 20960910 20745478 20577226 20454952 20375910 
1214.476 20336498 20333198 20363132 20424320 20516120 20638028 20789238 
1217.851 20968316 21173144 21401736 21652598 21925176 22219792 22537324 
1221.227 22878456 23243414 23631980 24043834 24478826 24937066 25419114 
1224.602 25924948 26454364 27006114 27578936 28171674 28784378 29418368 
1227.977 30076188 30761220 31477540 32229342 33020910 33856300 34739092 
1231.352 35671164 36652500 37679460 38745656 39840408 40950672 42061844 
1234.728 43156800 44218128 45229176 46173708 47039644 47820524 48517288 
1238.103 49139140 49702660 50231760 50752940 51295588 51890480 52565872 
1241.478 53349496 54266776 55338176 56579932 58002396 59610044 61402548 
1244.853 63376924 65529792 67858984 70365128 73050568 75919208 78975360 
1248.229 82223352 85667424 89311280 93156000 97197256 101422624 105806080 
1251.604 110303600 114855824 119379328 123762040 127870504 131532792 
1254.497 134544016 136694432 137767392 137581920 136027776 133074256 
1257.390 128785624 123306096 116856888 109701872 102119064 94401856 86809600 
1260.765 79555896 72808432 66666616 61176740 56342096 52134336 48506284 
1264.140 45400232 42758340 40521640 38633516 37045212 35711452 34593248 
1267.516 33659688 32883432 32242082 31718038 31295468 30961860 30707164 
1270.891 30522746 30401654 30337870 30325186 30358302 30431932 30541192 
1274.266 30682734 30854022 31054028 31282860 31541672 31832010 32155118 
1277.641 32511354 32898978 33313956 33748960 34193964 34637992 35069760 
1281.017 35480924 35867752 36232272 36582460 36929940 37288272 37668112 
1284.392 38074548 38504824 38949224 39392920 39819528 40216712 40579480 
1287.767 40912152 41227332 41544456 41886076 42272664 42723136 43252216 
1291.142 43870052 44584180 45399348 46317044 47335768 48449452 49648124 
1294.518 50916012 52233912 53580152 54930536 56262240 57554532 58790056 
1297.893 59957964 61054724 62084268 63056296 63985468 64888120 65779196 
1301.268 66673532 67584776 68525944 69511000 70553160 71662824 72845544 
1304.643 74098760 75411024 76760160 78114688 79435696 80672960 81770488 
1308.019 82667176 83297072 83602808 83539304 83082544 82234800 81024472 
1311.394 79503608 77735824 75795032 73756608 71686896 69648560 67695928 
1314.769 65873308 64223536 62785672 61594376 60681768 60067872 59754504 
1318.144 59717052 59901444 60225232 60577192 60840456 60901792 60664736 
1321.520 60071144 59102428 57782364 56168072 54343148 52404912 50443800 
1324.895 48543484 46769108 45161008 43742284 42518924 41486052 40631980 
1328.270 39942076 39400936 38991700 38697988 38503880 38393648 38353252 
1331.645 38369832 38430572 38523868 38638296 38763120 38890152 39013776 
1335.021 39131636 39244888 39357004 39473288 39599256 39741204 39906548 
1338.396 40103316 40342936 40638308 41002196 41447008 41980300 42603492 
1341.771 43309576 44081932 44893256 45701720 46456628 47098948 47565840 
1345.146 47805320 47779424 47472244 46893080 46075436 45074768 43956456 
1348.521 42794796 41660740 40610912 39689828 38924796 38327700 37899484 
1351.897 37632088 37512180 37521356 37639856 37848328 38127540 38461088 
1355.272 38834348 39232192 39640164 40041252 40415768 40744092 41005908 
1358.647 41182448 41259576 41227112 41080420 40820776 40456532 40004668 
1362.022 39490160 38948352 38418984 37938860 37537968 37232096 37023740 
1365.398 36905008 36862372 36880844 36946028 37047016 37175100 37323152 
1368.773 37485556 37656912 37831696 38004384 38168528 38316844 38442516 
1372.148 38539436 38605232 38643696 38666836 38693824 38746780 38847536 
1375.523 39011096 39244704 39549712 39926056 40376132 40909092 41541068 
1378.899 42294324 43194640 44264536 45519324 46959636 48566120 50291388 
1382.274 52056372 53763152 55293696 56528868 57367848 57726388 57552644 
1385.649 56836708 55624612 54025848 52197968 50333580 48604772 47133884 
1389.024 45988828 45184280 44704516 44519604 44598168 44911776 45435400 
1392.400 46150784 47042964 48099376 49308476 50653404 52109680 53646240 
1395.775 55226976 56814804 58376508 59876872 61280204 62552176 63659244 
1399.150 64578556 65303096 65842384 66217684 66455236 66581944 66620684 
1402.525 66589364 66498408 66346324 66115500 65771096 65270752 64573020 
1405.901 63653372 62515252 61191424 59740396 58232244 56750832 55382592 
1409.276 54209564 53315588 52771684 52627548 52910028 53617824 54729264 
1412.651 56208008 58015956 60114788 62462528 65016136 67723040 70518904 
1416.026 73341472 76125056 78808792 81343960 83690136 85817944 87705328 
1419.402 89342816 90729232 91867120 92763064 93421880 93845352 94029184 
1422.777 93966696 93651360 93083376 92273264 91242712 90016880 88612872 
1426.152 87031968 85257448 83262200 81021920 78533576 75826240 72968400 
1429.527 70059736 67205512 64508012 62046884 59871548 58005428 56444716 
1432.903 55163768 54121168 53269140 52565052 51979020 51507404 51176544 
1436.278 51039012 51149708 51540644 52203348 53088516 54116700 55185740 
1439.653 56187116 56997776 57495296 57586500 57215484 56385364 55152892 
1443.028 53620452 51911464 50144020 48428820 46850672 45464576 44304532 
1446.404 43384116 42704380 42257032 42026652 41987708 42102472 42327268 
1449.779 42616140 42926120 43227284 43502912 43753168 43992900 44249272 
1453.154 44554368 44939080 45432644 46062504 46855800 47836464 49015860 
1456.529 50377560 51869160 53411052 54919220 56324664 57576700 58636020 
1459.905 59464416 60030816 60305936 60260328 59865540 59086980 57890132 
1463.280 56256580 54211776 51849336 49321316 46814020 44487888 42433684 
1466.655 40673856 39179716 37904800 36806688 35858396 35046124 34363020 
1470.030 33801388 33350378 32997028 32733634 32562814 32498534 32559994 
1473.406 32763966 33120454 33632120 34301952 35136940 36146992 37344312 
1476.781 38737544 40328864 42115396 44090812 46248520 48579352 51069872 
1480.156 53700720 56439396 59245844 62075552 64880692 67616280 70236496 
1483.531 72688512 74917168 76862344 78463752 79675584 80469968 80842912 
1486.906 80811184 80408632 79678920 78666280 77422832 76009752 74497856 
1490.282 72967616 71492008 70117440 68853352 67668680 66501608 65267748 
1493.657 63876556 62243356 60300908 58018380 55412440 52552336 49540112 
1497.032 46485908 43480936 40585228 37834120 35249580 32848086 30645610 
1500.407 28653400 26873310 25299686 23918794 22710912 21653364 20718232 
1503.783 19871048 19067338 18256574 17392414 16449470 15449751 14463769 
1507.158 13581030 12862477 12316466 11907919 11588361 11314234 11057579 
1510.533 10807700 10566044 10340775 10140009 9968730 9827206 9712733 9621732 
1514.391 9551038 9497931 9459393 9432133 9414526 9407517 9416354 9447812 
1518.248 9507414 9595512 9705685 9824732 9938455 10037390 10124748 10216092 
1522.105 10334905 10499269 10713785 10971087 11256321 11555966 11859939 
1525.481 12165520 12476774 12800330 13140794 13497487 13864016 14231814 
1528.856 14593037 14941905 15275644 15590818 15879963 16130475 16323950 
1532.231 16440798 16470704 16421769 16325876 16225602 16161527 16154444 
1535.606 16204106 16294571 16403016 16507702 16587935 16628282 16619572 
1538.982 16560020 16457282 16328216 16196297 16084019 16006799 15968503 
1542.357 15961388 15969845 15975654 15965685 15936570 15897421 15865013 
1545.732 15858140 15887696 15952967 16043482 16143611 16240701 16328663 
1549.107 16411686 16501300 16612206 16755063 16933416 17144966 17386206 
1552.483 17656362 17959386 18304058 18699194 19151164 19660770 20224428 
1555.858 20836338 21493916 22197124 22950830 23764322 24651438 25626684 
1559.233 26692696 27848334 29085738 30393090 31768728 33215120 34740636 
1562.608 36353988 38063768 39872516 41765496 43712348 45667152 47572756 
1565.984 49376556 51030888 52490672 53714292 54655308 55269008 55526556 
1569.359 55429080 55016764 54354600 53516768 52562396 51526652 50426268 
1572.734 49264048 48033384 46727080 45342044 43890940 42425936 41045168 
1576.109 39883628 39078668 38716460 38817644 39352832 40274256 41542124 
1579.485 43137620 45065796 47349772 50024696 53130192 56705600 60785612 
1582.860 65394720 70540536 76203480 82331832 88824624 95535680 102279432 
1586.235 108812864 114864120 120151768 124407944 127460880 129284800 
1589.128 130040928 130040840 129698608 129449264 129628496 130449992 
1592.021 131961584 134052472 136460608 138804688 140659120 141555952 
1594.914 141077312 138941136 135029328 129439312 122444472 114451384 
1597.807 105895800 97173592 88637904 80549488 73089648 66370180 60417644 
1601.183 55187280 50573360 46445568 42671260 39146576 35818884 32680116 
1604.558 29756326 27083374 24693872 22605348 20819722 19328252 18114156 
1607.933 17156134 16424866 15885256 15499263 15225814 15029500 14882684 
1611.308 14764710 14662363 14564802 14460104 14333444 14166425 13938393 
1614.684 13631766 13236190 12756652 12216398 11656768 11124677 10656428 
1618.059 10270168 9965882 9731675 9549920 9401388 9267158 9128705 8971049 
1621.916 8785657 8573510 8345759 8119952 7913562 7736379 7589174 7464300 
1625.774 7351593 7240938 7125830 7003851 6876284 6747004 6621127 6504771 
1629.631 6404318 6325640 6273599 6250202 6253732 6277733 6311654 6342248 
1633.489 6354520 6335188 6276422 6179786 6056929 5928229 5814980 5730600 
1637.346 5678765 5654662 5649795 5654629 5661141 5664632 5664498 5664431 
1641.203 5670775 5690447 5727948 5783113 5850409 5920268 5980564 6018661 
1645.061 6025112 5996152 5935921 5856119 5773712 5706864 5669332 5668828 
1648.918 5706394 5778043 5874355 5978885 6069798 6114590 6076350 5929203 
1652.776 5680980 5385998 5116561 4924093 4816198 4772478 4764572 4769899 
1656.633 4775996 4778642 4779982 4784806 4796699 4815629 4838077 4857544 
1660.490 4867562 4862838 4841025 4802563 4751340 4694028 4638465 4592787 
1664.348 4563420 4553275 4561646 4583411 4610334 4631231 4634680 4611439 
1668.205 4557226 4474764 4373842 4269229 4175313 4102790 4057403 4038474 
1672.063 4041517 4057403 4074995 4080815 4062018 4012355 3935480 3847620 
1675.920 3770305 3722246 3710817 3731637 3771910 3817501 3858952 3893687 
1679.778 3927221 3969318 4028608 4105433 4189531 4258957 4286295 4247179 
1683.635 4134200 3967813 3791496 3649933 3564903 3533569 3537610 3556117 
1687.492 3571585 3573455 3557955 3525952 3481694 3430761 3380902 3340465 
1691.350 3317393 3317494 3341233 3382605 3427455 3457145 3452336 3401974 
1695.207 3312018 3208896 3129793 3101460 3130260 3199549 3280468 3337460 
1699.065 3339564 3273357 3152654 3019207 2919690 2883565 2911250 2984441 
1702.922 3078467 3171645 3248786 3301534 3328946 3337493 3337527 3339664 
1706.780 3351451 3376595 3415132 3465228 3524148 3589625 3659890 3734177 
1710.637 3812019 3893186 3976909 4061617 4144971 4224393 4297505 4362262 
1714.494 4416584 4457390 4479150 4474663 4436334 4360789 4253101 4128112 
1718.352 4007239 3908699 3842371 3807173 3793802 3788521 3777491 3751355 
1722.209 3704935 3639675 3560727 3475715 3391521 3312352 3240107 3174983 
1726.067 3116844 3065086 3018873 2976668 2936969 2898975 2864119 2836904 
1729.924 2823130 2827466 2849678 2881730 2907414 2903611 2848244 2729693 
1733.781 2558711 2368473 2203993 2098403 2059650 2075064 2121444 2174554 
1737.639 2213718 2225674 2206424 2160668 2100301 2038444 1985549 1946607 
1741.496 1920813 1904473 1894289 1887600 1883074 1881377 1883008 1889131 
1745.354 1900878 1918950 1943012 1972335 2004423 2035581 2061947 2079259 
1749.211 2084420 2076130 2055755 2027691 1998964 1978193 1973434 1989577 
1753.069 2027292 2082855 2148648 2213951 2268838 2305078 2320268 2318602 
1756.926 2311074 2310175 2324665 2356946 2401656 2448803 2485925 2503020 
1760.783 2495189 2464198 2418348 2368706 2326597 2299083 2288290 2292554 
1764.641 2307510 2327763 2347418 2361976 2368939 2369439 2368606 2373703 
1768.498 2391561 2424712 2469129 2513985 2545246 2548912 2517151 2453835 
1772.356 2374569 2300715 2250253 2231069 2239662 2265474 2296784 2325531 
1776.213 2349450 2370971 2393959 2421280 2452002 2481826 2505420 2518917 
1780.071 2522483 2520450 2519117 2522483 2531414 2542513 2550445 2550579 
1783.928 2541513 2525816 2508886 2496455 2491956 2496055 2507086 2523349 
1787.785 2544146 2569843 2601175 2636576 2671814 2699019 2709488 2696685 
1791.643 2659979 2605908 2546812 2495855 2462398 2449536 2454634 2473095 
1795.500 2500054 2532114 2567543 2605508 2644377 2682116 2716190 2744998 
1799.358 2768506 2789114 2810858 2837371 2871290 2913051 2961322 3014469 
1803.215 3072027 3134498 3203889 3282337 3370617 3468100 3572620 3681176 
1807.073 3789959 3895927 3995868 4087204 4167385 4234631 4288001 4327924 
1810.930 4356037 4375047 4387732 4396033 4400283 4399882 4393991 4381975 
1814.787 4365039 4345494 4326720 4311761 4301922 4296300 4291950 4284856 
1818.645 4271036 4248684 4218070 4181335 4141994 4103392 4067336 4033859 
1822.502 4000584 3964135 3920869 3868647 3808677 3745339 3686188 3637971 
1826.360 3605094 3587019 3577899 3567509 3544358 3499263 3428490 3336192 
1830.217 3233431 3134198 3050371 2986743 2942240 2910917 2885766 2861118 
1834.074 2834436 2806089 2777910 2751667 2727559 2704253 2680482 2655945 
1837.932 2632476 2614142 2605642 2610542 2629909 2661079 2698152 2733661 
1841.789 2758536 2764271 2744764 2697852 2627242 2542280 2456667 2382332 
1845.647 2327563 2294119 2278298 2273068 2270937 2267006 2260545 2254083 
1849.504 2252351 2259279 2275500 2297950 2320535 2337224 2344519 2342787 
1853.362 2336125 2330195 2330029 2337957 2353381 2373270 2395392 2418115 
1857.219 2441839 2467363 2494622 2521816 2545846 2563677 2573743 2577476 
1861.076 2578676 2582476 2592742 2611142 2636876 2667713 2701719 2737829 
1864.934 2775776 2814960 2852479 2883165 2899242 2894205 2865020 2814393 
1868.791 2751333 2687516 2634009 2596642 2574943 2564844 2561077 2560211 
1872.649 2562044 2568510 2582342 2604842 2634743 2668613 2702220 2732027 
1876.506 2756302 2775342 2789848 2801353 2810491 2818261 2826265 2836771 
1880.364 2852646 2875693 2906047 2940805 2975000 3003892 3025045 3039159 
1884.221 3050337 3064686 3087010 3119180 3158896 3201152 3239840 3270653 
1888.078 3291652 3304873 3314155 3324572 3339631 3362169 3392490 3430460 
1891.936 3474647 3523547 3574458 3624506 3671051 3712688 3749851 3785212 
1895.793 3822749 3865805 3916355 3973398 4034461 4096168 4156211 4214389 
1899.651 4271906 4330970 4393188 4458695 4526623 4596136 4667368 4741827 
1903.508 4823067 4914039 5016797 5132117 5258670 5394586 5539639 5694107 
1907.365 5859880 6038148 6228185 6425873 6624525 6814180 6984085 7124146 
1911.223 7224463 7277056 7276214 7219107 7106969 6945837 6745725 6519234 
1915.080 6278574 6034687 5793556 5558634 5331855 5116326 4918396 4746885 
1918.938 4609062 4509012 4443096 4401823 4371532 4339035 4295932 4240587 
1922.795 4178525 4118813 4071383 4042420 4033190 4041015 4062186 4093425 
1926.653 4132527 4178324 4228709 4280573 4329932 4373240 4408484 4436334 
1930.510 4458695 4477911 4493779 4504459 4506133 4496458 4475768 4448284 
1934.367 4421003 4400986 4392083 4393489 4400183 4405605 4405605 4399045 
1938.225 4389138 4380402 4376185 4375850 4375180 4367449 4347234 4312798 
1942.082 4267456 4217702 4171600 4135070 4110785 4098476 4097305 4106904 
1945.940 4127209 4158218 4197995 4241323 4282145 4314036 4333111 4340273 
1949.797 4338901 4334551 4331940 4332241 4334049 4334618 4331003 4322402 
1953.655 4310522 4297103 4281911 4263407 4237341 4200036 4151126 4094696 
1957.512 4039343 3994397 3967145 3959420 3967178 3982158 3996236 4004128 
1961.369 4004831 4000249 3992959 3985202 3975103 3960557 3939258 3910237 
1965.227 3875166 3837658 3800554 3765693 3733676 3704400 3679104 3660993 
1969.084 3652639 3656616 3673022 3697784 3725354 3750319 3769771 3784076 
1972.942 3796978 3812989 3836655 3870619 3916388 3975303 4050079 4142830 
1976.799 4253770 4378494 4507941 4628384 4728561 4800753 4845146 4868601 
1980.656 4882037 4895810 4916352 4944804 4977681 5011534 5043613 5074252 
1984.514 5107207 5146534 5193377 5246161 5299689 5347219 5383951 5406664 
1988.371 5415856 5414279 5405657 5394016 5382643 5376336 5379624 5397639 
1992.229 5433168 5486115 5550781 5618410 5678966 5723214 5746817 5748630 
1996.086 5731574 5699814 5656508 5603004 5540914 5470445 5395224 5320719 
1999.944 5252768 5196496 5152771 5118170 5085617 5049512 5005534 4954389 
2003.801 4901104 4852584 4814992 4791574 4781992 4783198 4791942 4805377 
2007.658 4821559 4839182 4855801 4868835 4875704 4875269 4867395 4855198 
2011.516 4841997 4829901 4819414 4809162 4796934 4781959 4766180 4752479 
2015.373 4744707 4744339 4749163 4754154 4753987 4745344 4729801 4713354 
2019.231 4703440 4707191 4727758 4763433 4807655 4854595 4897854 4934415 
2023.088 4963136 4983379 4995010 4997423 4989915 4973894 4953551 4934080 
2026.946 4920675 4916352 4920809 4929589 4939609 4947619 4955126 4965784 
2030.803 4984787 5014752 5054977 5100535 5144389 5181406 5208668 5227045 
2034.660 5239822 5249313 5256322 5258368 5252331 5236066 5210479 5179864 
2038.518 5149518 5124775 5108414 5098490 5091718 5083773 5071503 5054138 
2042.375 5033858 5012741 4993770 4978888 4968733 4964845 4968264 4981536 
2046.233 5006707 5044853 5095976 5157633 5226877 5298783 5368252 5429511 
2050.090 5476015 5501920 5503799 5480712 5436154 5377879 5316660 5262996 
2053.948 5224496 5203940 5198675 5202263 5207964 5210714 5209808 5207059 
2057.805 5205851 5208366 5214537 5221747 5226911 5228085 5224832 5219734 
2061.662 5216146 5215677 5218695 5222988 5225167 5222082 5212726 5197166 
2065.520 5177315 5155453 5133257 5111666 5092020 5075660 5064195 5059234 
2069.377 5061078 5068352 5078342 5087661 5094098 5098256 5102413 5110056 
2073.235 5123467 5142377 5163199 5181205 5191264 5190896 5181138 5166015 
2077.092 5150625 5139494 5134766 5136074 5141908 5150625 5161455 5175035 
2080.949 5191868 5211988 5233920 5255148 5273528 5287916 5299454 5310187 
2084.807 5322464 5336954 5352116 5364293 5369124 5363891 5348124 5324610 
2088.664 5298146 5274064 5256993 5248776 5249548 5258368 5273528 5293785 
2092.522 5318874 5348527 5382878 5421962 5465949 5514839 5568736 5626902 
2096.379 5688198 5751115 5813234 5873381 5931823 5990878 6053872 6124503 
2100.237 6205262 6296156 6395239 6499289 6605147 6711906 6820306 6932874 
2104.094 7052107 7179355 7313144 7449334 7582498 7706360 7815414 7905633 
2107.951 7974844 8022837 8050784 8061349 8057772 8044506 8024828 8001844 
2111.809 7976802 7949400 7917477 7878943 7832147 7776721 7713746 7644846 
2115.666 7571000 7491975 7406426 7312402 7208629 7095922 6976913 6855548 
2119.524 6735764 6619546 6507563 6398467 6290945 6185163 6083406 5989501 
2123.381 5907370 5839361 5784456 5739900 5700720 5662517 5622874 5581221 
2127.239 5539001 5497088 5456118 5415118 5372478 5327193 5279598 5231807 
2131.096 5187710 5151128 5125613 5113443 5115588 5132285 5163098 5206791 
2134.953 5260682 5320719 5380731 5434309 5476753 5505141 5520242 5525175 
2138.811 5524907 5523799 5524806 5528934 5535612 5544371 5554573 5566387 
2142.668 5580986 5598741 5620155 5643853 5668963 5693536 5716567 5737046 
2146.526 5753834 5766661 5775088 5779924 5782375 5784188 5786337 5787915 
2150.383 5786303 5777271 5756890 5723650 5679202 5629185 5581389 5541317 
2154.240 5511853 5491484 5475613 5460849 5449273 5448938 5475076 5543499 
2158.098 5663121 5831301 6032906 6243345 6436634 6594247 6707766 6779682 
2161.955 6819666 6839087 6848445 6854572 6860530 6867026 6874297 6881737 
2165.813 6888402 6893351 6894496 6889749 6878236 6859385 6834274 6803948 
2169.670 6769249 6729135 6682395 6628192 6566292 6500601 6436701 6381217 
2173.528 6338886 6311990 6298576 6294340 6293937 6293567 6291281 6287213 
2177.385 6282238 6276489 6269464 6259917 6247245 6232589 6218639 6208455 
2181.242 6205329 6208220 6214707 6220354 6219783 6210203 6191549 6166343 
2185.100 6138583 6113145 6092513 6078097 6069664 6065161 6062339 6058676 
2188.957 6050411 6035090 6010900 5977676 5937500 5894708 5854842 5822570 
2192.815 5800742 5790165 5788687 5793926 5804100 5818607 5837917 5862533 
2196.672 5890947 5919697 5943546 5957151 5957352 5944386 5921982 5896589 
2200.530 5875833 5864615 5866026 5879427 5902366 5930883 5961551 5990979 
2204.387 6017150 6039525 6058071 6075241 6094663 6120638 6157941 6209195 
2208.244 6274338 6350082 6432027 6514963 6595290 6672469 6748384 6825355 
2212.102 6906413 6991392 7077769 7162007 7239489 7307045 7363523 7409392 
2215.959 7446165 7475424 7498380 7514764 7524507 7527643 7525148 7517630 
2219.817 7506370 7491638 7473401 7450244 7421088 7384418 7339833 7287063 
2223.674 7226788 7159750 7086694 7008531 6927521 6845281 6764739 6688553 
2227.531 6618570 6556066 6501408 6454155 6413565 6379065 6349880 6324261 
2231.389 6300156 6274943 6246068 6212556 6174745 6135424 6098527 6068051 
2235.246 6047152 6037308 6037879 6046951 6062507 6081995 6103500 6125041 
2239.104 6144666 6160092 6169636 6172359 6168931 6161134 6151858 6143457 
2242.961 6137172 6132871 6128267 6121479 6111095 6096713 6079845 6063212 
2246.819 6049135 6039727 6036065 6037610 6043758 6053401 6065329 6078400 
2250.676 6091404 6103198 6113245 6121848 6130384 6141843 6158983 6184021 
2254.533 6217194 6257295 6300526 6342551 6379435 6408420 6428294 6440232 
2258.391 6445310 6445613 6442351 6436600 6428967 6420123 6411110 6402838 
2262.248 6396651 6393726 6395037 6401224 6413094 6430715 6454155 6482910 
2266.106 6515601 6550718 6586510 6621665 6655175 6686837 6716448 6743672 
2269.963 6767970 6788163 6802972 6811286 6812867 6807785 6797654 6783821 
2273.821 6767970 6751850 6736134 6721900 6709988 6700666 6694475 6691480 
2277.678 6691110 6692355 6694273 6695484 6695316 6693634 6690538 6686366 
2281.535 6681924 6678055 6675497 6675329 6678223 6684380 6693196 6703560 
2285.393 6713487 6721866 6727788 6731524 6734923 6740341 6749561 6763528 
2289.250 6781196 6801020 6819767 6835149 6845854 6852215 6856086 6859385 
2293.108 6864232 6871941 6882646 6895876 6910621 6926343 6942571 6959607 
2296.965 6977587 6997116 7018364 7041498 7066453 7093093 7121317 7150722 
2300.823 7181106 7211897 7243027 7274361 7306371 7339563 7375251 7414380 
2304.680 7457760 7505797 7558593 7615070 7674388 7734827 7794498 7851546 
2308.537 7904384 7951795 7993643 8029789 8061249 8088590 8112356 8132781 
2312.395 8149864 8164280 8176874 8189704 8206114 8229211 8262507 8308505 
2316.252 8368052 8440514 8523834 8615214 8711413 8809562 8907292 9002947 
2320.110 9095714 9184811 9269798 9349350 9421671 9483708 9532443 9564993 
2323.967 9580100 9578169 9562419 9537930 9511038 9488042 9474056 9471754 
2327.824 9481405 9500607 9525974 9553510 9579998 9603574 9623528 9640229 
2331.682 9654729 9668077 9681731 9697113 9715986 9739468 9768543 9802872 
2335.539 9841238 9881064 9919742 9954253 9982902 10005178 10021486 10033592 
2339.397 10043222 10051937 10061058 10071300 10082627 10093817 10101923 
2342.772 10102296 10088053 10050817 9983546 9882048 9747939 9589889 9423872 
2346.629 9269595 9146741 9072470 9057651 9106169 9215643 9378500 9582809 
2350.487 9813379 10055565 10294969 10520315 10724891 10906356 11065328 
2353.862 11204808 11327939 11437566 11535958 11625048 11706666 11782240 
2357.237 11852515 11917114 11974502 12022053 12057549 12079455 12088245 
2360.613 12085689 12075332 12060751 12044638 12028900 12013911 11999060 
2363.988 11982983 11964216 11940920 11911768 11875432 11830587 11776622 
2367.363 11713100 11640124 11558143 11468252 11371270 11268665 11161970 
2370.738 11052413 10941184 10829643 10717691 10605563 10492344 10377118 
2374.114 10258870 10137670 10013654 9888217 9762748 9638975 9518049 9400846 
2377.971 9287501 9178416 9073485 8973247 8877971 8788429 8705633 8630626 
2381.828 8564486 8508764 8464739 8433521 8415718 8410684 8417069 8432169 
2385.686 8452981 8476867 8501972 8527146 8552591 8578984 8606968 8637015 
2389.543 8669396 8703942 8741197 8781464 8825758 8874420 8927856 8985324 
2393.401 9045404 9106068 9165522 9222040 9274976 9323688 9368580 9409718 
2397.258 9447914 9483810 9518252 9552392 9587348 9623900 9662013 9700840 
2401.115 9739061 9774541 9805448 9830968 9850592 9865201 9876115 9885302 
2404.973 9894454 9905200 9918793 9935743 9956118 9979444 10004736 10030845 
2408.830 10056921 10082559 10108231 10135160 10164769 10198588 10237328 
2412.206 10280923 10328492 10378883 10431011 10484130 10538579 10594936 
2415.581 10654085 10717012 10784227 10856073 10932757 11014212 11100135 
2418.956 11190087 11283389 11378787 11475158 11571483 11667455 11763584 
2422.331 11861199 11961729 12066850 12177243 12293185 12413864 12537919 
2425.707 12663783 12790093 12916166 13042140 13169243 13299800 13436787 
2429.082 13583457 13743139 13917967 14109226 14316835 14539482 14775921 
2432.457 15024664 15285151 15557745 15843568 16144127 16460758 16794012 
2435.832 17143380 17507274 17882348 18264418 18647586 19025102 19390092 
2439.208 19735278 20054332 20341672 20592340 20802410 20968492 21087604 
2442.583 21157974 21179302 21153278 21083708 20976246 20837694 20675036 
2445.958 20494272 20300424 20096840 19886276 19671066 19453708 19236912 
2449.333 19024132 18817964 18620746 18434196 18259340 18097020 17948578 
2452.708 17815580 17699914 17603082 17525800 17467638 17427042 17402174 
2456.084 17391000 17392482 17406142 17432388 17471606 17524282 17590110 
2459.459 17668094 17757208 17855868 17962978 18077952 18200424 18330498 
2462.834 18468528 18615212 18771496 18938566 19117610 19309788 19516226 
2466.209 19737532 19974424 20227378 20497188 20784510 21089620 21412874 
2469.585 21753888 22111836 22485468 22872938 23272744 23683452 24103968 
2472.960 24533832 24972580 25420766 25878698 26347818 26829602 27326216 
2476.335 27839928 28373772 28929454 29508898 30112198 30737784 31381686 
2479.710 32037138 32695192 33344618 33972012 34564076 35106148 35583408 
2483.086 35981340 36284460 36478264 36549840 36488572 36288316 35947828 
2486.461 35470892 34866712 34147904 33330734 32432516 31471628 30466870 
2489.836 29435636 28395030 27361394 26349120 25371690 24441144 23566386 
2493.211 22753926 22007254 21326592 20709924 20153516 19653142 19204598 
2496.587 18803882 18447854 18133604 17858318 17619680 17414660 17240350 
2499.962 17093162 16969246 16864242 16774245 16695352 16624462 16559193 
2503.337 16498202 16440455 16385328 16332448 16281670 16232206 16183641 
2506.712 16135393 16086701 16037190 15985863 15932171 15875770 15816696 
2510.088 15755534 15693212 15631072 15570074 15511076 15454008 15398150 
2513.463 15342814 15286799 15229657 15171460 15112722 15054232 14997053 
2516.838 14942008 14889644 14840613 14795015 14753193 14715042 14680390 
2520.213 14648552 14618840 14590193 14561581 14532560 14502789 14472162 
2523.589 14441058 14409682 14378480 14347622 14317212 14287421 14258384 
2526.964 14230411 14203740 14179023 14156327 14136096 14118467 14103339 
2530.339 14090538 14080373 14072808 14068394 14068051 14072808 14083624 
2533.714 14100908 14124355 14153040 14184877 14217845 14249961 14279510 
2537.090 14306254 14330431 14352827 14374404 14395913 14417937 14440578 
2540.465 14463837 14487269 14510634 14532903 14553118 14570011 14581935 
2543.840 14587966 14588136 14583408 14575629 14567303 14560930 14558326 
2547.215 14560416 14567475 14579159 14595024 14614900 14638511 14665756 
2550.591 14696567 14730055 14765259 14800877 14835744 14869140 14901131 
2553.966 14931858 14961727 14991771 15022366 15054438 15088707 15126274 
2557.341 15167926 15214318 15265416 15320537 15378240 15436876 15494525 
2560.716 15550430 15603869 15655667 15706817 15758729 15812503 15869103 
2564.092 15928665 15990779 16054828 16119540 16184261 16247993 16310291 
2567.467 16371531 16432265 16493522 16556267 16621605 16689843 16760744 
2570.842 16833690 16907648 16981994 17056252 17130938 17206942 17285134 
2574.217 17366722 17451910 17540564 17632172 17725800 17820724 17916912 
2577.593 18014782 18114882 18218010 18324898 18435650 18550474 18669238 
2580.968 18792222 18920050 19053800 19194624 19343738 19501912 19669368 
2584.343 19845592 20030458 20223664 20425154 20635980 20857092 21090074 
2587.718 21335954 21595380 21868236 22153816 22450472 22756126 23068286 
2591.094 23383994 23700212 24013506 24320512 24617738 24901622 25168314 
2594.469 25414230 25635262 25827848 25988860 26116150 26209266 26268996 
2597.844 26297228 26296876 26271108 26223310 26156336 26072626 25974718 
2601.219 25864314 25743040 25612274 25472940 25326166 25172984 25014522 
2604.594 24852466 24688472 24524400 24361758 24202048 24046250 23895128 
2607.970 23749624 23610534 23478556 23354308 23237682 23128146 23024822 
2611.345 22926762 22833194 22743976 22659698 22581264 22509860 22446040 
2614.720 22389798 22340470 22297428 22260038 22228440 22203856 22187778 
2618.095 22182060 22188232 22206922 22237960 22280336 22332970 22395100 
2621.471 22466346 22546992 22637882 22740100 22854322 22981152 23120808 
2624.846 23272708 23436378 23610744 23794598 23986648 24185268 24388850 
2628.221 24595436 24802998 25009186 25211644 25407766 25595052 25771448 
2631.596 25935076 26084518 26218276 26335284 26433834 26511980 26567526 
2634.972 26598454 26603208 26580982 26531810 26456864 26358028 26237916 
2638.347 26099260 25945382 25779780 25605630 25426386 25245390 25064890 
2641.722 24887692 24715444 24549748 24392250 24244056 24106698 23981256 
2645.097 23869118 23770832 23686844 23617358 23562154 23521122 23494294 
2648.473 23481424 23482614 23497372 23525178 23565092 23615852 23676276 
2651.848 23745004 23820636 23902130 23988190 24077558 24168908 24260942 
2655.223 24352646 24442968 24531342 24617562 24701660 24784194 24865728 
2658.598 24947172 25029334 25113264 25199634 25289078 25381876 25478174 
2661.974 25578112 25681764 25789450 25901382 26017846 26138916 26264562 
2665.349 26394574 26528746 26667152 26809760 26956928 27108908 27265562 
2668.724 27426826 27592210 27760906 27932566 28106874 28284116 28464686 
2672.099 28649294 28838194 29031536 29228966 29430352 29635026 29842916 
2675.475 30053996 30268448 30486274 30707484 30931828 31158674 31386956 
2678.850 31615966 31844452 32071528 32296400 32518140 32736528 32951664 
2682.225 33164046 33374492 33583860 33793260 34003008 34213752 34425604 
2685.600 34638532 34852888 35069004 35287460 35508824 35733724 35962444 
2688.976 36195568 36433400 36676300 36925104 37180584 37443876 37715960 
2692.351 37997800 38289956 38592884 38906748 39230888 39564740 39907600 
2695.726 40258224 40615968 40980200 41350824 41727600 42110396 42498788 
2699.101 42892104 43289260 43688752 44089488 44490492 44891164 45290696 
2702.477 45689128 46085896 46480192 46871708 47259660 47643556 48023092 
2705.852 48397852 48767260 49130236 49485452 49831372 50166632 50489908 
2709.227 50800724 51098864 51384344 51657284 51917552 52165084 52399488 
2712.602 52620812 52828520 53022476 53202020 53366352 53514256 53644480 
2715.978 53755428 53846152 53915468 53962852 53987128 53987352 53962552 
2719.353 53911152 53831820 53723628 53585812 53417872 53220184 52993048 
2722.728 52737484 52454856 52146516 51814092 51459616 51084588 50691608 
2726.103 50283464 49864040 49438184 49011520 48590208 48180072 47785900 
2729.479 47411264 47058624 46728740 46422004 46138476 45878372 45641940 
2732.854 45429956 45243040 45081972 44946904 44837524 44753440 44692836 
2736.229 44653948 44634228 44630924 44641020 44662136 44692692 44731256 
2739.604 44777716 44832052 44894360 44965132 45044444 45132776 45231052 
2742.979 45340496 45462808 45600204 45754068 45925768 46115520 46322832 
2746.355 46546468 46785124 47037392 47302184 47578408 47865024 48160640 
2749.730 48464160 48774380 49090204 49410856 49735912 50065372 50398508 
2753.105 50734840 51072924 51410860 51746524 52077444 52401320 52715676 
2756.480 53018468 53307872 53582476 53841348 54084236 54310668 54521172 
2759.856 54715732 54894516 55057912 55206392 55341716 55466048 55583000 
2763.231 55696440 55810024 55926312 56046324 56168560 56289660 56404456 
2766.606 56506636 56589296 56646408 56672644 56664260 56619376 56537736 
2769.981 56420756 56270576 56089832 55881580 55648004 55391324 55113660 
2773.357 54817224 54504456 54178184 53841496 53497844 53150676 52803264 
2776.732 52459456 52122232 51795240 51481100 51182472 50900964 50637880 
2780.107 50393784 50168940 49963392 49776600 49607528 49454856 49316084 
2783.482 49188452 49069020 48954960 48843524 48732752 48620524 48504800 
2786.858 48383296 48253016 48110776 47953708 47779056 47585136 47371280 
2790.233 47137096 46883372 46611016 46321248 46015716 45696308 45365324 
2793.608 45025148 44678368 44327276 43974272 43620752 43268244 42917784 
2796.983 42570012 42225628 41884944 41548392 41216692 40891000 40572748 
2800.359 40263604 39965140 39678320 39403728 39141064 38889536 38648584 
2803.734 38418008 38198596 37991400 37798332 37620888 37460164 37316580 
2807.109 37189612 37078448 36982032 36899492 36830416 36774628 36732148 
2810.484 36702796 36686752 36683868 36693784 36716352 36750788 36796192 
2813.860 36851624 36915544 36986832 37063904 37145680 37231304 37319288 
2817.235 37408592 37497984 37586240 37672448 37756656 37839544 37922332 
2820.610 38006952 38094876 38187124 38284312 38386808 38494504 38608276 
2823.985 38729500 38860112 39002504 39159264 39332156 39523000 39733180 
2827.361 39963544 40215692 40490908 40790388 41114292 41462248 41831492 
2830.736 42218216 42616284 43018120 43415240 43798176 44157860 44485536 
2834.111 44774300 45019304 45218328 45371428 45480652 45549568 45582028 
2837.486 45582028 45553468 45500116 45426312 45337184 45238368 45136044 
2840.862 45036760 44946172 44869560 44811956 44777680 44771104 44796600 
2844.237 44858136 44959324 45102192 45287796 45514244 45777668 46071420 
2847.612 46385724 46708556 47026056 47322580 47583552 47796624 47952340 
2850.987 48046708 48080460 48059624 47993676 47894584 47776212 47651432 
2854.363 47532900 47431888 47356904 47315112 47311048 47346964 47423384 
2857.738 47539336 47692476 47879972 48098748 48345148 48615812 48906564 
2861.113 49213724 49532872 49860320 50191736 50522776 50849220 51165920 
2864.488 51467524 51749024 52005164 52231708 52425732 52585324 52709616 
2867.864 52799220 52855616 52880796 52878028 52850936 52804124 52741712 
2871.239 52668692 52588948 52506044 52423676 52345212 52274612 52216464 
2874.614 52175212 52155072 52160080 52192396 52253272 52342704 52459864 
2877.989 52603120 52770784 52960368 53169512 53395464 53635332 53886208 
2881.365 54145864 54412320 54684128 54960316 55240104 55522412 55806480 
2884.740 56091492 56376952 56662716 56948816 57235180 57522076 57808784 
2888.115 58094808 58379240 58661808 58942248 59220704 59497856 59773816 
2891.490 60049192 60323900 60597912 60870836 61142100 61410220 61673192 
2894.865 61927952 62170896 62398756 62608436 62798112 62967612 63117520 
2898.241 63248584 63361628 63456452 63532232 63588084 63623256 63637720 
2901.616 63632696 63610024 63571624 63520000 63456952 63384556 63305012 
2904.991 63220688 63134536 63049704 62969068 62895300 62830316 62775680 
2908.366 62732340 62701560 62684260 62681348 62693560 62721580 62764920 
2911.742 62822656 62892964 62972324 63055992 63137792 63210256 63265072 
2915.117 63294656 63292400 63253604 63176684 63062580 62914148 62735864 
2918.492 62533008 62310088 62070428 61816044 61546800 61261124 60956080 
2921.867 60628656 60276468 59898892 59497552 59076424 58641404 58198716 
2925.243 57754884 57315288 56883428 56461880 56051752 55653348 55266448 
2928.618 54890192 54523580 54165380 53814308 53470184 53133184 52804496 
2931.993 52485736 52178572 51883948 51601908 51331688 51072032 50821880 
2935.368 50580436 50347384 50123008 49907412 49699948 49499676 49305060 
2938.744 49114464 48926848 48741536 48558856 48379296 48203396 48031940 
2942.119 47865284 47703460 47546912 47395852 47250536 47110984 46976620 
2945.494 46846388 46718888 46592496 46466140 46339344 46212512 46086560 
2948.869 45963416 45845008 45733264 45630200 45537684 45456996 45390152 
2952.245 45338512 45304124 45289412 45296952 45329424 45389048 45476936 
2955.620 45591888 45729992 45884928 46047216 46205584 46349004 46466844 
2958.995 46550488 46594528 46596408 46556424 46477500 46364708 46224488 
2962.370 46064200 45892220 45716700 45545412 45385444 45242928 45122112 
2965.746 45026468 44957452 44915084 44897888 44902740 44925592 44961016 
2969.121 45003796 45048560 45089948 45123472 45144904 45150308 45136596 
2972.496 45101232 45042716 44961128 44858024 44736252 44599380 44451068 
2975.871 44294732 44132548 43965988 43795572 43621628 43444136 43263232 
2979.247 43079220 42892508 42703612 42513224 42322264 42132372 41945300 
2982.622 41763524 41589560 41425864 41274916 41137968 41016032 40908764 
2985.997 40815612 40735284 40666656 40608732 40561400 40525204 40501416 
2989.372 40491740 40497672 40520368 40560308 40617388 40691724 40783760 
2992.748 40895148 41028704 41188240 41376768 41596124 41844516 42116016 
2996.123 42399484 42678788 42935632 43149076 43299908 43373756 43361708 
2999.498 43263596 43087748 42851804 42578676 42295380 42030996 41810660 
3002.873 41655164 41578984 41587480 41677664 41837292 42047352 42281688 
3006.249 42510412 42704636 42837068 42886548 42841604 42699552 42467112 
3009.624 42158076 41791724 41388544 40967672 40546736 40139224 39754780 
3012.999 39399956 39078304 38790580 38536252 38312976 38117880 37947612 
3016.374 37799272 37670280 37558672 37462980 37382080 37314848 37260040 
3019.750 37216180 37181560 37154488 37133016 37115436 37100100 37085808 
3023.125 37071880 37057984 37044708 37032580 37022624 37015440 37011328 
3026.500 37009852 37010248 37011220 37011652 37010428 37006748 37000792 
3029.875 36992928 36983980 36975104 36967348 36961108 36956420 36952556 
3033.250 36948192 36941588 36931668 36917276 36898592 36876044 36850508 
3036.626 36822412 36792120 36759304 36723312 36683868 36640892 36595148 
3040.001 36547784 36500212 36453396 36407744 36363104 36319440 36276536 
3043.376 36235040 36196076 36161000 36131396 36108028 36091072 36080340 
3046.751 36074904 36074328 36078144 36086316 36098848 36115768 36136908 
3050.127 36162256 36191680 36225752 36265368 36311840 36366308 36429796 
3053.502 36502732 36584980 36675972 36775348 36883008 36999600 37125688 
3056.877 37262204 37409312 37566260 37730852 37899336 38066592 38225768 
3060.252 38368600 38485960 38567860 38604436 38586908 38508952 38366864 
3063.628 38160896 37895580 37579336 37222964 36839868 36443704 36046604 
3067.003 35659580 35291088 34946428 34629128 34340572 34080916 33849312 
3070.378 33644580 33464990 33308376 33172880 33056126 32955774 32870278 
3073.753 32798268 32738850 32691370 32655108 32628890 32611068 32598962 
3077.129 32589566 32579996 32567422 32549922 32526676 32497716 32464292 
3080.504 32428194 32391566 32356794 32325670 32299898 32280446 32267704 
3083.879 32261814 32261994 32267742 32277804 32290370 32302648 32311142 
3087.254 32311354 32298184 32266560 32212746 32134638 32032360 31908282 
3090.630 31766806 31613224 31452854 31291048 31131904 30978726 30833960 
3094.005 30699056 30575144 30462460 30360718 30269124 30185966 30109392 
3097.380 30037202 29967472 29898322 29828402 29756682 29682526 29606008 
3100.755 29527268 29446982 29366038 29285286 29205398 29126590 29048928 
3104.131 28972062 28895740 28819642 28743806 28668302 28593094 28517792 
3107.506 28441796 28364010 28283726 28200240 28113590 28024482 27933696 
3110.881 27842646 27752394 27663820 27577628 27493962 27413238 27335566 
3114.256 27260798 27188586 27118184 27048638 26978752 26907926 26835772 
3117.632 26762818 26689594 26616456 26543468 26469790 26394292 26315500 
3121.007 26232532 26145568 26055702 25965222 25876800 25792404 25713438 
3124.382 25639760 25570204 25503050 25436574 25369548 25301686 25233346 
3127.757 25165190 25098170 25032668 24968826 24906290 24844466 24782688 
3131.133 24720740 24658662 24596488 24534604 24473640 24413664 24354820 
3134.508 24296998 24240306 24184742 24130236 24077314 24026184 23977336 
3137.883 23930942 23887218 23845524 23805202 23764986 23723622 23679846 
3141.258 23632752 23581988 23528014 23471666 23414698 23358924 23305782 
3144.634 23256244 23210558 23168058 23127484 23087296 23046484 23004384 
3148.009 22960890 22916738 22873042 22830540 22789438 22749562 22710178 
3151.384 22670134 22628770 22585872 22541966 22498100 22455250 22414708 
3154.759 22376786 22341378 22308100 22275698 22243366 22210340 22176342 
3158.135 22141858 22107270 22073558 22041452 22011612 21984320 21959680 
3161.510 21937550 21917824 21900364 21885276 21872836 21863532 21857572 
3164.885 21855412 21856632 21860850 21867156 21874716 21882940 21891826 
3168.260 21902072 21915070 21932878 21958006 21992442 22038208 22096356 
3171.635 22167658 22251876 22348772 22457588 22577880 22709342 22852298 
3175.011 23007422 23176026 23359658 23559704 23777656 24014138 24268720 
3178.386 24540212 24825942 25122498 25425368 25730032 26031250 26323666 
3181.761 26602258 26861538 27096212 27301304 27472464 27606262 27700864 
3185.136 27756528 27775352 27761012 27718488 27653190 27569790 27473134 
3188.512 27366866 27254520 27139168 27023708 26910498 26801688 26698122 
3191.887 26600216 26506944 26417144 26328736 26239922 26148840 26053942 
3195.262 25954456 25849826 25740368 25626826 25510534 25393504 25277488 
3198.637 25164172 25054886 24950610 24851870 24759078 24673006 24594068 
3202.013 24522578 24458600 24401468 24350228 24303480 24259926 24218794 
3205.388 24179838 24143512 24110376 24080920 24055600 24034518 24017568 
3208.763 24004894 23996874 23994038 23996804 24005244 24018758 24035708 
3212.138 24054620 24073812 24092094 24109502 24126734 24144878 24165476 
3215.514 24189542 24217532 24249452 24284840 24322718 24362388 24402938 
3218.889 24443842 24484716 24525382 24566370 24608166 24651684 24697486 
3222.264 24746100 24797244 24850362 24904326 24958086 25010240 25060186 
3225.639 25107122 25151216 25192892 25232958 25272712 25313734 25357568 
3229.015 25405202 25457162 25512996 25571576 25631710 25691994 25751690 
3232.390 25811074 25870892 25931806 25994418 26058764 26124420 26190508 
3235.765 26256572 26322540 26388800 26456232 26525294 26596128 26668702 
3239.140 26742310 26817020 26892804 26970538 27050754 27133632 27218712 
3242.516 27304126 27388286 27469710 27547796 27623422 27698462 27774930 
3245.891 27854872 27938786 28026002 28115252 28204980 28294052 28382368 
3249.266 28470064 28557848 28645720 28733858 28821766 28909622 28997848 
3252.641 29087652 29180736 29278446 29381494 29489392 29600368 29712258 
3256.017 29822934 29930624 30034680 30135034 30232320 30327104 30419742 
3259.392 30510516 30599710 30687890 30775696 30864160 30953926 31045024 
3262.767 31137104 31229022 31319540 31407618 31492860 31575236 31655346 
3266.142 31733796 31811510 31888560 31964696 32039244 32111734 32181378 
3269.518 32247934 32311570 32372538 32431408 32488606 32544136 32598316 
3272.893 32650788 32701298 32750104 32797270 32843224 32888648 32933790 
3276.268 32978796 33023090 33065852 33106114 33143376 33177600 33209040 
3279.643 33239048 33268810 33299252 33330880 33362974 33394926 33425268 
3283.019 33453218 33478126 33500064 33519682 33537756 33554972 33571940 
3286.394 33588692 33605916 33623456 33641644 33660048 33678772 33697032 
3289.769 33713756 33728256 33739824 33748168 33754472 33759808 33765860 
3293.144 33774096 33785128 33799096 33815500 33833124 33851280 33868836 
3296.520 33885528 33900644 33914364 33925972 33935072 33941484 33944996 
3299.895 33945928 33944712 33942168 33938760 33934572 33929844 33924756 
3303.270 33919596 33915512 33913504 33914832 33920424 33930132 33942992 
3306.645 33957752 33972944 33987672 34002256 34017588 34035148 34056188 
3310.021 34081092 34108832 34138260 34167184 34194288 34219200 34242576 
3313.396 34265916 34291268 34320132 34353556 34391748 34434500 34480632 
3316.771 34529848 34581264 34634692 34689884 34746812 34805212 34865240 
3320.146 34926568 34988584 35050972 35112796 35173296 35231684 35287784 
3323.521 35341800 35394712 35447592 35501416 35556544 35612752 35669008 
3326.897 35724152 35776748 35826264 35872392 35915076 35954524 35990664 
3330.272 36023384 36052332 36077496 36099460 36118940 36136980 36153940 
3333.647 36169604 36182640 36191356 36193808 36188656 36175476 36154984 
3337.022 36128340 36096904 36061944 36024072 35984040 35941816 35898088 
3340.398 35852852 35806360 35758472 35708360 35655052 35597540 35535432 
3343.773 35468696 35398092 35324332 35248180 35169308 35087216 35000976 
3347.148 34909656 34813580 34713716 34611692 34509724 34409716 34312748 
3350.523 34218952 34128188 34039272 33951592 33864644 33777712 33690872 
3353.899 33603696 33515778 33426344 33334992 33241230 33144518 33044792 
3357.274 32942336 32837544 32731418 32625392 32521070 32419946 32323490 
3360.649 32232158 32145698 32063074 31982068 31901326 31819280 31735256 
3364.024 31650036 31564440 31479788 31397146 31316620 31238174 31161026 
3367.400 31084316 31007478 30929870 30851460 30771962 30691624 30610162 
3370.775 30527756 30444478 30361002 30277720 30195734 30115820 30038516 
3374.150 29963886 29891826 29821730 29752708 29684444 29616260 29548264 
3377.525 29480352 29412944 29346290 29280818 29216208 29152244 29088396 
3380.901 29023884 28957824 28889860 28819534 28747240 28673788 28600312 
3384.276 28528088 28458672 28392980 28331436 28273826 28219440 28167256 
3387.651 28116276 28065588 28014834 27963910 27912814 27861584 27810218 
3391.026 27758364 27705774 27651990 27597118 27541370 27485418 27429508 
3394.402 27373994 27318700 27262776 27205694 27146928 27086620 27025718 
3397.777 26965602 26907926 26853676 26803240 26755488 26709080 26661548 
3401.152 26611452 26557382 26499056 26436970 26372076 26305326 26237318 
3404.527 26168828 26100282 26031812 25964236 25898182 25834354 25773206 
3407.903 25714212 25656948 25599796 25541248 25480178 25415356 25346680 
3411.278 25274502 25199600 25122462 25044110 24965034 24885518 24805980 
3414.653 24726878 24648386 24570892 24494286 24418150 24341608 24263502 
3418.028 24182850 24098784 24011512 23921596 23830858 23741330 23654724 
3421.404 23572856 23496182 23424558 23356896 23291726 23227266 23161660 
3424.779 23093656 23022516 22947826 22870074 22790172 22709342 22628770 
3428.154 22549120 22470602 22392834 22314588 22234892 22152944 22068222 
3431.529 21981462 21893604 21806496 21721250 21639224 21561114 21486952 
3434.905 21416354 21348134 21281144 21213884 21145000 21073414 20998778 
3438.280 20921098 20841378 20760736 20680352 20601582 20524908 20451028 
3441.655 20380146 20312680 20248728 20188258 20129948 20072202 20011964 
3445.030 19945838 19871708 19787986 19695716 19597850 19498654 19402772 
3448.406 19313598 19232166 19158124 19089322 19023094 18956876 18889248 
3451.781 18819416 18746968 18672178 18595258 18516276 18435788 18354830 
3455.156 18274302 18195448 18118820 18044482 17971784 17899234 17826006 
3458.531 17751546 17675998 17599840 17524144 17449218 17375066 17301582 
3461.906 17228454 17155376 17082686 17010836 16940032 16870410 16801384 
3465.282 16731922 16661748 16590621 16518921 16447337 16376520 16306233 
3468.657 16236024 16164588 16090794 16014362 15935402 15855150 15774740 
3472.032 15694862 15615444 15535903 15455519 15373742 15290848 15208416 
3475.407 15128092 15051453 14979150 14910905 14845516 14781371 14717064 
3478.783 14651602 14584607 14515978 14445648 14373719 14299987 14224659 
3482.158 14148659 14073186 13999573 13928710 13860630 13794441 13728468 
3485.533 13660795 13589885 13515568 13438769 13360788 13283914 13209684 
3488.908 13139223 13072803 13010182 12950848 12894492 12840702 12788933 
3492.284 12738329 12687936 12635878 12580893 12521788 12458292 12391260 
3495.659 12322636 12254534 12189237 12128312 12072402 12021031 11972731 
3499.034 11925900 11878463 11828952 11776384 11720180 11660307 11596971 
3502.409 11530480 11462298 11393481 11326137 11262510 11204672 11153709 
3505.785 11109516 11070427 11033210 10994025 10949237 10896503 10835215 
3509.160 10767550 10696329 10626174 10560747 10502426 10452020 10408951 
3512.535 10371486 10337348 10304537 10271321 10236514 10199605 10160292 
3515.910 10118744 10075403 10031286 9987174 9943778 9901776 9861269 9822156 
3519.768 9783589 9744043 9702704 9658489 9610485 9559268 9505518 9451265 
3523.625 9398679 9349689 9305476 9265804 9228775 9191682 9151343 9104748 
3527.483 9050411 8988300 8920111 8848685 8776866 8707695 8643133 8584763 
3531.340 8533330 8488963 8451055 8418724 8389773 8361669 8332080 8298914 
3535.198 8261393 8220094 8177110 8135076 8096658 8063105 8034448 8009674 
3539.055 7986724 7963337 7938162 7910593 7880090 7847363 7812580 7775709 
3542.912 7736379 7693847 7647139 7595681 7539274 7478525 7415257 7352335 
3546.770 7292926 7240365 7196872 7162647 7136036 7113301 7089590 7060526 
3550.627 7022977 6976274 6922202 6865108 6809367 6759994 6719847 6689260 
3554.485 6667254 6651507 6639160 6627553 6614768 6599259 6580421 6558152 
3558.342 6532318 6503493 6472517 6439829 6406739 6374593 6344837 6319353 
3562.199 6299820 6287415 6281297 6279179 6276053 6265228 6239143 6191785 
3566.057 6120605 6028404 5923157 5816592 5720226 5642611 5586725 5550982 
3569.914 5529806 5516383 5504940 5491316 5473398 5450951 5425283 5397605 
3573.772 5370164 5344200 5320619 5300259 5282919 5267725 5253237 5237609 
3577.629 5219399 5198172 5174029 5149217 5125948 5107274 5095205 5091014 
3581.487 5095003 5106436 5124305 5147205 5173392 5199916 5222719 5236167 
3585.344 5233149 5207327 5153877 5072609 4969370 4855466 4745679 4653368 
3589.201 4588065 4552907 4544704 4555719 4575877 4596638 4609865 4611674 
3593.059 4601393 4581033 4554715 4527192 4502584 4483435 4471014 4465089 
3596.916 4464051 4465491 4465993 4462043 4450427 4428802 4397003 4356906 
3600.774 4313200 4270534 4234330 4208501 4194349 4191673 4198196 4211244 
3604.631 4226702 4240420 4247413 4242595 4221449 4181603 4124064 4054393 
3608.489 3981322 3915151 3863666 3829301 3809044 3796075 3782004 3760312 
3612.346 3730166 3694910 3662563 3641713 3637737 3651503 3679104 3712187 
3616.203 3741462 3758875 3757839 3735079 3691267 3630386 3560226 3490111 
3620.061 3430360 3389017 3370417 3374858 3398668 3436205 3481093 3529527 
3623.918 3580004 3633326 3690532 3750085 3805902 3846149 3853904 3812187 
3627.776 3710683 3554013 3365642 3181292 3037858 2956284 2936635 2963457 
3631.633 3014569 3068924 3110570 3132496 3134532 3122184 3102995 3083206 
3635.490 3065853 3051005 3037224 3023210 3009431 2997653 2990380 2989312 
3639.348 2994584 3004426 3016771 3029583 3042563 3057411 3077466 3106198 
3643.205 3146079 3197747 3258234 3323403 3385978 3438275 3472475 3481427 
3647.063 3459917 3405447 3318429 3202520 3066054 2921024 2782178 2666080 
3650.920 2587242 2553745 2566643 2618475 2696151 2781611 2856915 2906080 
3654.778 2917655 2889502 2828833 2751767 2677348 2621275 2591175 2586275 
3658.635 2598875 2619275 2639810 2654945 2662879 2664779 2663079 2660512 
3662.492 2659712 2662846 2671980 2688550 2714322 2749799 2794950 2847176 
3666.350 2902411 2954049 2993483 3011166 2999021 2952715 2876227 2784179 
3670.207 2700519 2649377 2648544 2700786 2793750 2902544 2995751 3042963 
3674.065 3018739 2914152 2743197 2544979 2368173 2249387 2201296 2211886 
3677.922 2256248 2308043 2350150 2374969 2385330 2389262 2396192 2411784 
3681.780 2436941 2469529 2506953 2548945 2597942 2657245 2728226 2807123 
3685.637 2884032 2945843 2977135 2966626 2911650 2820962 2711788 2604809 
3689.494 2516217 2453301 2414350 2392993 2383531 2382765 2390161 2406187 
3693.352 2430710 2460899 2492156 2519783 2540813 2554845 2565644 2578309 
3697.209 2597008 2623442 2654611 2684583 2705153 2709121 2692484 2656245 
3701.067 2606642 2553211 2507019 2477594 2469996 2484925 2520383 2571043 
3704.924 2630709 2694585 2757535 2816493 2869489 2916020 2955150 2986276 
3708.781 3007095 3013735 3001156 2964891 2902944 2818528 2720324 2621475 
3712.639 2536014 2475727 2445937 2446304 2470729 2511552 2560077 2609275 
3716.496 2654378 2692984 2724492 2749433 2768806 2782678 2790715 2792349 
3720.354 2787614 2777309 2763938 2751433 2743497 2743331 2751667 2766806 
3724.211 2784079 2798485 2805422 2803454 2795484 2788514 2792016 2813992 
3728.069 2857916 2920690 2993850 3064452 3118679 3147214 3146146 3120148 
3731.926 3080236 3039293 3005861 2979070 2949813 2904879 2834003 2736395 
3735.783 2623475 2515284 2433309 2390494 2389229 2422547 2480293 2554078 
3739.641 2639743 2736429 2843574 2955550 3059447 3133664 3151686 3091381 
3743.498 2946677 2741030 2525682 2364908 2302680 2345053 2466297 2626342 
3747.356 2785146 2908181 2974666 2976334 2918489 2816760 2690984 2560077 
3751.213 2437874 2334459 2258813 2217647 2214717 2248388 2310208 2387029 
3755.071 2464198 2530215 2577576 2604642 2614409 2612108 2601642 2585109 
3758.928 2562611 2535114 2507019 2486558 2483092 2503587 2548412 2610609 
3762.785 2677948 2736062 2774475 2788914 2784146 2770707 2761704 2766505 
3766.643 2786080 2813692 2837838 2847243 2834003 2797818 2744898 2687150 
3770.500 2636843 2602642 2588209 2591775 2608275 2631343 2656011 2678581 
3774.358 2697852 2714389 2729793 2745565 2761403 2775009 2781911 2777443 
3778.215 2757869 2723558 2679148 2634643 2600608 2585709 2592809 2618675 
3782.073 2655378 2692784 2722191 2738596 2741563 2734161 2721424 2708221 
3785.930 2696551 2686716 2677715 2668846 2660345 2653545 2649611 2649511 
3789.787 2652711 2658279 2665513 2675348 2689850 2711122 2740063 2774208 
3793.645 2807823 2832902 2841974 2831234 2803521 2768339 2740230 2732861 
3797.502 2753101 2798218 2856415 2908515 2932833 2912951 2841940 2729960 
3801.360 2602708 2496055 2441139 2451735 2521416 2628142 2743364 2836604 
3805.217 2884499 2875059 2811224 2711588 2605708 2523883 2484258 2489890 
3809.074 2530815 2592475 2660679 2727426 2790448 2852313 2915653 2979904 
3812.932 3038626 3080169 3091682 3062517 2992315 2893271 2791916 2719157 
3816.789 2697285 2733861 2817727 2925494 3027147 3095419 3109302 3060581 
3820.647 2958219 2828766 2708188 2626776 2599709 2623542 2682449 2754034 
3824.504 2818028 2861485 2879129 2874926 2859583 2846142 2844675 2859116 
3828.362 2886367 2918689 2947744 2966793 2972698 2967727 2958019 2950013 
3832.219 2950647 2964157 2990980 3029216 3073562 3117778 3153856 3174049 
3836.076 3171946 3144778 3094552 3028516 2958886 2898174 2855681 2835103 
3839.934 2834269 2847076 2865254 2882464 2893938 2897174 2892771 2882397 
3843.791 2869323 2857816 2852112 2856215 2873158 2904612 2950413 3009597 
3847.649 3080302 3161232 3251757 3350749 3454907 3557353 3644553 3697416 
3851.506 3693406 3611375 3443485 3204523 2937703 2698119 2532681 2460932 
3855.364 2474195 2547412 2652478 2767573 2878195 2976801 3060848 3129893 
3859.221 3183928 3222281 3244747 3251924 3245815 3229358 3205057 3173348 
3863.078 3133664 3085442 3031318 2979904 2943841 2936569 2966192 3030584 
3866.936 3116510 3201552 3262373 3278365 3240941 3158662 3056544 2967427 
3870.793 2916287 2912684 2947477 3001790 3053107 3085475 3093150 3081237 
3874.651 3062583 3052273 3060915 3091315 3138237 3190871 3236669 3263475 
3878.508 3262140 3228590 3165771 3084174 2999788 2931365 2893872 2894005 
3882.365 2928062 2982506 3038525 3075164 3076665 3038258 2969495 2893138 
3886.223 2835937 2820629 2855047 2931832 3031852 3132730 3212601 3255329 
3890.080 3254294 3213369 3146079 3070125 3003458 2958319 2940005 2947477 
3893.938 2976268 3021108 3076198 3136301 3196579 3251757 3296560 3326642 
3897.795 3338829 3332852 3311751 3281536 3248753 3219243 3195344 3175217 
3901.653 3153322 3122785 3078834 3020675 2953816 2887301 2833102 2800820 
3905.510 2794417 2812392 2848110 2893838 2941639 2986576 3026747 3062250 
3909.367 3094919 3125388 3154256 3181058 3205257 3226955 3247484 3268383 
3913.225 3290884 3314355 3336024 3351785 3357595 3350382 3330014 3298763 
3917.082 3261339 3222548 3186131 3154357 3128425 3110003 3100692 3102694 
3920.940 3117411 3144244 3179422 3217007 3249521 3270286 3276695 3269785 
3924.797 3254528 3238638 3229091 3229825 3242043 3263041 3289115 3316025 
3928.655 3340632 3360767 3374257 3380034 3376361 3362436 3338696 3307444 
3932.512 3273357 3242177 3218509 3205624 3203855 3210832 3222882 3237002 
3936.369 3250923 3264377 3278465 3294557 3313521 3334455 3355024 3371252 
3940.227 3379500 3377095 3363071 3339263 3309514 3279166 3253660 3237336 
3944.084 3232329 3238505 3253293 3272856 3293221 3310582 3322502 3328178 
3947.942 3327944 3322902 3314489 3304005 3291819 3278732 3265678 3254027 
3951.799 3245415 3241743 3244046 3252258 3265178 3280501 3295625 3308479 
3955.656 3317794 3323437 3326342 3327710 3328378 3329046 3329647 3329513 
3959.514 3328545 3326275 3322769 3318796 3314789 3311484 3310082 3311183 
3963.371 3315123 3322201 3331617 3342368 3353221 3362537 3369348 3373289 
3967.229 3375326 3376361 3378264 3382338 3388716 3397198 3406549 3415132 
3971.086 3422044 3426419 3428657 3429993 3431295 3433867 3438175 3444320 
3974.944 3451467 3458715 3465395 3470839 3474713 3477519 3479256 3480024 
3978.801 3480057 3478721 3475515 3470371 3463190 3454607 3445923 3438442 
3982.658 3433199 3431128 3431963 3435069 3439411 3443586 3447126 3449964 
3986.516 3452436 3455776 3460518 3467131 3475949 3486370 3497860 3509551 
3990.373 3521209 3532399 3542187 3550171 3555549 3557821 3556652 3552843 
3994.231 3546830 3540417 3535172 3532132 3532232 3535606 3541920 3550538 
3998.088 3561028 3572353 3584113 3595639 3605929 3614449 
##END=
