
##TITLE=Z361_2_d
##JCAMP-DX=5.01  $$ Nicolet v. 1
##DATATYPE=INFRARED SPECTRUM
##ORIGIN=UniL
##OWNER=Nicolet
##LONGDATE=2011/09/14
##TIME=11:37:04
##SPECTROMETER/DATA SYSTEM=Nicolet iS5
##DATA PROCESSING=
Ratio against background
%Transmittance->Absorbance
Truncated
ElementMultiply or ElementDivide
##COMMENTS=
Number of sample scans: 32
Collection length: 51.26 sec
Sample gain: 2.0
Background collected on: Mer Sep 14 11:27:19 2011 (GMT+02:00);
Number of background scans: 32
Background gain: 2.0
Sample spacing:  1.000
Number of scan points: 12415
Resolution points: 8192
Number of FFT points: 65536
Apodization: N-B fort;
Phase correction: Mertz;
Laser frequency: 15798.0 cm-1
Number of rejected sample scans: 0
Number of rejected background scans: 0
Bench serial number: ASB1000141;
##RESOLUTION=4.000
##XUNITS=1/CM
##YUNITS=ABSORBANCE
##FIRSTX=649.893372
##LASTX=4000.122314
##FIRSTY=0.084269
##MAXX=4000.122314
##MINX=649.893372
##MAXY=0.221343
##MINY=0.002410
##XFACTOR=1.000000
##YFACTOR=1.000000E-009
##NPOINTS=6950
##DELTAX=0.482117
##ZPD=6100
##XYDATA=(X++(Y..Y))
649.893 84269256 84456208 84706080 85000312 85313176 85623552 85926288 
653.268 86236296 86581184 86991448 87484232 88058328 88693616 89362728 
656.643 90040568 90712408 91375352 92031648 92679424 93310296 93909224 
660.018 94463792 94972976 95448904 95915680 96398312 96916560 97478672 
663.393 98082632 98723656 99402080 100127328 100916696 101791192 102766920 
666.767 103847736 105021704 106275208 107623296 109121760 110885728 
669.660 113073200 115844608 119387656 123886656 129485784 136239728 
672.553 144030656 152538416 161159744 169081056 175415328 179272272 
675.446 180038176 177536592 172105504 164515888 155760080 146856224 
678.338 138563200 131343768 125359520 120517688 116572168 113211344 
681.231 110161088 107203944 104208504 101125176 97959392 94754168 91564888 
684.606 88450896 85461240 82629864 79982160 77534840 75299008 73285144 
687.981 71498800 69941160 68605760 67478904 66540964 65766624 65129952 
691.355 64604616 64166376 63796720 63481152 63209452 62974236 62768020 
694.730 62582180 62407016 62233376 62054608 61868764 61678880 61491940 
698.105 61315460 61156368 61018612 60902780 60808480 60734544 60680624 
701.480 60645232 60625076 60612732 60595816 60561192 60496592 60394572 
704.855 60255872 60088152 59903724 59715300 59532968 59362144 59203500 
708.229 59054976 58912760 58774120 58635716 58494512 58347592 58192464 
711.604 58027732 57854888 57677152 57497716 57317940 57134336 56938656 
714.979 56720440 56469808 56182400 55860476 55513376 55152480 54789328 
718.354 54431440 54081684 53739976 53406408 53081924 52768992 52469140 
721.729 52180256 51895076 51602320 51290856 50952604 50586800 50199176 
725.104 49800380 49401020 49009260 48630452 48267192 47923516 47605584 
728.478 47320472 47073988 46866908 46694128 46545504 46410832 46284088 
731.853 46166004 46063132 45982860 45930224 45903708 45897928 45906948 
735.228 45929636 45971848 46046408 46166408 46341520 46574864 46864696 
738.603 47208716 47610504 48080944 48637976 49302576 50092184 51023136 
741.978 52113752 53391680 54906400 56735620 58983312 61794920 65349468 
745.352 69856352 75572816 82764832 91670784 102432048 114990864 128980624 
748.727 143593424 157659920 169671760 178012896 181431552 179284448 
751.620 171801120 159975968 145353808 129615752 114144280 99987032 87716520 
754.995 77495504 69235120 62691496 57581884 53626108 50593392 48300448 
758.370 46588296 45326996 44406620 43733088 43241488 42890900 42660952 
761.744 42546552 42550208 42678132 42938372 43342268 43904140 44637348 
765.119 45552624 46654472 47941904 49413456 51073892 52938848 55038164 
768.494 57408004 60077956 63057556 66320272 69795112 73356776 76844304 
771.869 80068688 82824728 84930768 86232984 86622888 86055816 84550552 
775.244 82193920 79120720 75509336 71552944 67426152 63291328 59280060 
778.619 55490372 52001580 48866552 46112244 43741920 41734892 40053028 
781.993 38646772 37468000 36474800 35632856 34917196 34307548 33784304 
785.368 33329592 32926430 32561746 32228198 31923686 31648752 31404018 
788.743 31187084 30992994 30815676 30650270 30495020 30351586 30223012 
792.118 30111276 30015862 29933640 29860486 29793124 29730672 29674082 
795.493 29625304 29584974 29551526 29522232 29493932 29466094 29440138 
798.867 29420070 29409078 29408404 29416064 29427836 29439396 29448472 
802.242 29455990 29466060 29482974 29509820 29547022 29592140 29642544 
805.617 29695832 29751750 29811542 29876740 29947450 30021756 30096042 
808.992 30166856 30232248 30292890 30351586 30412138 30477638 30549618 
812.367 30627940 30711432 30798956 30889134 30980256 31069830 31154260 
815.742 31229772 31293898 31346820 31392298 31435932 31484130 31541210 
819.116 31607450 31680114 31754612 31827484 31898010 31968944 32045166 
822.491 32131854 32231446 32344266 32468292 32601174 32741528 32890294 
825.866 33049118 33219806 33402796 33596856 33799848 34010140 34227660 
829.241 34454084 34691968 34943516 35209764 35490488 35785096 36094452 
832.616 36421400 36770152 37144960 37546676 37971696 38409900 38847428 
835.990 39267264 39653160 39992968 40278400 40506836 40680660 40807380 
839.365 40899588 40974484 41055836 41169952 41344880 41608448 41983404 
842.740 42487792 43135572 43936620 44900420 46038188 47362560 48890692 
846.115 50643240 52642096 54910836 57470144 60333040 63498752 66944540 
849.490 70620216 74433040 78248056 81891496 85140216 87759184 89524144 
852.865 90243392 89808256 88207736 85542168 82004424 77868960 73460944 
856.239 69088872 65039576 61536912 58713464 56629604 55274200 54589324 
859.614 54484812 54859400 55616176 56656828 57889832 59229664 60585000 
862.989 61867696 62993660 63882312 64470956 64716944 64600856 64129232 
866.364 63332608 62264124 60987768 59576940 58105184 56631608 55204288 
869.739 53854324 52597476 51440848 50385708 49431796 48577792 47821448 
873.113 47159296 46585156 46092972 45676096 45328912 45047236 44826280 
876.488 44659968 44540712 44459328 44406584 44376344 44365188 44374248 
879.863 44406328 44465420 44553816 44672272 44819560 44994200 45195092 
883.238 45421900 45674664 45953172 46255452 46578852 46919880 47275396 
886.613 47643520 48023576 48415484 48818796 49231872 49651952 50075748 
889.987 50500404 50924400 51347312 51769556 52191652 52612960 53032396 
893.362 53448712 53861564 54272560 54684728 55102488 55530392 55972784 
896.737 56433848 56918668 57434028 57988920 58596164 59269012 60021492 
900.112 60867332 61818296 62884920 64077580 65405244 66875428 68492112 
903.487 70252192 72142112 74133504 76184288 78232456 80199544 81998944 
906.862 83530792 84697024 85412472 85606768 85242616 84322280 82895544 
910.236 81054064 78923736 76658552 74409280 72317368 70507480 69069952 
913.611 68068920 67540336 67490168 67896144 68703592 69829736 71154632 
916.986 72527864 73791672 74780056 75355016 75431328 74985016 74064336 
920.361 72774616 71269520 69711696 68247464 66995496 66024692 65360712 
923.736 64995816 64903116 65048964 65402316 65940908 66649152 67517144 
927.110 68540368 69718688 71057920 72570112 74275992 76202688 78382096 
930.485 80852568 83656632 86840112 90456152 94559032 99200672 104426616 
933.860 110264952 116718800 123754600 131300272 139235616 147384896 
936.753 155542768 163470480 170920864 177685776 183606720 188611488 
939.646 192727456 196088624 198919088 201478384 204042512 206823344 
942.538 209911664 213237584 216541760 219398096 221210352 221342656 
945.431 219220608 214415200 206788080 196513952 184078880 170165040 
948.324 155567904 141083136 127341672 114823800 103818488 94424424 86619088 
951.698 80288112 75271976 71382176 68423688 66212892 64565940 63321604 
955.073 62351360 61554436 60870380 60272360 59755680 59327956 58999104 
958.448 58776172 58661316 58653312 58748328 58940272 59219488 59571428 
961.823 59980216 60429944 60909492 61415296 61949620 62517776 63122040 
965.198 63759156 64420880 65097420 65782620 66477792 67190664 67932752 
968.573 68712712 69533936 70396072 71299160 72249400 73262200 74356632 
971.947 75549320 76842800 78221632 79651344 81088208 82495584 83851152 
975.322 85155448 86427288 87698520 89003544 90372336 91833640 93415136 
978.697 95146024 97060672 99196472 101597336 104326584 107473896 111165248 
982.072 115561288 120807984 126981320 133990672 141526976 148994944 
984.964 155543344 160272304 162351200 161302576 157159264 150477424 
987.857 142195920 133334608 124867128 117479440 111514296 107039384 
990.750 103901992 101847320 100589728 99894560 99591360 99557736 99714864 
994.125 100001296 100366528 100775936 101210832 101667600 102150000 
997.017 102657784 103179400 103693312 104173632 104602336 104976392 
999.910 105306600 105610440 105901552 106184480 106454976 106706200 
1002.803 106937816 107159880 107390472 107649360 107947496 108283760 
1005.695 108646536 109022512 109404408 109796152 110209344 110657512 
1008.588 111146504 111670576 112214336 112759800 113295376 113818736 
1011.481 114335144 114850952 115366768 115875240 116365032 116828528 
1014.374 117270136 117707792 118171080 118689768 119286344 119973656 
1017.266 120756920 121642600 122646536 123795352 125124856 126672488 
1020.159 128468152 130535200 132891848 135554896 138538160 141838064 
1023.052 145412336 149144304 152827664 156184000 158866928 160552224 
1025.945 161010512 160153040 158069984 155002784 151308768 147357968 
1028.838 143487552 139962272 136931248 134449360 132489056 130972816 
1031.731 129794120 128841384 128023176 127266016 126523704 125775232 
1034.624 125016064 124252656 123495832 122759312 122058880 121414136 
1037.517 120851704 120402912 120101168 119981176 120073080 120402560 
1040.410 120991912 121856088 122997976 124397184 126001256 127711072 
1043.303 129378336 130833656 131895680 132416784 132322848 131626624 
1046.196 130432816 128905040 127248568 125658736 124285736 123233304 
1049.089 122542176 122203864 122172832 122384776 122769072 123252704 
1051.982 123773144 124276432 124716400 125059280 125278520 125353768 
1054.875 125272272 125027464 124620328 124059768 123362608 122549992 
1057.768 121640360 120648512 119579840 118433088 117202856 115885576 
1060.661 114483040 113004376 111464648 109881104 108271768 106652696 
1063.554 105037280 103439288 101871032 100344736 98871000 97456824 96105272 
1066.930 94816728 93589864 92424296 91321416 90283608 89313184 88409872 
1070.305 87570560 86788840 86057384 85370200 84723080 84114120 83541832 
1073.680 83002952 82491824 82000464 81519608 81042208 80564448 80086736 
1077.055 79612528 79147640 78698728 78272536 77877088 77521536 77215344 
1080.431 76968384 76788984 76681912 76649336 76691288 76807768 76999872 
1083.806 77271072 77625360 78065472 78590432 79193640 79862272 80579848 
1087.181 81326816 82081952 82825416 83538104 84202640 84806896 85345520 
1090.556 85823720 86257752 86676440 87117888 87622376 88234376 88997472 
1093.932 89952888 91146904 92629144 94453544 96684472 99389168 102634496 
1097.307 106482712 110972304 116101712 121797272 127899048 134130584 
1100.200 140082928 145282096 149203392 151370816 151482544 149455216 
1103.093 145472864 139923088 133351488 126336456 119369560 112853200 
1105.986 107037136 102030800 97844568 94414992 91643032 89412344 87613176 
1109.361 86147112 84924080 83871728 82928952 82045120 81183184 80314536 
1112.737 79417560 78479464 77494400 76464888 75401760 74323248 73252000 
1116.112 72210032 71216968 70287064 69427712 68642240 67930504 67291040 
1119.487 66720628 66214672 65766008 65364412 64997972 64654372 64321576 
1122.862 63990800 63654712 63307696 62945128 62563352 62160384 61736896 
1126.238 61297872 60852808 60414332 59997524 59618632 59292180 59033184 
1129.613 58855424 58771316 58793508 58932912 59198032 59595944 60131952 
1132.988 60811452 61642104 62634728 63803860 65167412 66742992 68546976 
1136.363 70592296 72887664 75436960 78238968 81286856 84563192 88036496 
1139.739 91661160 95368008 99068376 102659296 106014760 108998712 111471840 
1143.114 113288712 114325520 114495944 113768656 112185328 109862624 
1146.007 106989488 103785328 100488448 97329448 94490648 92116232 90301392 
1149.382 89092776 88505328 88528600 89138384 90301680 91982792 94147160 
1152.757 96756544 99769552 103135912 106779624 110593520 114429352 118078176 
1156.133 121295312 123808528 125334232 125639440 124560648 122038696 
1159.026 118138160 113045264 107051808 100489024 93713064 87047552 80732208 
1162.401 74939568 69757016 65200172 61236556 57802308 54822860 52218780 
1165.776 49919792 47866948 46009236 44307720 42732528 41261252 39880396 
1169.151 38582924 37367456 36236448 35195320 34251472 33413246 32692012 
1172.527 32101780 31656806 31370502 31249068 31286206 31456914 31715580 
1175.902 32002612 32244508 32371216 32327916 32081016 31627514 30993314 
1179.277 30231894 29410354 28601552 27876988 27292728 26889842 26692096 
1182.652 26704534 26915116 27293788 27797466 28365816 28927542 29410888 
1186.028 29743872 29869038 29753522 29390996 28804700 28040280 27162872 
1189.403 26241156 25338460 24509640 23790572 23200422 22742858 22410696 
1192.778 22189522 22061670 22010670 22020814 22078090 22171250 22290728 
1196.153 22428698 22579764 22739856 22906224 23076288 23247748 23417844 
1199.529 23583878 23743256 23893798 24033676 24161762 24276430 24376372 
1202.904 24459266 24522822 24564370 24580568 24568122 24522964 24441354 
1206.279 24320126 24157700 23954612 23714734 23444946 23154672 22854706 
1209.654 22556032 22269002 22001574 21760646 21551086 21376708 21240432 
1213.030 21143816 21087430 21070074 21089412 21142670 21226792 21339468 
1216.405 21479258 21644970 21835692 22050026 22286266 22542944 22819156 
1219.780 23115112 23431868 23771356 24135140 24524400 24939206 25379346 
1223.155 25844058 26332678 26844372 27378582 27934614 28512238 29111462 
1226.531 29733510 30380580 31055878 31763382 32506820 33289950 34116216 
1229.906 34989268 35913100 36892060 37929820 39028352 40186216 41397620 
1233.281 42651776 43933252 45223808 46501656 47744440 48930964 50041096 
1236.656 51060368 51981112 52804460 53540868 54209488 54838424 55458896 
1240.031 56106268 56817940 57628380 58570756 59674588 60962296 62450552 
1243.407 64149016 66061028 68185360 70519096 73059704 75806512 78761120 
1246.782 81926152 85304104 88896344 92702968 96722640 100952944 105388696 
1250.157 110017336 114817240 119750880 124759632 129767496 134671632 
1253.050 139337408 143607952 147285440 150139920 151941840 152463152 
1255.943 151525888 149038176 145003792 139532816 132818608 125132544 
1258.836 116781792 108077944 99339176 90838752 82794744 75372160 68662304 
1262.212 62700108 57475628 52948052 49058112 45736876 42917124 40531244 
1265.587 38515720 36816748 35385112 34179484 33167840 32322098 31619888 
1268.962 31043066 30575390 30203974 29917844 29707646 29565962 29485846 
1272.337 29460918 29485350 29553832 29661738 29805972 29984832 30197686 
1275.713 30445188 30728606 31049472 31409078 31807482 32243330 32712698 
1279.088 33208576 33721060 34239136 34751440 35249184 35728400 36190996 
1282.463 36644860 37101292 37573196 38070136 38595092 39142984 39701408 
1285.838 40253060 40780196 41270396 41719644 42134672 42530732 42929924 
1289.214 43357204 43834640 44382104 45015368 45745452 46581244 47528612 
1292.589 48589688 49762364 51038788 52405172 53841084 55322292 56822396 
1295.964 58313068 59768496 61165640 62485672 63716948 64855492 65906012 
1299.339 66880300 67796080 68674368 69534872 70397040 71279088 72196608 
1302.715 73165640 74200200 75310520 76501048 77767336 79095320 80458320 
1306.090 81819608 83133256 84340872 85378432 86177096 86664312 86778808 
1309.465 86474424 85729016 84550032 82973472 81061896 78889680 76542896 
1312.840 74108264 71662312 69276456 67012312 64920396 63049896 61446976 
1316.216 60153264 59206728 58630144 58422636 58549564 58939932 59489380 
1319.591 60061100 60514988 60718352 60561496 59981584 58961984 57535016 
1322.966 55768992 53761388 51623700 49457864 47357572 45394052 43611260 
1326.341 42032860 40664144 39498800 38523832 37723804 37082596 36582748 
1329.717 36206624 35937176 35756820 35650372 35604588 35607432 35648936 
1333.092 35720268 35813520 35923100 36045348 36179148 36325672 36488208 
1336.467 36670960 36878496 37117244 37395192 37722648 38113324 38582420 
1339.842 39143568 39807764 40579440 41454956 42421040 43454500 44520372 
1343.218 45567600 46535404 47353764 47948864 48260676 48247164 47893512 
1346.593 47214372 46253568 45079140 43769148 42410444 41084788 39856752 
1349.968 38776740 37875692 37167304 36652684 36322576 36161324 36147672 
1353.343 36259104 36473976 36771740 37134780 37547148 37990824 38446716 
1356.719 38891384 39297660 39639332 39891076 40032024 40048596 39934264 
1360.094 39689972 39323084 38848988 38291876 37682820 37062388 36473328 
1363.469 35952580 35527596 35210304 34998676 34881400 34843340 34869512 
1366.844 34946856 35065340 35216412 35391872 35584448 35787472 35995380 
1370.219 36204648 36412680 36617136 36816136 37008008 37193184 37375764 
1373.595 37565644 37777260 38026804 38329728 38696720 39133556 39643904 
1376.970 40232416 40907820 41685872 42587152 43636172 44858536 46274580 
1380.345 47896212 49718452 51714460 53825068 55954616 57987100 59785300 
1383.720 61214428 62164744 62549004 62319652 61476480 60082484 58269528 
1387.096 56219924 54150896 52253008 50658060 49436140 48598024 48121916 
1390.471 47971248 48110368 48508132 49139288 49987336 51039940 52285968 
1393.846 53712156 55295160 57000008 58784024 60601836 62412332 64182892 
1397.221 65881988 67477088 68933816 70214064 71287136 72137496 72768704 
1400.597 73201016 73464080 73591512 73613264 73553128 73425120 73227176 
1403.972 72937752 72514752 71908576 71071968 69979312 68637656 67088364 
1407.347 65401696 63661008 61964332 60412428 59099808 58121588 57556388 
1410.722 57456792 57847472 58720748 60045272 61774328 63859128 66251560 
1414.098 68899880 71752672 74749752 77821360 80902784 83928488 86839456 
1417.473 89588400 92132408 94433768 96456312 98175504 99580112 100672696 
1420.848 101468752 101987424 102244416 102247184 101994592 101480760 
1423.741 100701560 99661840 98377848 96872496 95163432 93254032 91129736 
1427.116 88765032 86137336 83248024 80133032 76872904 73581512 70377920 
1430.492 67374840 64657180 62273720 60242968 58553960 57174552 56059972 
1433.867 55163992 54450292 53901364 53527224 53364068 53464040 53867680 
1437.242 54580724 55564964 56747740 58033640 59309080 60456032 61340608 
1440.617 61830256 61826432 61275512 60193452 58656460 56791544 54746104 
1443.993 52656872 50650016 48820132 47228368 45912916 44889508 44158956 
1447.368 43709560 43518036 43547232 43745328 44056192 44424164 44800932 
1450.743 45154392 45467776 45742472 45995420 46257364 46567156 46964952 
1454.118 47494016 48199992 49130640 50330160 51820252 53574944 55507764 
1457.494 57490908 59398196 61135388 62644528 63887036 64826988 65434164 
1460.869 65680004 65536188 64977116 63973100 62497344 60541880 58148328 
1464.244 55432772 52571184 49771620 47206572 44967888 43069488 41470336 
1467.619 40111860 38942376 37929712 37059356 36327616 35733072 35272976 
1470.995 34943124 34742576 34675996 34753704 34987076 35384360 35950672 
1474.370 36688556 37604916 38710772 40017600 41535088 43266452 45207812 
1477.745 47352248 49693148 52227300 54949524 57848944 60904616 64076892 
1481.120 67314136 70559200 73751384 76835600 79759184 82463256 84887784 
1484.496 86968208 88640384 89856904 90591240 90845864 90646224 90038896 
1487.871 89081552 87831744 86354152 84719776 83004920 81290608 79645016 
1491.246 78107072 76676936 75316080 73957432 72513144 70891008 69004032 
1494.621 66783532 64197412 61263264 58055304 54683752 51269824 47916156 
1497.997 44692544 41641268 38788440 36151816 33745484 31576910 29642404 
1501.372 27930198 26420912 25089742 23909656 22849258 21870606 20927044 
1504.747 19967244 18948466 17855074 16724071 15641583 14704828 13970214 
1508.122 13432926 13043472 12744095 12487208 12245229 12009790 11784691 
1511.498 11579412 11400828 11250609 11125187 11018664 10925451 10842723 
1514.873 10769961 10708148 10659076 10625494 10611879 10624068 10667532 
1518.248 10744725 10852982 10983966 11124304 11261796 11389501 11513229 
1521.623 11649109 11818534 12035917 12302082 12607293 12936682 13277731 
1524.999 13622706 13971548 14330739 14708598 15110218 15534118 15972320 
1528.374 16412994 16844644 17256312 17640350 17989292 18293344 18540134 
1531.749 18713860 18800698 18797548 18720086 18605460 18497120 18431570 
1535.124 18423066 18465106 18537126 18614072 18673630 18696704 18671280 
1538.500 18593182 18468112 18311938 18147840 18002934 17899060 17847616 
1541.875 17847720 17887218 17947852 18009704 18059302 18092634 18117058 
1545.250 18146732 18196762 18275166 18379856 18501166 18627318 18750460 
1548.625 18870214 18994880 19137658 19311278 19522360 19769780 20048084 
1552.000 20352992 20684974 21050354 21458858 21918972 22433338 22997922 
1555.376 23603992 24242970 24913238 25622360 26392074 27258118 28267496 
1558.751 29458506 30827592 32337342 33933320 35571684 37238164 38938204 
1562.126 40689904 42513116 44425484 46434872 48526292 50664836 52797164 
1565.501 54858836 56793920 58555780 60103792 61401328 62405908 63073152 
1568.877 63369720 63289292 62862864 62148876 61218244 60131076 58926004 
1572.252 57626072 56241536 54773692 53226628 51610264 49953616 48327964 
1575.627 46850596 45668368 44919564 44679836 44954072 45699252 46860524 
1579.002 48397112 50293512 52560564 55227164 58333760 61923368 66038192 
1582.378 70713320 75971656 81815448 88215168 95105064 102365696 109830112 
1585.753 117292096 124484952 131112024 136865584 141451936 144682720 
1588.646 146531360 147179744 146975600 146377984 145864480 145797968 
1591.539 146402256 147715328 149601280 151759936 153765120 155150640 
1594.432 155414528 154124240 151008192 145986336 139216176 131037552 
1597.325 121921888 112352288 102751976 93485400 84809592 76892832 69826696 
1600.700 63614668 58187124 53413412 49142444 45225828 41549780 38059212 
1604.076 34748856 31651176 28808914 26261360 24030666 22121180 20525430 
1607.451 19226660 18202704 17422592 16848880 16440867 16154684 15951797 
1610.826 15801715 15680330 15570899 15459605 15331590 15170190 14956618 
1614.201 14671171 14298446 13832477 13284563 12685003 12080988 11521974 
1617.577 11042658 10656428 10356995 10126884 9944253 9786876 9634266 9467757 
1621.434 9273725 9046791 8793027 8527754 8271895 8043055 7848881 7686225 
1625.292 7544500 7411752 7278909 7142167 7002234 6863761 6732062 6611505 
1629.149 6505276 6415919 6345241 6294643 6263245 6248051 6241597 6233765 
1633.006 6212791 6167216 6089925 5981102 5851518 5720159 5608810 5533498 
1636.864 5498866 5499000 5523095 5559540 5598573 5632911 5658925 5676348 
1640.721 5688400 5700486 5718044 5743963 5777103 5811018 5836304 5842618 
1644.579 5820790 5767869 5688165 5594982 5506953 5442294 5413675 5424814 
1648.436 5471317 5543767 5631165 5719454 5790601 5822872 5789225 5666177 
1652.293 5449139 5173325 4909616 4724911 4646000 4654239 4712953 4786884 
1656.151 4854260 4905997 4942290 4968766 4992228 5016964 5042238 5064195 
1660.008 5076498 5074587 5056787 5025277 4984888 4942156 4903283 4872555 
1663.866 4852819 4845012 4848329 4859420 4872890 4880764 4873828 4843169 
1667.723 4784103 4698014 4594729 4489126 4398375 4334283 4301219 4295664 
1671.581 4309786 4334082 4358647 4374980 4375315 4354664 4313567 4260496 
1675.438 4211010 4181034 4181536 4212716 4265649 4326452 4381372 4421706 
1679.295 4445740 4459432 4472153 4492172 4520597 4548721 4559135 4531545 
1683.153 4452000 4324377 4175447 4045765 3967913 3948988 3975236 4023157 
1687.010 4072387 4108410 4124967 4122392 4104463 4076802 4044661 4013158 
1690.868 3987174 3971023 3966944 3973765 3984299 3985536 3961560 3898368 
1694.725 3793034 3660091 3532266 3446391 3423480 3459917 3530896 3603824 
1698.583 3644687 3630386 3558923 3456177 3367913 3333086 3365542 3450432 
1702.440 3560560 3668678 3756268 3815128 3846984 3861827 3874798 3900474 
1706.297 3946915 4014529 4097639 4188327 4279334 4365541 4445405 4519994 
1710.155 4592251 4665224 4741525 4821994 4905595 4989580 5069726 5141639 
1714.012 5200788 5242807 5263701 5258905 5224329 5158069 5063793 4952210 
1717.870 4839651 4743870 4676343 4639101 4625538 4624299 4623126 4612009 
1721.727 4585621 4543397 4488289 4425220 4358747 4291214 4223222 4154003 
1725.584 4083391 4012690 3943705 3878041 3816298 3757705 3701259 3647661 
1729.442 3599682 3560928 3534103 3516499 3499063 3465829 3397232 3278832 
1733.299 3110036 2913652 2729126 2597775 2539747 2548545 2599309 2662946 
1737.157 2715223 2739496 2729527 2689483 2631576 2571343 2521216 2486791 
1741.014 2466497 2454368 2444704 2434542 2423713 2414517 2409652 2410952 
1744.872 2419148 2433809 2454234 2479293 2508086 2538780 2568877 2595742 
1748.729 2616275 2628776 2633543 2633376 2633243 2639377 2658245 2693251 
1752.586 2744631 2808857 2879829 2949879 3011065 3057578 3087310 3103362 
1756.444 3113740 3128925 3157027 3200617 3254829 3309581 3353521 3376261 
1760.301 3373389 3346910 3306142 3264176 3232963 3220345 3227422 3249988 
1764.159 3280968 3312552 3338061 3351818 3350516 3333554 3304473 3270486 
1768.016 3241275 3225052 3225285 3238338 3254128 3259970 3243946 3201586 
1771.874 3138704 3071793 3020241 2997653 3007529 3042630 3090948 3141374 
1775.731 3187867 3229859 3270953 3315257 3364139 3414631 3461253 3497192 
1779.588 3519372 3529059 3532366 3536575 3546597 3562298 3579502 3592264 
1783.446 3595706 3589559 3577231 3565471 3560193 3564235 3576295 3592599 
1787.303 3609103 3622735 3633293 3640176 3642181 3636300 3617556 3581206 
1791.161 3526921 3460953 3395796 3346810 3325607 3336125 3373456 3427488 
1795.018 3487072 3544191 3594670 3638104 3676765 3712989 3748213 3782271 
1798.875 3814493 3844945 3875133 3908565 3948787 3998644 4059543 4130654 
1802.733 4210174 4296100 4387330 4483435 4584349 4689707 4798609 4909716 
1806.590 5021322 5131715 5239051 5341315 5436288 5521484 5594915 5655535 
1810.448 5703339 5740068 5768306 5790467 5808701 5823745 5835667 5843592 
1814.305 5847689 5848361 5846883 5844902 5842853 5840267 5835264 5825122 
1818.163 5807593 5780964 5745843 5704078 5658657 5612335 5567058 5522859 
1822.020 5477793 5428706 5371807 5304284 5226106 5140499 5054105 4975235 
1825.877 4910119 4861263 4825177 4794153 4756934 4703373 4628150 4533118 
1829.735 4428200 4327623 4245640 4189598 4158653 4144570 4136575 4125335 
1833.592 4105299 4075765 4040112 4002958 3967780 3935413 3904787 3874798 
1837.450 3846015 3821212 3805434 3803162 3815830 3841101 3871622 3897666 
1841.307 3909334 3897866 3858049 3789825 3699321 3597877 3500299 3420976 
1845.165 3369115 3347444 3351417 3372421 3399937 3424516 3440413 3447059 
1849.022 3447827 3448796 3456043 3472709 3497760 3526620 3553679 3574625 
1852.879 3587621 3594236 3597276 3600216 3604492 3610306 3617456 3625942 
1856.737 3637303 3654210 3678903 3711184 3748782 3787184 3822047 3850428 
1860.594 3872525 3891113 3909735 3930799 3954070 3976975 3996337 4009747 
1864.452 4017204 4020381 4021786 4022053 4019411 4009279 3986907 3950091 
1868.309 3901577 3849224 3803429 3773782 3764657 3774985 3799418 3831842 
1872.167 3867109 3902647 3937753 3972595 4006771 4038842 4066701 4089010 
1876.024 4106102 4120284 4134802 4152398 4174109 4198999 4225129 4250458 
1879.881 4274985 4299579 4326184 4355869 4387698 4418526 4444937 4463717 
1883.739 4474195 4478982 4482363 4488724 4501245 4520262 4543632 4568811 
1887.596 4593256 4616027 4637929 4661171 4687597 4718814 4755427 4797168 
1891.454 4843471 4893531 4946714 5001948 5058362 5115320 5173258 5233819 
1895.311 5298682 5370197 5448300 5531249 5615289 5696188 5770992 5838823 
1899.168 5901929 5963566 6027363 6095537 6167855 6243244 6319890 6397929 
1903.026 6479008 6566864 6664596 6775004 6898401 7034157 7181915 7341416 
1906.883 7514731 7704573 7912685 8137811 8374944 8615451 8847198 9056298 
1910.741 9230163 9355918 9422584 9422619 9351280 9209483 9003421 8745356 
1914.598 8450548 8135617 7816561 7505561 7211560 6941190 6699758 6492629 
1918.456 6324396 6196792 6106928 6046614 6004719 5968807 5929707 5883658 
1922.313 5833618 5787244 5752961 5737282 5741277 5761624 5792347 5828581 
1926.170 5867000 5906867 5948887 5991852 6033478 6070067 6098157 6116270 
1930.028 6126587 6133072 6140633 6151925 6166880 6181735 6192289 6194977 
1933.885 6188491 6174476 6155454 6133509 6109616 6083171 6053838 6022895 
1937.743 5993700 5970184 5955572 5950197 5950096 5949458 5941934 5924165 
1941.600 5897261 5866093 5836741 5813469 5797149 5784692 5771865 5756252 
1945.458 5738155 5721703 5711699 5711329 5720427 5735267 5750947 5762497 
1949.315 5768339 5769414 5768608 5768205 5768272 5767164 5762463 5752525 
1953.172 5738625 5723416 5710322 5701358 5695785 5690280 5680846 5664666 
1957.030 5642141 5616900 5593203 5575851 5566487 5564373 5567091 5572965 
1960.887 5581255 5592565 5608105 5627171 5647177 5664297 5674233 5674569 
1964.745 5665136 5647445 5623949 5596425 5565917 5533464 5500812 5471687 
1968.602 5450783 5441824 5446085 5460849 5480176 5496886 5506551 5508598 
1972.459 5506752 5507759 5517423 5539270 5575113 5624116 5687157 5767265 
1976.317 5867437 5989165 6128334 6274237 6411480 6526566 6610597 6663048 
1980.174 6691884 6708641 6725298 6749730 6784327 6827273 6875846 6927791 
1984.032 6982705 7042239 7106598 7173628 7238647 7295285 7338248 7366118 
1987.889 7381554 7390047 7397832 7409628 7426616 7447581 7470469 7493425 
1991.747 7517799 7545443 7578350 7617127 7659246 7700323 7735468 7760091 
1995.604 7771796 7770413 7756549 7732095 7699210 7660190 7617498 7574743 
1999.461 7534149 7496931 7461502 7424559 7380677 7325679 7257919 7180568 
2003.319 7099155 7021294 6952974 6897761 6855245 6822897 6798193 6780894 
2007.176 6772042 6774432 6788197 6811891 6841747 6872749 6901498 6927016 
2011.034 6949776 6970819 6988934 7001729 7004591 6994052 6969203 6933380 
2014.891 6892812 6854740 6825220 6807145 6799943 6802299 6812969 6832423 
2018.749 6862078 6901902 6948227 6995298 7035067 7060593 7070696 7068642 
2022.606 7062849 7062546 7074502 7099593 7134285 7172213 7206372 7234503 
2026.463 7256301 7273586 7288343 7300744 7309268 7313649 7315402 7318704 
2030.321 7330531 7356514 7397967 7451491 7508528 7558963 7595344 7614733 
2034.178 7619251 7613890 7604482 7593793 7581352 7564998 7540960 7508224 
2038.036 7467064 7419032 7366725 7312436 7257379 7204351 7157224 7120947 
2041.893 7101412 7101378 7120340 7153282 7192223 7229550 7260210 7283626 
2045.750 7302934 7324466 7353178 7391327 7438042 7489717 7540521 7585398 
2049.608 7620061 7641339 7647476 7638675 7616487 7585263 7550535 7518877 
2053.465 7496290 7484862 7482705 7484559 7482975 7471716 7448053 7414111 
2057.323 7375588 7338687 7309201 7289759 7279078 7274765 7273788 7273148 
2061.180 7271732 7268633 7263006 7252999 7237400 7215030 7187002 7156112 
2065.038 7125527 7098549 7076725 7059616 7045405 7033214 7023078 7016815 
2068.895 7016613 7023954 7037289 7053622 7067632 7074940 7074030 7065948 
2072.752 7053655 7041263 7031329 7023853 7017488 7009979 7000551 6990113 
2076.610 6981392 6976846 6978361 6985331 6994624 7003548 7009104 7010080 
2080.467 7007218 7002470 6997689 6994254 6993008 6994019 6998194 7006006 
2084.325 7017994 7033955 7052275 7070292 7085144 7094912 7099088 7099357 
2088.182 7097437 7095349 7093766 7091981 7089118 7085313 7082046 7082652 
2092.040 7091712 7112358 7145973 7191482 7246126 7306775 7371544 7439795 
2095.897 7511528 7586814 7663866 7739684 7811264 7876683 7937048 7996748 
2099.754 8061856 8138891 8232115 8342551 8467847 8603959 8746539 8892310 
2103.612 9039179 9186132 9332287 9475580 9613466 9742382 9859168 9961237 
2107.469 10047054 10115556 10166364 10199334 10214429 10212292 10195229 
2110.844 10165821 10127800 10084220 10036677 9984936 9927200 9860998 9783759 
2114.702 9695012 9595851 9488686 9376774 9262892 9148907 9035999 8924541 
2118.559 8814837 8707391 8602371 8499945 8399907 8301987 8205642 8110972 
2122.417 8017977 7926891 7837815 7750073 7662922 7575822 7489144 7404235 
2126.274 7323354 7248889 7181915 7121923 7067227 7014896 6963546 6913180 
2130.132 6865209 6823268 6790519 6769282 6760465 6763528 6777360 6801188 
2133.989 6834005 6875274 6923212 6975466 7029207 7081777 7132197 7179725 
2137.846 7225575 7269880 7311358 7347280 7373769 7388260 7390047 7381722 
2141.704 7368073 7355233 7346808 7344853 7349571 7359479 7373971 7393720 
2145.561 7420279 7453648 7491773 7530272 7561627 7580104 7582768 7571405 
2149.419 7551749 7531284 7515978 7507921 7505392 7503201 7496830 7483581 
2153.276 7463895 7440873 7418256 7400427 7390856 7393990 7416538 7466626 
2157.134 7552220 7677457 7838287 8020508 8204055 8367580 8495181 8581756 
2160.991 8631539 8655402 8665779 8672033 8678928 8687885 8697825 8707526 
2164.848 8717567 8727438 8736058 8740048 8734740 8715031 8679469 8630389 
2168.706 8573949 8518867 8473556 8443082 8428724 8428724 8439399 8457778 
2172.563 8482342 8511737 8544548 8578342 8607711 8628227 8635054 8626469 
2176.421 8603824 8571178 8532755 8493626 8456698 8423251 8395009 8372478 
2180.278 8356400 8347178 8343395 8342111 8339950 8333025 8319617 8300332 
2184.135 8277333 8253828 8232081 8211956 8193486 8174916 8156819 8140478 
2187.993 8129033 8125015 8128729 8138554 8149729 8157764 8158912 8152058 
2191.850 8138858 8122484 8106448 8092574 8082041 8074581 8070396 8070294 
2195.708 8075965 8088827 8108508 8132983 8158304 8180925 8197605 8207262 
2199.565 8211011 8210268 8206891 8201623 8194634 8186429 8178866 8174916 
2203.423 8179642 8196356 8227185 8271085 8324447 8382645 8442507 8503628 
2207.280 8567528 8638603 8720676 8815547 8923053 9039686 9160852 9281646 
2211.137 9398578 9508972 9612822 9710158 9802364 9890081 9974392 10054785 
2214.995 10130411 10199131 10258226 10304945 10337654 10355841 10361135 
2218.370 10356249 10344101 10327067 10306370 10280889 10250355 10213378 
2221.745 10170027 10121560 10069672 10015587 9959237 9899640 9834358 9761833 
2225.603 9681121 9593582 9502165 9410733 9322301 9239842 9164405 9096933 
2229.460 9037995 8987793 8947067 8915341 8891059 8871850 8854603 8836883 
2233.318 8816662 8794076 8769597 8744679 8721048 8699312 8680584 8666623 
2237.175 8658647 8658410 8666894 8683255 8704957 8727573 8747384 8760908 
2241.032 8767297 8767264 8763342 8757290 8750360 8742414 8732644 8720946 
2244.890 8708439 8697993 8692922 8696404 8709318 8730041 8754856 8779029 
2248.747 8798134 8809528 8812639 8808683 8800500 8791438 8784913 8784101 
2252.605 8791573 8808243 8833976 8865729 8898803 8927991 8949198 8960293 
2256.462 8962965 8961138 8960428 8965502 8978761 8999498 9024734 9050513 
2260.320 9073012 9090910 9104512 9115305 9125321 9136115 9148128 9160649 
2264.177 9173170 9184676 9194965 9203832 9210905 9216185 9219739 9221870 
2268.034 9223495 9225932 9229993 9235815 9242821 9248913 9252264 9251046 
2271.892 9244514 9233411 9218554 9201191 9181901 9160784 9137706 9113038 
2275.749 9087932 9064316 9044389 9029672 9020471 9015396 9012420 9009037 
2279.607 9003421 8994626 8982955 8969560 8954948 8940607 8927112 8914902 
2283.464 8905297 8899041 8896537 8897316 8900224 8903031 8903775 8901340 
2287.322 8895827 8888928 8883010 8880237 8882164 8888692 8898973 8911554 
2291.179 8924914 8937969 8950619 8962525 8973417 8983260 8991751 8999260 
2295.036 9006872 9016242 9029098 9046555 9068714 9094057 9120448 9145387 
2298.894 9166638 9183255 9195236 9203155 9208468 9212123 9215508 9220110 
2302.751 9227523 9239639 9258052 9283845 9317189 9356731 9400778 9446966 
2306.609 9493698 9539691 9584097 9626610 9666518 9703008 9735096 9762205 
2310.466 9784233 9802262 9817852 9832527 9847847 9864558 9882793 9902759 
2314.323 9924726 9949846 9979715 10016332 10061093 10114641 10176302 
2317.699 10244451 10316888 10391202 10464850 10535523 10601149 10659620 
2321.074 10709133 10748122 10775396 10790681 10794315 10787420 10771762 
2324.449 10749582 10723057 10695378 10669027 10647022 10632183 10626309 
2327.824 10630078 10642981 10663220 10688077 10714702 10740683 10764323 
2331.200 10784974 10802978 10819181 10834808 10851589 10871226 10894431 
2334.575 10922530 10955217 10992054 11031205 11070970 11109788 11146536 
2337.950 11181043 11213342 11243978 11273188 11300188 11324335 11344264 
2341.325 11358447 11365794 11364569 11352631 11326783 11283661 11220482 
2344.701 11136813 11036676 10928918 10826756 10745065 10696941 10691948 
2348.076 10733925 10821084 10946892 11102174 11276213 11457399 11636959 
2351.451 11807843 11966090 12110936 12242912 12363134 12471795 12568886 
2354.826 12653856 12726762 12789411 12844286 12893877 12940574 12984714 
2358.202 13026229 13063686 13096262 13124093 13148376 13170097 13190215 
2361.577 13208181 13222424 13231169 13232638 13226558 13213510 13194450 
2364.952 13170234 13140759 13104424 13060100 13006939 12945489 12877835 
2368.327 12807360 12736794 12668013 12601290 12535395 12468521 12399476 
2371.703 12327544 12253341 12177924 12102690 12028286 11955293 11883434 
2375.078 11813120 11744417 11677699 11613000 11549807 11486862 11422735 
2378.453 11356066 11286518 11214940 11143374 11074438 11011323 10956203 
2381.828 10910943 10876594 10853900 10842995 10843878 10856345 10878938 
2385.204 10909142 10944140 10980500 11015877 11049116 11080861 11112847 
2388.579 11147385 11186346 11230648 11279784 11332633 11387698 11443962 
2391.954 11500947 11558723 11617322 11676610 11735804 11793713 11849212 
2395.329 11901687 11950660 11996471 12039869 12081430 12121225 12159319 
2398.705 12195439 12229314 12261010 12290595 12318171 12343498 12366202 
2402.080 12385703 12401454 12413489 12422729 12430707 12439572 12451473 
2405.455 12467805 12489391 12515376 12544194 12573833 12602245 12628407 
2408.830 12652081 12674392 12697523 12723897 12755765 12794597 12840770 
2412.206 12893639 12951770 13013529 13077446 13142775 13209240 13277320 
2415.581 13347975 13421819 13499469 13581167 13666676 13755622 13847665 
2418.956 13942190 14038927 14137979 14239416 14343512 14450924 14561855 
2422.331 14676380 14794329 14915568 15039790 15166931 15297300 15431486 
2425.707 15570074 15713448 15861714 16014500 16171191 16331485 16495517 
2429.082 16664501 16840408 17025962 17224386 17438768 17671822 17925442 
2432.457 18200942 18498364 18817098 19155596 19511894 19883744 20268934 
2435.832 20665826 21072264 21486256 21904652 22322436 22733396 23130384 
2439.208 23504752 23849304 24156892 24422146 24640286 24807944 24922080 
2442.583 24980898 24983916 24932714 24831310 24685982 24504522 24295140 
2445.958 24066140 23824594 23575726 23323960 23072446 22823766 22580392 
2449.333 22344692 22118810 21904756 21703972 21517730 21347334 21193984 
2452.708 21058944 20943732 20849340 20775958 20722854 20688832 20671734 
2456.084 20669720 20681116 20704990 20741100 20789932 20852016 20928364 
2459.459 21019228 21124684 21243668 21374968 21516860 21667364 21825064 
2462.834 21989652 22161244 22341202 22531008 22732244 22945764 23172146 
2466.209 23411760 23665362 23934654 24221666 24529450 24860150 25215610 
2469.585 25595052 25997020 26418130 26854452 27302678 27760270 28226372 
2472.960 28700866 29185164 29680754 30189872 30714490 31256512 31817890 
2476.335 32400060 33004354 33631512 34281624 34953752 35646092 36354996 
2479.710 37074692 37797500 38512968 39207896 39868196 40476468 41014684 
2483.086 41464724 41807672 42026252 42106524 42037092 41812120 41430060 
2486.461 40894892 40214424 39400972 38471044 37443800 36341344 35188352 
2489.836 34008380 32824464 31657412 30523454 29435566 28403166 27431908 
2493.211 26525400 25685140 24911098 24203204 23559914 22980314 22462264 
2496.587 22003282 21600010 21248434 20943942 20681952 20457836 20267648 
2499.962 20107806 19974840 19865362 19775780 19701992 19640038 19585822 
2503.337 19536014 19487842 19439848 19390820 19340620 19289176 19236424 
2506.712 19182190 19126406 19068722 19009280 18948120 18885546 18821908 
2510.088 18757380 18691998 18625138 18556526 18485642 18412592 18337686 
2513.463 18262138 18187052 18113742 18043240 17975962 17912078 17851380 
2516.838 17793522 17738362 17686074 17637174 17591696 17549984 17511724 
2520.213 17476642 17444046 17413522 17384654 17357204 17330650 17304652 
2523.589 17278240 17250554 17221286 17190292 17158064 17125766 17094748 
2526.964 17066314 17041228 17019724 17001980 16987542 16975966 16967352 
2530.339 16961770 16959496 16960736 16965664 16974760 16987922 17005530 
2533.714 17027548 17053460 17083030 17114702 17147482 17179676 17210356 
2537.090 17238384 17264208 17288032 17310686 17332996 17355374 17377792 
2540.465 17399966 17421144 17440908 17458394 17473296 17485162 17494096 
2543.840 17500272 17504480 17507618 17510654 17514760 17520556 17528524 
2547.215 17538978 17552018 17567752 17586244 17607984 17633102 17661676 
2550.591 17693874 17729078 17767046 17807156 17849240 17893260 17939220 
2553.966 17986668 18035296 18084310 18132708 18179970 18225544 18269844 
2557.341 18313804 18358494 18405020 18454732 18508254 18565864 18627906 
2560.716 18693762 18762916 18834642 18907900 18981624 19054978 19127236 
2564.092 19198294 19268152 19337018 19405474 19473634 19541386 19608804 
2567.467 19675676 19742074 19808482 19876008 19945214 20017066 20091912 
2570.842 20169446 20249076 20330040 20412026 20495034 20580004 20668050 
2574.217 20760494 20858308 20961466 21069276 21180588 21293810 21407756 
2577.593 21521910 21636402 21752148 21870290 21992092 22118670 22250586 
2580.968 22388438 22532510 22683124 22841018 23006656 23180780 23364134 
2584.343 23557570 23761872 23978210 24207374 24450572 24708148 24980194 
2587.718 25266320 25565214 25875956 26197088 26527160 26865026 27208728 
2591.094 27555774 27902462 28244050 28575294 28890746 29184988 29454074 
2594.469 29694482 29903858 30080486 30223368 30331938 30406416 30447782 
2597.844 30457700 30438722 30393908 30326786 30240454 30138052 30022182 
2601.219 29894346 29755972 29607390 29448968 29281140 29104552 28920954 
2604.594 28732512 28542066 28352444 28166264 27985608 27811666 27645280 
2607.970 27486478 27335176 27190986 27053928 26923788 26800384 26683570 
2611.345 26573408 26469472 26371934 26280578 26194978 26115024 26040258 
2614.720 25970146 25905076 25845396 25792298 25747468 25712912 25689956 
2618.095 25679936 25683276 25699974 25729258 25770954 25824682 25891008 
2621.471 25970638 26064638 26173756 26298566 26438660 26593346 26761268 
2624.846 26940994 27131092 27329956 27536286 27748544 27965040 28184190 
2628.221 28404052 28622714 28838266 29048468 29251862 29446804 29631512 
2631.596 29804728 29964632 30109180 30236048 30342524 30425536 30482400 
2634.972 30510764 30508988 30476146 30412634 30319394 30198326 30052434 
2638.347 29885330 29701046 29504252 29299358 29090840 28882388 28676938 
2641.722 28477104 28284824 28101358 27928326 27766840 27617596 27481464 
2645.097 27359102 27250922 27157686 27079814 27018208 26973076 26944588 
2648.473 26932390 26935882 26953790 26985346 27029280 27084750 27151020 
2651.848 27226896 27311078 27401910 27497208 27595210 27694012 27792414 
2655.223 27889954 27986492 28082308 28177896 28273614 28369352 28465748 
2658.598 28562660 28660374 28758922 28858272 28958532 29059416 29161280 
2661.974 29264656 29370754 29480918 29596786 29719708 29850370 29989020 
2665.349 30135246 30288306 30447392 30611834 30780960 30954600 31132224 
2668.724 31313236 31496994 31682930 31870768 32060612 32252860 32448440 
2672.099 32648250 32852982 33063206 33279222 33501104 33728256 33960404 
2675.475 34196688 34435792 34677072 34919208 35161548 35403876 35646092 
2678.850 35888516 36130932 36373516 36615512 36856064 37094616 37330372 
2682.225 37563368 37793452 38021020 38246460 38470212 38692628 38914432 
2685.600 39136352 39359508 39585244 39814732 40049212 40289488 40536372 
2688.976 40790236 41051576 41320684 41598092 41884068 42178524 42481692 
2692.351 42793628 43114532 43444792 43784576 44134308 44493720 44862324 
2695.726 45239068 45623060 46013764 46410540 46813392 47222308 47637160 
2699.101 48056884 48480352 48905676 49331268 49756236 50179836 50601616 
2702.477 51021720 51439732 51854672 52266088 52672696 53074028 53469436 
2705.852 53858488 54240832 54615776 54982204 55339004 55685440 56020804 
2709.227 56344772 56656940 56957088 57244480 57518216 57777404 58021484 
2712.602 58250092 58463460 58661696 58844192 59010488 59158276 59285872 
2715.978 59390904 59472208 59528864 59560860 59568464 59551552 59509824 
2719.353 59442076 59346532 59221196 59064008 58873448 58648760 58390228 
2722.728 58098860 57776796 57427032 57052564 56656408 56241456 55810400 
2726.103 55365768 54910948 54449916 53987800 53530188 53083276 52651896 
2729.479 52240452 51852064 51488372 51150640 50839388 50555308 50298980 
2732.854 50071172 49872104 49701992 49560356 49446352 49358588 49295224 
2736.229 49254248 49232984 49228644 49238920 49261520 49295112 49338984 
2739.604 49392928 49456936 49530756 49613880 49705668 49805956 49915036 
2742.979 50034548 50167116 50315648 50482760 50670680 50879840 51109712 
2746.355 51358388 51624148 51904412 52197216 52500920 52813664 53133784 
2749.730 53460256 53791804 54128000 54468848 54814288 55164216 55518308 
2753.105 55874756 56232104 56587972 56940316 57287388 57627472 57958888 
2756.480 58279760 58587896 58880656 59155656 59411036 59645696 59859224 
2759.856 60052236 60225424 60380404 60519332 60645040 60760880 60870952 
2763.231 60978956 61087908 61199284 61313096 61427392 61538556 61642144 
2766.606 61733036 61805308 61853672 61872856 61858260 61806304 61715432 
2769.981 61585172 61416896 61212944 60976172 60709316 60415244 60096984 
2773.357 59757160 59399908 59029276 58649368 58264828 57879380 57496508 
2776.732 57119448 56751212 56394648 56053076 55728568 55423208 55138072 
2780.107 54873088 54628248 54403120 54196764 54009076 53838872 53684632 
2783.482 53543940 53413564 53290076 53170000 53050180 52928216 52801504 
2786.858 52667608 52523764 52366816 52193556 52001728 51789600 51556684 
2790.233 51302936 51028948 50735100 50422064 50090400 49741260 49376780 
2793.608 49000320 48615332 48225872 47835392 47446300 47059952 46677012 
2796.983 46297836 45922748 45552072 45186560 44827496 44475844 44132844 
2800.359 43799676 43477456 43166972 42868812 42583244 42310248 42049576 
2803.734 41801172 41565384 41343240 41136256 40945972 40773752 40620044 
2807.109 40484612 40366492 40264552 40177528 40104484 40045468 40000560 
2810.484 39970188 39954460 39953192 39965724 39991408 40029044 40077520 
2813.860 40135808 40202788 40277236 40358128 40444244 40534300 40627140 
2817.235 40721452 40815644 40908400 40998260 41084756 41167764 41248172 
2820.610 41327680 41408116 41491592 41580076 41674932 41777680 41889944 
2823.985 42013768 42151032 42304148 42474820 42664424 42873456 43102492 
2827.361 43351752 43622692 43916900 44235956 44581352 44952748 45347556 
2830.736 45761172 46185940 46613008 47032112 47431888 47802140 48132948 
2834.111 48416188 48646168 48820244 48938532 49004292 49022872 49000432 
2837.486 48943316 48857468 48748504 48621264 48481164 48334036 48186220 
2840.862 48044340 47914416 47801728 47711080 47646072 47610060 47606548 
2844.237 47638860 47710596 47824516 47981796 48181556 48420080 48690568 
2847.612 48982776 49283976 49579816 49854448 50093372 50283988 50417636 
2850.987 50490464 50503752 50464340 50381912 50269700 50141976 50012132 
2854.363 49892768 49794804 49726924 49695304 49704704 49757200 49853524 
2857.738 49992688 50172508 50389464 50639556 50918284 51220648 51541724 
2861.113 51876700 52220832 52570248 52920768 53268388 53608752 53936852 
2864.488 54246764 54532972 54789592 55012288 55197892 55345064 55453964 
2867.864 55525760 55562288 55566016 55539732 55487132 55412252 55320600 
2871.239 55217680 55109328 55001196 54898200 54804856 54725016 54662672 
2874.614 54621188 54604316 54614840 54654968 54725808 54827368 54958472 
2877.989 55116856 55299824 55504188 55726652 55963772 56213176 56472260 
2881.365 56739508 57013720 57294192 57580180 57870828 58164656 58460280 
2884.740 58755764 59050152 59342200 59631784 59918900 60203960 60487220 
2888.115 60769112 61050152 61330760 61611708 61893524 62176788 62461188 
2891.490 62746428 63031548 63315360 63596600 63874096 64146324 64411656 
2894.865 64667872 64912236 65142036 65354668 65548212 65721520 65874124 
2898.241 66005520 66115656 66203944 66270208 66314324 66336944 66339420 
2901.616 66323780 66292284 66246620 66188620 66119588 66041156 65955260 
2904.991 65865100 65774068 65685712 65602892 65527864 65462060 65406396 
2908.366 65361908 65329940 65312416 65311456 65328672 65364560 65418720 
2911.742 65488680 65571332 65661928 65755172 65845088 65924600 65986424 
2915.117 66023416 66028820 65997644 65927528 65818360 65672644 65494732 
2918.492 65289700 65062128 64815836 64552756 64272820 63974864 63656592 
2921.867 63315816 62951372 62563696 62155032 61729600 61293140 60851132 
2925.243 60409112 59971692 59541820 59121600 58712176 58314092 57927692 
2928.618 57552868 57189064 56835504 56490900 56154344 55825096 55503244 
2931.993 55189424 54885232 54591732 54310480 54041832 53785916 53542068 
2935.368 53309332 53086420 52871928 52664540 52462744 52265380 52071276 
2938.744 51879728 51690536 51504528 51322216 51145196 50974472 50811040 
2942.119 50655416 50507436 50366656 50232244 50102968 49978076 49856644 
2945.494 49738176 49622308 49508772 49397416 49288060 49180512 49074544 
2948.869 48970572 48869408 48772524 48682228 48601252 48532592 48479088 
2952.245 48443856 48429596 48439264 48476016 48542556 48640684 48770636 
2955.620 48929852 49112204 49309032 49508700 49697944 49864560 49997072 
2958.995 50086680 50128404 50120256 50063772 49963316 49826020 49660792 
2962.370 49477396 49286056 49096024 48915168 48749728 48604660 48483612 
2965.746 48389484 48324224 48289040 48283340 48305076 48350000 48411560 
2969.121 48482720 48555192 48621484 48674928 48710212 48723152 48711436 
2972.496 48673704 48610404 48522956 48414484 48288784 48149716 48000964 
2975.871 47844828 47682716 47514752 47340276 47158596 46969084 46772208 
2979.247 46568856 46361172 46151892 45944000 45740812 45545152 45359108 
2982.622 45184060 45020404 44867980 44726480 44595712 44475880 44367720 
2985.997 44271800 44188816 44119016 44062316 44019008 43989416 43974680 
2989.372 43975996 43994956 44032136 44087436 44160168 44249492 44355752 
2992.748 44480688 44628244 44803540 45011032 45252932 45527012 45825824 
2996.123 46135312 46436348 46707564 46925896 47070696 47127384 47088016 
2999.498 46954544 46738184 46460540 46149276 45835692 45552660 45327992 
3002.873 45183072 45130752 45173544 45304088 45505116 45753440 46018740 
3006.249 46267504 46468316 46591540 46614776 46525884 46323236 46016344 
3009.624 45622396 45165676 44671796 44164384 43664824 43188784 42746640 
3012.999 42344728 41985336 41668436 41391824 41152756 40947864 40773788 
3016.374 40627540 40506292 40406856 40326460 40261532 40208244 40163352 
3019.750 40123812 40087584 40053932 40022724 39994384 39969284 39947196 
3023.125 39927724 39910036 39893472 39877672 39862888 39849636 39838156 
3026.500 39828824 39821380 39815244 39809760 39804492 39798900 39792836 
3029.875 39786264 39778964 39770832 39761680 39750896 39738116 39722648 
3033.250 39703624 39680496 39652364 39618928 39580492 39537772 39491576 
3036.626 39443316 39393684 39342856 39290584 39236400 39180008 39121740 
3040.001 39062532 39004100 38948208 38896164 38848876 38806412 38768372 
3043.376 38733992 38703020 38674912 38649596 38627036 38607224 38589804 
3046.751 38575176 38563264 38554500 38549648 38549284 38553776 38563480 
3050.127 38578436 38598604 38624572 38656988 38696828 38745404 38803804 
3053.502 38872724 38952812 39044372 39147588 39263200 39391396 39532436 
3056.877 39686088 39850868 40024252 40203008 40381804 40554308 40713156 
3060.252 40848876 40951364 41009984 41013880 40954456 40825620 40625104 
3063.628 40355296 40022868 39638928 39216344 38770328 38316084 37866872 
3067.003 37434484 37027892 36652500 36311408 36004920 35731744 35489480 
3070.378 35275164 35086604 34921540 34778360 34655612 34551592 34464560 
3073.753 34392108 34331896 34281800 34239996 34205112 34175684 34150804 
3077.129 34128764 34107832 34085752 34060344 34030024 33994048 33952916 
3080.504 33907952 33861848 33817292 33776820 33742796 33716300 33697928 
3083.879 33687652 33684752 33688188 33696244 33706556 33715044 33716584 
3087.254 33705448 33674940 33619592 33535932 33422872 33282728 33119776 
3090.630 32940510 32751926 32559886 32369502 32184378 32006644 31837822 
3094.005 31679224 31531766 31396430 31273636 31163124 31063780 30973850 
3097.380 30891090 30812758 30736788 30660794 30582964 30501986 30416972 
3100.755 30327566 30234308 30138266 30040858 29943438 29847282 29752530 
3104.131 29658934 29565572 29471414 29375752 29278302 29179636 29080354 
3107.506 28981094 28882388 28784130 28685824 28586970 28487222 28386614 
3110.881 28285460 28184826 28085312 27987304 27891156 27796300 27702664 
3114.256 27609688 27517366 27425732 27335002 27245488 27156946 27069408 
3117.632 26982174 26894602 26805954 26715528 26622796 26527618 26429820 
3121.007 26330004 26229152 26128220 26028964 25932966 25841386 25754536 
3124.382 25671922 25592030 25512714 25431762 25347874 25260806 25171580 
3127.757 25081950 24994376 24910642 24831592 24756938 24685280 24614652 
3131.133 24543474 24470870 24396910 24322438 24248994 24177350 24108590 
3134.508 24042748 23979506 23918304 23858720 23800300 23743010 23686424 
3137.883 23630024 23573452 23515874 23456592 23395254 23331898 23266592 
3141.258 23199862 23131572 23062278 22992332 22921942 22851772 22782770 
3144.634 22715764 22651146 22589642 22531112 22475176 22421510 22369354 
3148.009 22318320 22268234 22218676 22169088 22118984 22067596 22014158 
3151.384 21958354 21899910 21839246 21777056 21714248 21651692 21590434 
3154.759 21530822 21473200 21417504 21363518 21310550 21258630 21207726 
3158.135 21158394 21111362 21067362 21026982 20990120 20956076 20923462 
3161.510 20890676 20856536 20820416 20783050 20745374 20709578 20677398 
3164.885 20649948 20627814 20610544 20597760 20588726 20583340 20581742 
3168.260 20584904 20593520 20608774 20631358 20662352 20702384 20752638 
3171.635 20814160 20888208 20976106 21078736 21196662 21330524 21480756 
3175.011 21647338 21830534 22030192 22246122 22478210 22725924 22988698 
3178.386 23265822 23556310 23858056 24167858 24481596 24793212 25095710 
3181.761 25382192 25645382 25879156 26078958 26241226 26364434 26448098 
3185.136 26493138 26501134 26474542 26415982 26328912 26216516 26083356 
3188.512 25934268 25774824 25611640 25450664 25297402 25155534 25026314 
3191.887 24908502 24798788 24692612 24585442 24473044 24353346 24225380 
3195.262 24089396 23946978 23799810 23650490 23501114 23354448 23212794 
3198.637 23077652 22950026 22829738 22715870 22606918 22501660 22399600 
3202.013 22300950 22206506 22117694 22035456 21960168 21891582 21828792 
3205.388 21770716 21716442 21664754 21615438 21568114 21522708 21479468 
3208.763 21438946 21401980 21369470 21342150 21320258 21303624 21291268 
3212.138 21282048 21274948 21269626 21266182 21265276 21267676 21273662 
3215.514 21282812 21294194 21306650 21319110 21331394 21343750 21357498 
3218.889 21373506 21392546 21414998 21440198 21467456 21495726 21524762 
3222.264 21554080 21583886 21614532 21645912 21678196 21710764 21742916 
3225.639 21773782 21802662 21828792 21851928 21872418 21891130 21909914 
3229.015 21930752 21955670 21985992 22022522 22064354 22110128 22157652 
3232.390 22204516 22248982 22289718 22326936 22361402 22394472 22428176 
3235.765 22464358 22504312 22548528 22597006 22648388 22700962 22753262 
3239.140 22804070 22853240 22901508 22950026 22999948 23051726 23104732 
3242.516 23157536 23208810 23257536 23304102 23350182 23397912 23449912 
3245.891 23507410 23570514 23638070 23708084 23778636 23848360 23917078 
3249.266 23985248 24053534 24122460 24191608 24260488 24328046 24394002 
3252.641 24458214 24521702 24585268 24649650 24715444 24782336 24849798 
3256.017 24917272 24983986 25050006 25115616 25181410 25248058 25315806 
3259.392 25384476 25453792 25523080 25591292 25657862 25722158 25784036 
3262.767 25843918 25902402 25960156 26018024 26075862 26133498 26190120 
3266.142 26244990 26297580 26348064 26396864 26444962 26493174 26541672 
3269.518 26589964 26637240 26682302 26724408 26763488 26800280 26835594 
3272.893 26870666 26905704 26940676 26974698 27006924 27036508 27063272 
3276.268 27087536 27109860 27131198 27152326 27173770 27196170 27219700 
3279.643 27244640 27271454 27299928 27329424 27358996 27387264 27412990 
3283.019 27435436 27454568 27470698 27484924 27498056 27510832 27523364 
3286.394 27535158 27545748 27554680 27561776 27567248 27571874 27576038 
3289.769 27580524 27585254 27589986 27594398 27598072 27600578 27602026 
3293.144 27602874 27603616 27604780 27606828 27609936 27614066 27618940 
3296.520 27623812 27628050 27631156 27632462 27631862 27629814 27626426 
3299.895 27623000 27619998 27618268 27618126 27619644 27622222 27625506 
3303.270 27628826 27632004 27634756 27637688 27640548 27643620 27647046 
3306.645 27650542 27653932 27657426 27661242 27666186 27673672 27684442 
3310.021 27699452 27719194 27742964 27770126 27799374 27829364 27858898 
3313.396 27887022 27913274 27937866 27960942 27983346 28005680 28029112 
3316.771 28054066 28081210 28110728 28142296 28175634 28210672 28246914 
3320.146 28284930 28325176 28367760 28412930 28460300 28508982 28558096 
3323.521 28606790 28654674 28701822 28748478 28795140 28841806 28888090 
3326.897 28932854 28974896 29013328 29047442 29077590 29104410 29128576 
3330.272 29150862 29171166 29188956 29203592 29214154 29220250 29222234 
3333.647 29220498 29216172 29210184 29203274 29195654 29187184 29177296 
3337.022 29165036 29149834 29131020 29108450 29082656 29054278 29024060 
3340.398 28992818 28960408 28926302 28889646 28848888 28803602 28753258 
3343.773 28698706 28641048 28581874 28522286 28462598 28402706 28341692 
3347.148 28278846 28213608 28146184 28077430 28008578 27940552 27873842 
3350.523 27808204 27742716 27676284 27607780 27536956 27463498 27388250 
3353.899 27311854 27235292 27159450 27084256 27009956 26936164 26862382 
3357.274 26788650 26714824 26641222 26568372 26496872 26426756 26358344 
3360.649 26291172 26224542 26157920 26090852 26023054 25955022 25887350 
3364.024 25820850 25756364 25694244 25634664 25577480 25522238 25468160 
3367.400 25414722 25361432 25307586 25252766 25197072 25140296 25082828 
3370.775 25024700 24966298 24907694 24848816 24789352 24729264 24668622 
3374.150 24607394 24546312 24486118 24427228 24370448 24315710 24263044 
3377.525 24212418 24163478 24115876 24069610 24024082 23979120 23934584 
3380.901 23890052 23845314 23800442 23754978 23708890 23661896 23613720 
3384.276 23564462 23514790 23465930 23419382 23376826 23339520 23307600 
3387.651 23280016 23254496 23227966 23197940 23162080 23119864 23071992 
3391.026 23020106 22966548 22913558 22862320 22813812 22767580 22722782 
3394.402 22678444 22633518 22587268 22539768 22491402 22442968 22395972 
3397.777 22351982 22311832 22276220 22244900 22216582 22189698 22162672 
3401.152 22133628 22101518 22065434 22024440 21978290 21927094 21870746 
3404.527 21810502 21748244 21685824 21626058 21570726 21520724 21475708 
3407.903 21434072 21393452 21351302 21306406 21257656 21205810 21151782 
3411.278 21096440 21040826 20984766 20927842 20869294 20808806 20746242 
3414.653 20682438 20618502 20555618 20495106 20437136 20381362 20326636 
3418.028 20271502 20214188 20153722 20090178 20024072 19956938 19890786 
3421.404 19826620 19765238 19706360 19648704 19591264 19533068 19473876 
3424.779 19414622 19356106 19299638 19245846 19194554 19144688 19094724 
3428.154 19042896 18987682 18928668 18865370 18798414 18728424 18656646 
3431.529 18583984 18511988 18441942 18375258 18312630 18254398 18200354 
3434.905 18149602 18101062 18053464 18006146 17958384 17909834 17860462 
3438.280 17809504 17756656 17701226 17642594 17581034 17517520 17453360 
3441.655 17390656 17331168 17275722 17224386 17175884 17128214 17078652 
3445.030 17025412 16966904 16903478 16836514 16768012 16700586 16636064 
3448.406 16575199 16517751 16462548 16408039 16353296 16297666 16241321 
3451.781 16185224 16130302 16077040 16025707 15975963 15926844 15877420 
3455.156 15826970 15775118 15721589 15666589 15610155 15553005 15495487 
3458.531 15438180 15381913 15327059 15273585 15221593 15170568 15119893 
3461.906 15069017 15017804 14965569 14912379 14857619 14800398 14740133 
3465.282 14676449 14609348 14540099 14470381 14402352 14337588 14276634 
3468.657 14218736 14162523 14105701 14046901 13985372 13921354 13855875 
3472.032 13790439 13726005 13663325 13602534 13543597 13486173 13430909 
3475.407 13377804 13327577 13280054 13234824 13190897 13146975 13101384 
3478.783 13052623 12999632 12941802 12879235 12813025 12745188 12678281 
3482.158 12615172 12557939 12507635 12463304 12422865 12383214 12340635 
3485.533 12292503 12237903 12177515 12113457 12048352 11985095 11925764 
3488.908 11871039 11821359 11775976 11733967 11694105 11654691 11614225 
3492.284 11571312 11524764 11474716 11421918 11368073 11315458 11266081 
3495.659 11221094 11180736 11144021 11109992 11077360 11045751 11015061 
3499.034 10985597 10957052 10928272 10897251 10861713 10819181 10768840 
3502.409 10711714 10650350 10589130 10532061 10482229 10440548 10405456 
3505.785 10373386 10340131 10301246 10254087 10198079 10134956 10068655 
3509.160 10004397 9946524 9898623 9861880 9835408 9815955 9800195 9784470 
3513.017 9766035 9743229 9716088 9685288 9651815 9616887 9581015 9545280 
3516.875 9509684 9474835 9441378 9409921 9380938 9354428 9329512 9304630 
3520.732 9278497 9249218 9216354 9180040 9142139 9104545 9069154 9036946 
3524.590 9007007 8977848 8946188 8909930 8867995 8820483 8769529 8717870 
3528.447 8667942 8621298 8578139 8537486 8498458 8460279 8423183 8388084 
3532.304 8355994 8326743 8299994 8273246 8244171 8210740 8172620 8130451 
3536.162 8086700 8044101 8005084 7971267 7943359 7921087 7904587 7893823 
3540.019 7888087 7887108 7888796 7890347 7888357 7879483 7861061 7832586 
3543.877 7794903 7750478 7701908 7652164 7603437 7557514 7515809 7479233 
3547.734 7448423 7423211 7401741 7381385 7358535 7330195 7294712 7252528 
3551.592 7206372 7160659 7119869 7086828 7062445 7044866 7030958 7017522 
3555.449 7001595 6981829 6958395 6931629 6902609 6872076 6840569 6808929 
3559.306 6778066 6749696 6725669 6707968 6698446 6697638 6705074 6718097 
3563.164 6732500 6742696 6742091 6723683 6682463 6616417 6528450 6426512 
3567.021 6323051 6231984 6164091 6124906 6113548 6124099 6147186 6173871 
3570.879 6197162 6212186 6217329 6213396 6201801 6184693 6163889 6140028 
3574.736 6113750 6085356 6054812 6022962 5990643 5958662 5928196 5900418 
3578.594 5875900 5855581 5840100 5830126 5826532 5830528 5843088 5864951 
3582.451 5895111 5931488 5969378 6002401 6022391 6021484 5992692 5932696 
3586.308 5843458 5733488 5616228 5508363 5426123 5379154 5370768 5396532 
3590.166 5446689 5508799 5570146 5620558 5652312 5662349 5651070 5622270 
3594.023 5581422 5534471 5486585 5441489 5401195 5366842 5338564 5315855 
3597.881 5297575 5281644 5266182 5249682 5231975 5214704 5201760 5197066 
3601.738 5204041 5223926 5255216 5293282 5332459 5367044 5391869 5403678 
3605.595 5400960 5383381 5351814 5308510 5257597 5204980 5157767 5122260 
3609.453 5102211 5096311 5098423 5100334 5092824 5070062 5031746 4983111 
3613.310 4934549 4896179 4875336 4873359 4884986 4900200 4907673 4897318 
3617.168 4862502 4801691 4719518 4625873 4534023 4457691 4408852 4393790 
3621.025 4413505 4463348 4535797 4621854 4713890 4806382 4896983 4984184 
3624.883 5066475 5138957 5192103 5212625 5185128 5097820 4950300 4760519 
3628.740 4564057 4402995 4310690 4295664 4343854 4425857 4511657 4578020 
3632.597 4611640 4611439 4586391 4551031 4519324 4500308 4495386 4499738 
3636.455 4504895 4502718 4488691 4462645 4428400 4391480 4358078 4333011 
3640.312 4319256 4318688 4332174 4360086 4402794 4459231 4526623 4600188 
3644.170 4672793 4735563 4778843 4793986 4774421 4718312 4627782 4510653 
3648.027 4378327 4242962 4116672 4010950 3934978 3897398 3903717 3954472 
3651.885 4043691 4159021 4282982 4394259 4472688 4502283 4474730 4394962 
3655.742 4279569 4156646 4052688 3986405 3962229 3972327 4001922 4035564 
3659.599 4063123 4079645 4086134 4087271 4088609 4094997 4109447 4133297 
3663.457 4166648 4209471 4260496 4317717 4377624 4434995 4482966 4514035 
3667.314 4519894 4494215 4433020 4339135 4223222 4106704 4016736 3977410 
3671.172 4000918 4082153 4200672 4324343 4416384 4444000 4383716 4233159 
3675.029 4017304 3788622 3604927 3504140 3492182 3546463 3632792 3718871 
3678.886 3784845 3825189 3845547 3857749 3873962 3900976 3939659 3986472 
3682.744 4037905 4092589 4151963 4218103 4290109 4361492 4419865 4449958 
3686.601 4437539 4375248 4267690 4132695 3996404 3883791 3811251 3781034 
3690.459 3785848 3814159 3856712 3908631 3967846 4033223 4100583 4163470 
3694.316 4214289 4246409 4258254 4254105 4243531 4238211 4246643 4271471 
3698.174 4307544 4344356 4368185 4368286 4339604 4285358 4216096 4146644 
3702.031 4092489 4064628 4068340 4102757 4163136 4242327 4332810 4426559 
3705.888 4516177 4594261 4655042 4694329 4710541 4705115 4680363 4638532 
3709.746 4580833 4506635 4415714 4311192 4201542 4101218 4026367 3991053 
3713.603 4000885 4051851 4131624 4224058 4312965 4385757 4437104 4468035 
3717.461 4484573 4493947 4501747 4508644 4511825 4506535 4489528 4462813 
3721.318 4432819 4408885 4399882 4409388 4434895 4467767 4496591 4511992 
3725.176 4509347 4491503 4466930 4447816 4445807 4467131 4511423 4572126 
3729.033 4638364 4697947 4739917 4757470 4748794 4718580 4674568 4626107 
3732.890 4577651 4527293 4466729 4385255 4277226 4147112 4011084 3893019 
3736.748 3817167 3796777 3832343 3913479 4024762 4151227 4281677 4408953 
3740.605 4526456 4625069 4690913 4703172 4639134 4483435 4241992 3954605 
3744.463 3687424 3512724 3469303 3549069 3708243 3892216 4052520 4152498 
3748.320 4175714 4124800 4020013 3890611 3764791 3661828 3588690 3546029 
3752.177 3534070 3555382 3612177 3702562 3818036 3943103 4060380 4155375 
3756.035 4219174 4251193 4257484 4247848 4230951 4210742 4187457 4160660 
3759.892 4132728 4111153 4105767 4124265 4166749 4225095 4283752 4326083 
3763.750 4340608 4326251 4294092 4262637 4251662 4271772 4319558 4378762 
3767.607 4426493 4443162 4417421 4351920 4261700 4170663 4100449 4065129 
3771.465 4068005 4103392 4161697 4232590 4309184 4386360 4460737 4528967 
3775.322 4586391 4627581 4647072 4641278 4609564 4555485 4487686 4418091 
3779.179 4359852 4324577 4318353 4340206 4382042 4431480 4475902 4503890 
3783.037 4509548 4492440 4458026 4415145 4373574 4341512 4322904 4317817 
3786.894 4323975 4337730 4355233 4373240 4389205 4400652 4406710 4407547 
3790.752 4405605 4405438 4412065 4429505 4458996 4497194 4536701 4568711 
3794.609 4585688 4584281 4568276 4547449 4535496 4543063 4573834 4621084 
3798.467 4670013 4699655 4688602 4622859 4501279 4341980 4179863 4057771 
3802.324 4008543 4041718 4142697 4279602 4415647 4514503 4550864 4515039 
3806.181 4416986 4285224 4159222 4075163 4051015 4084528 4157583 4248115 
3810.039 4337696 4415781 4481392 4539179 4594294 4647675 4693827 4721058 
3813.896 4716737 4672056 4589639 4486180 4391715 4337362 4342582 4407145 
3817.754 4512126 4626810 4715967 4749967 4709603 4593725 4422208 4235635 
3821.611 4082755 3998744 3996170 4062186 4169124 4284119 4379163 4437940 
3825.469 4456887 4444836 4419362 4400417 4401823 4427396 4471316 4521668 
3829.326 4566434 4597977 4614955 4622624 4630159 4646335 4676578 4721527 
3833.183 4776766 4834626 4885522 4920440 4930058 4907203 4847760 4753685 
3837.041 4634212 4505664 4388769 4302290 4255644 4247915 4268158 4301721 
3840.898 4333680 4355835 4366044 4369089 4372737 4384887 4411095 4452837 
3844.756 4507907 4572395 4643287 4717575 4794421 4873661 4954959 5038015 
3848.613 5121656 5202498 5275104 5330145 5352921 5324912 5226274 5042841 
3852.470 4777068 4457825 4141626 3891648 3752324 3732873 3811351 3951462 
3856.328 4117675 4284889 4438208 4571724 4685085 4779882 4856806 4914308 
3860.185 4949864 4960824 4947049 4910889 4856438 4788759 4712919 4634647 
3864.043 4561546 4505129 4477710 4489293 4542393 4628184 4728093 4816433 
3867.900 4868735 4867126 4808693 4708397 4598045 4512997 4475668 4488088 
3871.758 4532717 4584717 4619878 4626710 4607722 4580096 4566501 4585688 
3875.615 4645498 4738678 4847391 4948122 5020048 5047836 5025880 4958678 
3879.472 4861497 4757839 4671922 4624969 4627882 4678386 4761993 4855801 
3883.330 4934683 4975034 4962600 4897318 4797302 4693927 4620582 4600924 
3887.187 4638699 4718580 4812680 4891286 4930158 4915112 4847894 4744507 
3891.045 4632202 4538442 4483903 4476136 4510452 4574236 4653669 4738176 
3894.902 4820822 4897988 4968029 5028763 5077102 5109151 5121455 5113141 
3898.760 5086287 5046462 5000373 4953953 4909783 4866691 4820989 4768458 
3902.617 4707560 4641412 4577082 4524447 4492775 4487485 4508745 4551701 
3906.474 4608392 4670851 4732280 4787855 4835597 4874465 4904422 4926070 
3910.332 4940883 4950937 4959684 4971649 4990585 5018674 5055345 5096613 
3914.189 5136107 5166485 5182144 5180501 5162629 5132989 5097719 5062519 
3918.047 5031110 5005702 4987368 4976877 4976207 4986631 5008652 5040060 
3921.904 5075090 5106805 5127423 5131949 5119846 5096076 5069123 5048808 
3925.761 5042440 5052764 5077403 5110056 5143450 5170844 5188012 5192874 
3929.619 5185363 5167122 5139762 5105832 5069190 5034696 5008283 4995613 
3933.476 4999669 5020148 5052730 5090511 5124976 5150089 5162662 5163803 
3937.334 5158169 5151598 5149384 5154045 5164171 5175169 5181540 5178087 
3941.191 5162360 5135504 5102379 5069894 5044585 5031512 5032685 5046764 
3945.049 5069894 5097250 5124272 5147171 5163769 5173862 5178288 5178355 
3948.906 5175840 5171816 5167457 5163366 5160349 5159276 5161153 5166921 
3952.763 5176946 5190929 5207360 5224128 5238950 5249313 5253975 5252298 
3956.621 5245356 5234188 5220707 5206455 5192941 5181171 5171816 5165378 
3960.478 5162327 5163098 5167658 5176108 5187744 5201526 5215978 5229728 
3964.336 5241533 5250286 5255786 5258267 5257999 5255920 5252868 5249112 
3968.193 5245121 5240795 5236133 5231103 5226140 5222250 5220237 5221814 
3972.051 5227548 5238078 5252801 5270341 5288855 5306296 5320987 5332090 
3975.908 5339973 5345809 5350808 5356544 5363186 5370667 5377745 5382777 
3979.765 5384220 5381335 5374256 5363790 5351982 5340309 5330648 5323939 
3983.623 5320719 5320786 5324342 5330816 5339403 5350036 5361072 5371270 
3987.480 5379188 5383515 5384085 5380898 5375934 5371036 5368520 5369660 
3991.338 5374726 5383113 5392540 5401262 5407771 5411394 5412602 5412837 
3995.195 5413742 5416896 5423136 5432497 5444542 5458500 5473364 5488028 
3999.052 5501987 5514705 5525477 5533800 
##END=
