
##TITLE=Z361_1_a
##JCAMP-DX=5.01  $$ Nicolet v. 1
##DATATYPE=INFRARED SPECTRUM
##ORIGIN=UniL
##OWNER=Nicolet
##LONGDATE=2011/09/14
##TIME=10:50:07
##SPECTROMETER/DATA SYSTEM=Nicolet iS5
##DATA PROCESSING=
Ratio against background
%Transmittance->Absorbance
Truncated
ElementMultiply or ElementDivide
##COMMENTS=
Number of sample scans: 32
Collection length: 51.21 sec
Sample gain: 2.0
Background collected on: Mer Sep 14 10:43:08 2011 (GMT+02:00);
Number of background scans: 32
Background gain: 2.0
Sample spacing:  1.000
Number of scan points: 12415
Resolution points: 8192
Number of FFT points: 65536
Apodization: N-B fort;
Phase correction: Mertz;
Laser frequency: 15798.0 cm-1
Number of rejected sample scans: 0
Number of rejected background scans: 0
Bench serial number: ASB1000141;
##RESOLUTION=4.000
##XUNITS=1/CM
##YUNITS=ABSORBANCE
##FIRSTX=649.893372
##LASTX=4000.122314
##FIRSTY=0.122636
##MAXX=4000.122314
##MINX=649.893372
##MAXY=0.243803
##MINY=0.009234
##XFACTOR=1.000000
##YFACTOR=1.000000E-009
##NPOINTS=6950
##DELTAX=0.482117
##ZPD=6100
##XYDATA=(X++(Y..Y))
649.893 122636120 122982808 123368600 123797952 124267960 124772392 
652.786 125308008 125878768 126491472 127153976 127867120 128622024 
655.679 129403072 130197224 130997552 131809040 132639680 133493904 
658.571 134362112 135222768 136045136 136803968 137490544 138115904 
661.464 138705872 139289040 139889888 140522448 141192784 141904576 
664.357 142664000 143481392 144363648 145310752 146308224 147327168 
667.250 148342960 149367456 150482624 151817936 153531712 155778288 
670.142 158681584 162373504 166977872 172582336 179187424 186632272 
673.035 194568960 202388304 209298864 214465760 217087952 216665056 
675.928 213132400 206915376 198815440 189797504 180808928 172525344 
678.820 165335136 159347648 154449904 150398944 146900176 143696928 
681.713 140583504 137431712 134190824 130865944 127504112 124167624 
684.606 120922040 117817344 114882200 112132016 109573624 107215312 
687.498 105071256 103157552 101486664 100060496 98867008 97882512 97075264 
690.873 96414608 95873488 95430248 95068520 94773784 94530720 94324856 
694.248 94141192 93968248 93798920 93630432 93463208 93298096 93135800 
697.623 92976152 92818856 92665432 92519000 92383672 92263432 92159440 
700.998 92069528 91988648 91910768 91829584 91740760 91641520 91529504 
704.373 91402296 91257552 91093400 90910200 90712488 90508464 90308368 
707.747 90120760 89950312 89795384 89648720 89498816 89334552 89148104 
711.122 88936152 88700656 88446472 88178952 87901632 87615200 87316800 
714.497 87002704 86668560 86311384 85930728 85528088 85105952 84666544 
717.872 84211208 83739672 83251200 82745872 82226032 81697336 81168288 
721.247 80647816 80142440 79654008 79178568 78707824 78231472 77741336 
724.621 77234224 76712472 76183688 75658080 75146688 74658840 74201616 
727.996 73780872 73400008 73060248 72760168 72495248 72258712 72042984 
731.371 71842928 71657120 71488064 71341712 71224512 71142144 71097256 
734.746 71091168 71123992 71196944 71312120 71472208 71680016 71937952 
738.121 72248376 72615664 73047080 73553096 74147840 74848432 75673184 
741.496 76645824 77797968 79169984 80820760 82827656 85285064 88320816 
744.870 92091568 96781552 102613136 109805152 118529584 128837064 140570096 
748.245 153272928 166097312 177919936 187400464 193217248 194459120 
751.138 190796272 182636784 170967136 157167840 142667920 128606080 
754.031 115822456 104756408 95511608 87988048 81968328 77211776 73485432 
757.405 70598776 68399832 66752964 65544084 64673336 64053848 63623680 
760.780 63342384 63187496 63151164 63232452 63434944 63764832 64233140 
764.155 64854108 65642008 66609524 67763240 69104560 70633192 72352752 
767.530 74275440 76423960 78825160 81499264 84446304 87633480 90987896 
770.905 94387112 97678488 100685640 103219616 105115616 106233992 106476448 
774.279 105801400 104223672 101819880 98712560 95067448 91068392 86886288 
777.654 82684496 78599288 74733928 71172432 67970176 65154748 62729240 
781.029 60672320 58946344 57502708 56293732 55277436 54417428 53686248 
784.404 53060436 52518344 52041920 51616312 51231048 50881704 50567072 
787.779 50286816 50038380 49815764 49610720 49415836 49226452 49043164 
791.154 48870000 48712548 48574460 48455528 48352776 48262124 48180628 
794.528 48108480 48047520 47999520 47963884 47937432 47913896 47887664 
797.903 47855628 47818636 47780352 47745324 47716700 47694624 47677392 
801.278 47662748 47650104 47641856 47641484 47652208 47675100 47707752 
804.653 47746216 47786788 47828660 47873572 47925736 47989124 48064620 
808.028 48150568 48242276 48335480 48428228 48521624 48618668 48722372 
811.402 48832956 48947096 49058928 49162440 49254288 49334828 49408000 
814.777 49478696 49550920 49625724 49701696 49775704 49845568 49910536 
818.152 49971832 50031016 50088944 50145548 50199848 50251920 50303444 
821.527 50358992 50424000 50503456 50599456 50711456 50836144 50970148 
824.902 51111500 51260504 51419256 51590340 51774820 51971512 52177752 
828.277 52390740 52608960 52833684 53067588 53314992 53579776 53864756 
831.651 54172140 54504348 54863836 55253164 55673196 56121576 56591220 
835.026 57069832 57542956 57994448 58410548 58781404 59101060 59367844 
838.401 59583056 59751764 59882916 59990948 60098160 60231740 60422632 
841.776 60702572 61097824 61628700 62309360 63148900 64155580 65340072 
845.151 66715872 68302104 70121656 72197352 74552184 77204176 80162608 
848.525 83421968 86955456 90709712 94588152 98451744 102121536 105367544 
851.900 107948808 109636832 110239328 109652560 107874256 105017280 
854.793 101287056 96969368 92399248 87891328 83736096 80159456 77293680 
858.168 75197824 73857808 73211368 73162776 73604080 74432336 75543248 
861.543 76841576 78239928 79647160 80976880 82147312 83079936 83713440 
864.917 84004384 83931664 83499792 82737576 81698096 80447032 79061088 
868.292 77617272 76178008 74792568 73491320 72287784 71186832 70188392 
871.667 69292400 68499832 67811072 67224464 66734500 66332236 66008024 
875.042 65751976 65556608 65416336 65326124 65281144 65275296 65302216 
878.417 65357244 65438332 65546588 65685248 65857960 66066696 66310732 
881.792 66587196 66892548 67224040 67581024 67964440 68375784 68815232 
885.166 69281328 69770592 70279080 70803632 71342896 71896968 72466312 
888.541 73050328 73646160 74249368 74854808 75458088 76057192 76651752 
891.916 77242928 77831304 78416000 78994712 79564576 80123672 80672600 
895.291 81214264 81754008 82297912 82851920 83422128 84015240 84639928 
898.666 85308384 86035296 86837360 87732624 88736776 89864528 91128344 
902.040 92538312 94101888 95821680 97693136 99699472 101807440 103968744 
905.415 106113192 108153040 109993216 111526240 112647528 113267720 
908.308 113313696 112748160 111577048 109858192 107697424 105238416 
911.201 102656656 100122488 97793472 95804744 94250176 93191480 92658424 
914.575 92649648 93135064 94052184 95311504 96783960 98308280 99714736 
917.950 100823912 101485784 101608352 101165488 100209616 98856272 97273392 
921.325 95639360 94115304 92833464 91870968 91258120 90986960 91026920 
924.700 91338592 91883984 92635208 93572400 94683368 95962504 97409384 
928.075 99030208 100837952 102854496 105109704 107638032 110480608 113681392 
931.450 117284624 121337944 125886560 130970624 136620176 142847440 
934.342 149638224 156939456 164659632 172659056 180744864 188701792 
937.235 196290560 203276848 209475840 214761744 219097968 222542144 
940.128 225249712 227451888 229402064 231356560 233499808 235896576 
943.020 238457312 240921088 242884224 243802928 243116144 240333520 
945.913 235104224 227335136 217202512 205149680 191785664 177819280 
948.806 163964624 150795488 138758544 128133712 119029744 111444648 
951.698 105288360 100422808 96676856 93866360 91813008 90334560 89268624 
955.073 88484816 87880336 87394064 86999176 86692256 86483320 86384264 
958.448 86403672 86544304 86804624 87179888 87663568 88245576 88911512 
961.823 89644976 90428312 91247088 92093576 92966424 93867928 94800696 
965.198 95763848 96752696 97761112 98785424 99827512 100895088 101998616 
968.573 103147296 104346264 105597432 106903312 108271768 109718976 
971.465 111264464 112925824 114707496 116596224 118559848 120555600 
974.358 122545208 124503880 126429368 128339824 130269856 132259312 
977.251 134344560 136559824 138934352 141494432 144267696 147284192 
980.143 150580704 154216400 158278112 162888688 168200000 174341952 
983.036 181362080 189127552 197278832 205162640 211874448 216481968 
985.929 218156736 216467376 211527152 203994624 194904608 185343824 
988.821 176324896 168541776 162325392 157721856 154554672 152549488 
991.714 151405136 150876720 150784992 150999360 151431536 152010672 
994.607 152677184 153390832 154129680 154888800 155670784 156473168 
997.500 157279200 158061968 158790272 159442864 160016336 160522928 
1000.392 160981904 161408272 161806400 162171952 162500064 162795024 
1003.285 163074144 163363456 163689232 164065184 164489600 164947680 
1006.178 165423136 165908560 166410960 166947696 167537920 168191424 
1009.070 168902608 169653040 170420000 171187392 171949264 172709104 
1011.963 173471296 174233552 174984688 175709440 176397552 177053408 
1014.856 177698400 178368032 179098240 179916816 180840384 181876128 
1017.748 183032480 184328624 185794752 187470864 189397584 191605808 
1020.641 194118464 196952832 200125056 203648992 207518960 211685440 
1023.534 216014512 220270656 224138032 227226960 229177312 229739920 
1026.427 228827648 226553504 223195776 219155504 214841120 210619280 
1029.320 206774224 203462976 200739712 198568928 196859760 195487984 
1032.213 194323328 193259440 192212288 191132384 190002016 188824192 
1035.106 187613840 186388832 185169056 183976176 182837584 181791600 
1037.999 180883552 180162320 179677200 179469184 179571072 180008832 
1040.892 180798480 181942656 183418192 185166928 187079040 188989488 
1043.785 190709248 192035744 192804160 192931968 192431664 191416656 
1046.678 190062144 188586432 187193712 186039200 185227984 184799648 
1049.571 184742096 185004048 185513328 186188928 186945008 187706592 
1052.464 188409072 188998656 189437504 189696672 189753808 189593088 
1055.357 189203504 188583152 187740528 186695376 185474528 184102976 
1058.250 182599840 180972560 179218416 177330752 175306752 173153168 
1061.144 170888992 168541040 166138880 163711680 161283072 158872704 
1064.037 156499248 154179760 151931040 149767392 147697456 145724080 
1066.930 143845040 142055968 140354288 138740576 137217968 135790608 
1069.823 134459712 133221928 132069080 130991232 129978880 129024416 
1072.716 128122224 127267272 126451744 125665072 124894168 124126344 
1075.609 123352920 122570864 121782968 120995976 120217880 119456880 
1078.502 118720904 118019432 117365376 116774200 116263688 115850016 
1081.395 115544120 115351472 115272056 115302816 115441280 115686504 
1084.288 116039464 116500192 117065176 117725264 118464208 119262056 
1087.181 120096984 120946336 121790648 122611904 123394040 124125816 
1090.074 124802248 125428872 126023304 126616880 127251624 127971576 
1092.967 128823904 129852992 131098672 132604104 134415088 136581376 
1095.860 139161520 142213808 145791296 149934432 154655328 159922704 
1098.753 165635936 171619616 177597536 183183504 187944688 191414640 
1101.646 193181632 192997216 190812832 186818544 181381904 175008400 
1104.540 168228608 161492816 155170896 149495904 144574496 140424336 
1107.433 136993072 134192768 131914032 130048840 128496008 127159792 
1110.326 125961664 124835680 123727152 122596568 121413576 120157008 
1113.219 118816112 117390424 115891728 114341176 112770032 111212592 
1116.112 109699696 108257528 106903736 105647584 104492784 103439208 
1119.005 102484360 101622928 100847144 100145688 99503144 98903408 98329848 
1122.380 97767040 97202600 96626064 96028016 95400816 94738376 94038480 
1125.755 93304672 92546504 91780176 91024664 90301840 89633120 89037136 
1129.131 88531936 88133168 87854944 87709592 87706472 87851616 88148392 
1132.506 88597880 89202296 89966464 90899456 92015184 93330792 94862648 
1135.881 96625568 98629592 100879544 103374712 106108160 109066640 112225920 
1139.256 115547280 118978888 122447056 125861376 129120664 132105232 
1142.149 134689920 136750448 138161856 138823520 138673392 137703824 
1145.042 135974368 133611472 130804016 127761992 124707568 121850872 
1147.936 119355824 117350744 115919936 115104528 114916224 115342440 
1150.829 116356320 117919880 119990216 122524944 125476672 128794712 
1153.722 132419792 136266288 140217728 144118704 147756544 150889472 
1156.615 153255472 154588960 154678752 153383712 150663280 146592048 
1159.508 141357504 135244576 128572496 121683024 114886128 108411240 
1162.401 102423240 97005408 92172512 87893192 84106320 80740552 77720336 
1165.776 74979104 72461536 70120800 67922760 65843388 63866728 61985388 
1169.151 60197716 58506644 56917200 55435780 54070088 52828856 51723196 
1172.527 50767648 49977040 49365752 48940904 48697128 48609664 48632416 
1175.902 48704728 48750504 48696052 48482720 48072208 47458272 46665132 
1179.277 45746188 44770520 43814372 42953080 42245968 41736424 41449052 
1182.652 41388104 41539384 41869984 42333588 42866836 43395944 43847472 
1186.028 44148724 44242600 44096972 43707180 43098248 42317952 41433156 
1189.403 40514512 39626732 38825760 38148340 37613260 37224224 36973156 
1192.778 36844736 36820644 36883224 37015840 37202964 37431884 37690772 
1196.153 37969124 38259524 38555584 38852936 39148500 39439724 39723992 
1199.529 39998928 40261420 40508364 40736592 40943136 41124528 41278488 
1202.904 41402540 41494436 41552076 41572420 41551600 41484704 41365508 
1206.279 41188384 40949108 40646492 40284032 39869972 39417700 38943208 
1209.654 38464492 37998852 37560656 37161852 36810980 36513148 36271996 
1213.030 36089196 35964636 35896648 35882436 35917988 35998908 36121316 
1216.405 36281940 36478008 36707412 36968212 37258340 37576448 37921540 
1219.780 38293940 38694368 39124420 39584776 40075920 40597124 41147040 
1223.155 41723916 42326572 42954068 43606208 44283432 44986044 45715228 
1226.531 46472264 47258920 48077388 48930224 49820408 50751228 51726404 
1229.906 52750392 53827472 54961824 56155740 57408988 58716956 60071144 
1233.281 61458272 62861636 64262600 65639884 66971988 68239248 69423160 
1236.656 70511304 71498528 72388960 73195960 73941392 74655112 75369944 
1240.031 76121544 76947456 77881648 78956488 80199784 81631640 83265608 
1243.407 85107120 87155064 89403432 91844272 94470552 97275928 100255408 
1246.782 103404352 106715856 110181712 113792640 117538552 121410064 
1249.675 125396400 129481184 133640360 137836464 142014736 146106912 
1252.568 150024064 153653280 156865088 159497456 161363536 162278016 
1255.461 162058528 160566032 157732624 153570032 148176688 141717824 
1258.354 134423568 126555144 118379432 110173256 102178552 94592272 87567320 
1261.729 81191576 75502992 70498832 66147216 62398828 59194120 56473884 
1265.105 54177016 52244860 50626860 49276036 48152752 47225820 46467804 
1268.480 45856352 45373488 45003056 44731620 44548860 44446076 44416164 
1271.855 44453160 44550328 44701136 44898808 45136636 45409756 45715044 
1275.230 46052080 46421968 46827748 47272848 47759528 48288376 48856724 
1278.606 49458752 50084116 50718940 51348204 51956240 52530348 53063768 
1281.981 53556720 54017784 54460660 54903276 55360308 55840768 56344584 
1285.356 56862996 57380892 57881464 58353280 58792936 59208476 59616616 
1288.731 60041432 60508664 61041076 61657724 62372552 63194044 64127856 
1292.107 65176652 66340028 67614160 68990792 70457600 71996408 73585784 
1295.482 75201608 76817256 78406264 79944120 81408848 82785800 84068880 
1298.857 85261760 86376464 87431832 88450000 89451632 90456760 91482952 
1302.232 92545648 93660072 94839360 96092000 97420200 98815952 100261040 
1305.608 101724472 103165912 104537752 105781696 106835808 107635264 
1308.501 108113432 108215136 107901152 107156152 105993024 104451520 
1311.394 102595424 100497136 98238064 95898736 93548440 91252120 89065728 
1314.769 87036464 85210920 83633568 82344728 81381392 80765400 80496008 
1318.144 80538400 80821920 81242544 81663344 81944112 81953440 81583816 
1321.520 80776984 79522080 77859016 75863136 73638312 71301072 68956528 
1324.895 66700652 64606196 62717520 61059224 59636536 58442880 57464132 
1328.270 56683176 56082292 55641864 55342620 55165796 55091876 55102900 
1331.645 55182052 55312436 55479112 55667700 55865300 56062348 56251980 
1335.021 56431396 56601180 56765108 56929360 57101272 57290528 57508536 
1338.396 57768660 58087572 58482876 58970484 59563256 60266456 61076272 
1341.771 61977668 62943788 63935788 64898544 65768668 66475936 66948636 
1345.146 67130632 66984476 66499532 65693728 64613312 63329004 61921876 
1348.521 60482880 59098368 57836188 56749100 55867900 55203380 54752792 
1351.897 54502240 54432076 54517640 54734264 55058704 55468384 55944100 
1355.272 56467956 57020936 57583472 58132684 58642316 59086180 59437024 
1358.647 59670024 59766328 59713248 59506252 59150268 58661164 58067612 
1362.022 57408312 56734072 56097900 55545604 55110384 54806168 54629604 
1365.398 54565164 54592292 54690556 54841656 55032524 55253124 55495716 
1368.773 55753696 56020580 56288904 56550984 56798152 57021128 57212012 
1372.148 57365200 57481072 57567624 57643212 57733656 57865676 58063712 
1375.523 58342212 58705276 59151212 59677436 60286292 60988984 61805576 
1378.899 62762240 63887536 65203636 66721512 68432184 70303272 72269904 
1382.274 74232592 76074528 77659664 78855000 79551728 79662760 79141240 
1385.649 77991072 76286256 74175272 71860408 69577144 67526168 65840036 
1389.024 64580820 63747412 63305160 63205464 63402540 63856252 64532532 
1392.400 65407744 66464120 67690048 69077448 70614720 72281128 74044416 
1395.775 75862264 77686928 79472936 81173960 82747272 84156912 85374640 
1399.150 86387264 87197712 87822568 88284392 88604216 88799704 88883664 
1402.525 88864504 88745480 88520400 88168856 87655536 86940520 85987712 
1405.901 84782648 83341632 81712576 79969568 78196560 76489744 74947016 
1409.276 73660448 72724080 72217040 72193912 72680800 73669400 75125896 
1412.651 76997664 79229984 81768808 84557840 87541704 90655984 93823224 
1416.026 96967176 100006504 102865424 105485344 107826480 109875512 
1418.919 111638568 113141688 114411328 115460640 116290096 116887072 
1421.813 117233456 117307336 117091640 116578760 115775520 114705208 
1424.706 113402440 111901768 110222280 108360000 106288328 103970224 
1427.599 101374624 98498128 95376800 92093736 88767672 85523528 82481288 
1430.974 79734016 77338136 75317960 73663400 72337448 71283072 70436712 
1434.349 69743984 69170456 68717840 68428264 68375512 68629696 69222792 
1437.724 70127496 71263936 72518152 73755272 74841976 75637928 76014360 
1441.100 75884008 75209648 74022248 72407824 70496728 68433928 66349992 
1444.475 64362152 62556156 60984716 59678920 58650884 57902364 57428240 
1447.850 57215448 57237904 57451876 57803068 58231636 58681796 59115032 
1451.225 59511272 59872688 60220132 60586980 61009960 61520420 62144632 
1454.601 62905296 63826888 64935440 66251412 67771960 69456408 71223920 
1457.976 72974904 74614504 76064616 77262720 78153040 78694072 78852136 
1461.351 78596264 77898216 76724496 75045624 72854984 70204560 67230616 
1464.726 64132848 61141380 58440300 56120412 54186440 52585096 51247568 
1468.102 50113492 49144516 48319480 47626400 47053972 46590688 46227696 
1471.477 45968052 45829764 45843908 46040216 46435428 47030488 47816528 
1474.852 48786352 49941536 51290408 52844460 54610400 56585520 58759064 
1478.227 61114984 63638104 66309692 69108296 72007480 74968040 77944640 
1481.603 80890088 83755744 86497232 89069920 91422216 93499128 95241032 
1484.978 96589392 97501616 97955568 97956488 97530104 96720152 95579112 
1488.353 94158184 92517032 90726416 88868696 87037272 85314552 83749120 
1491.728 82343328 81050624 79789640 78453864 76933416 75128448 72963616 
1495.104 70409008 67491984 64301288 60960352 57596376 54310068 51163648 
1498.479 48190104 45408548 42834508 40483196 38365452 36481036 34820292 
1501.854 33363796 32085084 30953782 29933392 28980244 28040104 27054422 
1505.229 25975668 24791596 23553302 22371170 21366478 20607974 20087574 
1508.604 19743220 19501670 19302860 19110616 18912990 18714310 18527168 
1511.980 18362952 18227652 18120064 18034122 17962770 17900650 17845164 
1515.355 17796834 17759348 17738672 17743228 17781266 17856972 17968502 
1518.730 18106556 18255642 18397278 18518594 18618878 18716938 18843084 
1522.105 19028078 19286094 19609914 19977094 20361706 20744540 21116370 
1525.481 21481278 21852590 22246506 22673138 23131990 23612808 24100324 
1528.856 24579938 25039232 25468758 25859602 26198286 26467148 26644674 
1532.231 26714014 26673458 26548366 26390948 26258718 26195506 26214054 
1535.606 26298566 26416158 26528992 26603950 26613460 26541214 26383870 
1538.982 26156582 25891676 25632342 25423084 25293960 25254064 25292344 
1542.357 25384548 25500696 25613678 25708552 25784212 25855382 25942886 
1545.732 26064884 26227004 26420736 26627128 26826536 27008124 27173242 
1549.107 27337258 27522342 27748862 28025224 28346362 28698672 29069160 
1552.483 29453578 29858746 30301168 30799776 31367760 32006108 32703516 
1555.858 33440012 34197336 34961472 35731528 36526880 37397828 38416524 
1559.233 39633448 41061736 42664168 44380784 46165600 47991748 49851812 
1562.608 51746672 53684256 55671616 57703116 59760468 61809356 63801056 
1565.984 65684864 67408776 68918904 70164760 71093672 71661576 71848128 
1569.359 71671416 71189648 70480120 69618760 68656560 67615400 66497216 
1572.734 65292276 63985312 62564692 61028908 59402144 57762152 56244816 
1576.109 55026056 54273836 54080672 54451268 55328996 56639536 58322804 
1579.485 60346556 62709712 65433056 68550928 72102128 76123520 80643112 
1582.860 85675288 91212504 97216280 103614736 110286776 117069296 123765608 
1586.235 130128368 135890256 140784784 144572096 147119632 148445168 
1589.128 148751952 148376256 147734000 147236240 147176576 147714320 
1592.021 148841904 150406720 152122080 153606656 154458992 154259440 
1594.914 152656272 149438480 144558928 138168096 130565984 122160232 
1597.807 113365192 104544120 96012432 87996936 80650648 74061424 68237808 
1601.183 63120552 58592524 54516592 50758452 47217176 43847028 40649224 
1604.558 37657996 34915292 32456864 30302234 28454852 26908702 25651536 
1607.933 24666202 23926110 23396478 23036946 22802428 22653066 22557498 
1611.308 22491994 22440142 22387496 22316714 22207482 22035664 21776776 
1614.684 21412352 20936778 20366258 19740306 19117472 18556422 18095260 
1618.059 17744920 17492924 17315030 17182744 17068798 16949608 16804450 
1621.434 16619917 16393242 16135564 15868966 15619875 15409067 15243213 
1624.809 15115810 15010807 14912413 14808728 14695505 14574260 14451471 
1628.185 14334335 14228699 14138835 14068257 14019763 13995945 13996835 
1631.560 14018429 14051179 14080475 14089443 14060727 13983182 13856627 
1634.935 13696938 13532864 13397419 13314867 13291464 13317805 13376267 
1638.310 13450286 13525310 13591901 13645818 13687090 13720466 13752921 
1641.686 13791637 13840891 13899937 13962070 14015486 14046182 14040604 
1645.061 13990231 13896755 13774432 13647802 13545922 13492838 13499298 
1648.436 13563048 13671018 13805078 13942362 14053849 14106659 14061207 
1651.811 13884406 13571869 13177031 12805108 12553198 12459656 12496620 
1655.187 12609101 12743959 12866197 12959246 13019503 13053647 13072018 
1658.562 13084447 13095545 13104560 13106165 13093940 13063105 13012845 
1661.937 12947195 12874525 12805586 12749964 12714889 12702436 12710659 
1665.312 12732665 12758256 12775386 12769925 12729594 12647067 12523629 
1668.688 12371043 12209957 12065453 11957302 11895966 11880471 11900836 
1672.063 11941737 11985129 12014082 12013434 11973958 11897022 11797901 
1675.438 11702820 11637299 11617118 11641383 11696285 11761916 11821258 
1678.813 11865148 11894467 11918715 11949571 11993269 12044808 12085928 
1682.188 12087767 12021542 11871073 11650403 11407156 11205794 11092487 
1685.564 11073078 11121414 11198756 11273731 11324062 11340863 11325525 
1688.939 11285702 11232451 11176589 11128587 11096701 11086334 11098571 
1692.314 11128043 11162276 11181077 11162004 11086844 10953213 10782326 
1695.689 10618839 10511218 10484469 10531314 10616360 10694869 10722276 
1699.065 10670554 10541872 10377458 10244587 10197197 10251508 10383566 
1702.440 10553177 10720849 10859743 10956305 11009930 11031442 11038614 
1705.815 11050747 11081100 11133890 11206236 11291993 11384400 11478628 
1709.190 11572878 11666739 11760928 11856295 11952329 12047499 12139147 
1712.566 12223827 12298196 12359691 12406125 12434833 12441994 12421570 
1715.941 12366407 12272496 12143100 11992418 11844956 11727056 11655951 
1719.316 11634985 11653228 11692745 11733081 11756877 11753881 11720997 
1722.691 11662384 11586013 11501696 11416782 11335013 11257137 11183218 
1726.067 11112915 11046533 10984577 10926267 10870410 10816395 10765716 
1729.442 10722412 10691812 10676769 10673645 10670758 10647701 10579623 
1732.817 10448490 10253612 10024063 9810057 9663910 9611332 9643989 9730523 
1736.675 9833714 9922217 9973781 9979274 9942591 9879031 9808329 9747974 
1740.532 9706837 9684238 9674006 9669127 9665536 9662623 9662046 9665637 
1744.389 9673905 9685797 9698841 9711242 9721780 9730149 9736926 9742043 
1748.247 9743805 9740382 9729167 9709582 9683900 9658455 9642532 9645784 
1752.104 9675564 9732928 9813176 9907064 10001719 10083847 10142961 10173589 
1755.962 10178812 10169315 10161174 10168907 10199300 10249473 10307896 
1759.337 10359235 10388725 10387062 10354077 10299210 10237871 10187224 
1762.712 10159886 10159886 10183833 10222944 10266707 10304605 10328255 
1766.087 10332496 10316989 10287199 10252865 10226235 10216397 10225014 
1769.463 10245198 10262026 10258701 10221248 10146386 10045223 9942286 
1772.838 9864862 9830832 9843339 9891776 9959170 10029150 10092732 10147404 
1776.695 10196349 10243841 10291983 10338231 10377899 10405829 10420829 
1780.071 10427108 10432844 10446352 10471842 10506907 10543535 10572766 
1783.446 10587093 10585056 10570831 10553007 10540378 10538206 10547372 
1786.821 10565568 10589402 10615817 10642845 10668212 10687738 10694258 
1790.196 10679621 10637039 10565941 10475169 10382446 10308032 10268031 
1793.572 10268132 10302942 10360660 10428364 10496418 10559457 10616496 
1796.947 10668653 10716808 10760927 10799683 10832123 10859199 10884204 
1800.322 10912472 10949883 11000210 11064717 11142320 11230547 11327362 
1803.697 11431681 11542798 11660035 11782002 11906114 12029513 12149812 
1807.073 12265475 12375271 12478478 12573901 12659417 12732972 12793164 
1810.448 12840360 12877187 12908042 12936818 12965937 12995433 13022440 
1813.823 13043028 13053578 13052520 13040809 13021654 12998609 12975394 
1817.198 12953375 12932381 12910705 12887017 12860361 12831658 12802344 
1820.573 12773167 12743686 12711545 12672209 12620289 12551629 12464429 
1823.949 12362009 12252524 12147529 12059423 11995723 11957166 11935777 
1827.324 11918477 11888645 11831949 11741864 11622563 11488801 11361610 
1830.699 11261081 11197736 11170877 11169245 11177813 11183150 11176521 
1834.074 11156122 11125731 11091875 11059856 11032496 11009351 10988723 
1837.450 10969795 10954368 10946043 10948931 10965106 10992563 11024578 
1840.825 11051121 11061216 11044391 10993821 10908871 10796286 10670622 
1844.200 10550902 10455890 10397378 10377899 10390727 10424224 10464579 
1847.575 10500288 10525713 10540752 10550426 10562037 10581185 10609570 
1850.951 10644305 10679655 10709777 10732600 10749549 10765206 10784533 
1854.326 10810451 10841975 10875370 10906424 10932247 10953791 10974519 
1857.701 10998171 11026956 11059992 11093608 11123760 11148236 11167851 
1861.076 11186312 11208174 11235579 11267951 11301481 11331884 11355318 
1864.452 11371134 11380318 11384127 11382222 11370759 11344468 11299610 
1867.827 11236497 11163568 11094424 11044154 11023863 11035861 11073826 
1871.202 11126479 11183082 11235715 11281450 11321171 11357359 11391746 
1874.577 11424334 11453929 11479037 11500981 11522212 11546881 11577948 
1877.953 11616131 11659014 11703160 11744656 11781423 11814074 11844105 
1881.328 11872605 11899814 11923824 11943134 11957302 11969393 11983597 
1884.703 12005328 12037212 12077990 12121702 12160512 12186852 12197075 
1888.078 12192850 12180411 12169814 12170870 12190090 12230405 12290731 
1891.454 12367088 12454677 12548116 12642427 12732767 12815994 12890942 
1894.829 12958700 13023293 13089227 13160944 13239880 13324946 13412386 
1898.204 13498648 13580860 13658025 13731170 13802274 13872329 13941677 
1901.579 14010728 14079825 14152116 14232294 14326253 14438797 14572409 
1904.955 14726147 14896845 15081023 15276536 15484567 15707813 15948601 
1908.330 16206479 16476210 16747968 17007184 17238074 17425144 17554986 
1911.705 17617230 17605498 17518072 17358238 17133658 16856320 16540296 
1915.080 16198877 15844634 15487520 15135434 14798444 14487612 14216579 
1918.456 13997623 13837574 13733802 13674131 13641066 13614911 13580757 
1921.831 13533308 13475988 13420042 13378181 13359421 13365059 13390687 
1925.206 13427901 13469392 13512595 13558126 13608928 13666813 13730143 
1928.581 13794236 13853583 13903803 13943764 13975688 14003029 14028113 
1931.957 14050802 14068292 14076984 14075205 14064013 14047277 14029653 
1935.332 14014869 14003405 13993789 13984311 13974319 13965389 13960496 
1938.707 13960736 13963404 13962925 13950950 13920430 13870209 13805524 
1942.082 13737907 13679910 13640895 13623287 13622740 13631219 13640724 
1945.458 13648383 13655427 13665480 13682645 13708325 13740540 13775732 
1948.833 13810448 13842842 13873253 13902332 13929018 13950608 13962823 
1952.208 13962310 13948623 13925802 13899048 13874347 13854370 13836685 
1955.583 13816195 13787737 13748406 13701282 13654059 13614808 13590021 
1958.958 13581099 13583492 13589509 13593303 13591731 13585988 13580518 
1962.334 13578056 13580586 13586534 13593919 13600415 13607013 13614158 
1965.709 13622808 13631766 13638468 13638228 13630569 13616928 13603799 
1969.084 13599423 13609577 13636040 13676866 13725390 13776074 13825841 
1972.459 13874587 13923954 13975962 14029653 14083419 14136267 14191895 
1975.835 14257357 14344061 14460309 14606435 14772595 14940156 15087918 
1979.210 15200420 15271869 15307769 15321464 15328603 15341132 15365263 
1982.585 15401892 15448309 15502010 15562140 15627431 15696682 15766185 
1985.960 15830269 15882505 15920760 15945921 15964791 15984764 16011681 
1989.336 16046990 16087836 16128376 16164074 16195061 16226565 16264953 
1992.711 16315969 16379101 16447406 16510282 16557438 16582223 16585665 
1996.086 16573960 16554857 16535958 16519954 16504947 16486466 16460793 
1999.461 16425416 16381647 16331794 16277749 16219618 16157228 16088936 
2002.837 16017077 15946779 15884155 15835768 15805494 15791750 15789894 
2006.212 15794910 15802264 15810546 15820613 15831403 15840510 15842848 
2009.587 15832160 15804360 15760722 15707228 15653605 15609193 15579621 
2012.962 15563823 15559359 15558741 15557539 15555375 15553246 15554242 
2016.338 15560664 15571894 15586182 15602667 15622245 15646804 15680090 
2019.713 15721692 15767938 15811129 15842296 15855493 15849514 15829995 
2023.088 15806010 15786974 15779413 15782919 15794121 15806386 15816627 
2026.463 15823603 15830545 15840786 15857143 15879482 15905637 15933271 
2029.839 15963072 15997482 16041178 16098117 16168131 16246308 16324431 
2033.214 16392142 16440626 16465507 16466642 16447509 16414370 16373321 
2036.589 16329281 16286107 16245827 16209127 16174907 16141273 16104685 
2039.964 16063217 16016185 15965719 15917564 15878690 15854634 15849067 
2043.340 15861232 15886871 15921274 15959842 16000129 16042450 16088076 
2046.715 16138555 16193582 16251709 16309397 16362827 16408382 16440798 
2050.090 16456421 16452463 16427653 16384641 16330177 16273139 16224226 
2053.465 16192790 16181096 16185878 16198466 16206995 16201733 16178964 
2056.841 16140895 16095022 16049739 16012093 15983973 15964689 15949804 
2060.216 15936570 15924608 15915088 15909899 15910551 15914263 15917150 
2063.591 15915088 15905499 15888898 15869446 15852023 15840303 15834978 
2066.966 15834462 15835287 15834633 15831884 15828552 15826970 15828930 
2070.342 15833603 15839033 15841920 15840339 15834359 15826421 15819307 
2073.717 15815424 15815081 15816661 15817417 15815631 15811095 15805734 
2077.092 15802504 15803225 15808312 15816249 15824256 15830269 15833054 
2080.467 15834117 15835252 15838757 15845837 15856352 15869722 15884947 
2083.843 15901718 15920140 15940627 15962694 15984831 16004840 16020516 
2087.218 16030693 16035471 16035609 16033065 16028630 16022373 16013848 
2090.593 16002743 15989954 15978198 15972078 15976239 15995007 16031072 
2093.968 16083848 16151177 16229041 16311977 16395444 16475832 16550623 
2097.344 16619539 16684575 16749518 16818776 16897002 16986060 17086062 
2100.719 17195118 17310030 17427800 17548188 17672478 17803428 17943190 
2104.094 18091392 18244480 18397484 18543074 18675360 18791738 18890806 
2107.469 18973248 19040922 19093996 19132360 19155422 19162972 19156184 
2110.844 19137348 19109128 19072808 19028148 18973040 18904822 18821388 
2114.220 18723064 18612136 18493074 18370454 18247108 18124346 18001622 
2117.595 17877930 17753168 17628998 17507860 17392862 17285446 17185398 
2120.970 17090922 17000118 16911472 16824838 16741253 16661644 16585629 
2124.345 16512141 16438941 16364375 16288446 16213013 16140964 16075285 
2127.721 16016632 15963348 15912442 15860718 15806353 15751034 15698573 
2131.096 15654601 15623653 15609262 15611734 15630523 15663773 15709050 
2134.471 15764192 15825734 15889449 15950594 16004978 16050255 16086461 
2137.846 16115963 16141273 16164452 16185464 16201457 16210262 16210537 
2141.222 16202834 16191380 16181337 16176281 16177107 16182266 16188182 
2144.597 16192343 16195679 16201319 16214561 16240014 16277920 16323915 
2147.972 16371531 16412443 16441004 16454976 16455596 16445203 16427482 
2151.347 16401846 16368400 16325876 16273793 16213529 16149629 16085807 
2154.723 16027564 15980398 15951524 15951350 15992669 16088318 16245689 
2158.098 16461894 16720248 16992540 17247416 17457256 17606844 17695324 
2161.473 17734774 17741572 17735394 17731148 17737878 17759486 17795662 
2164.848 17842542 17894364 17942568 17978000 17991882 17978656 17937112 
2168.224 17872370 17794040 17713822 17642040 17585382 17543946 17514828 
2171.599 17492510 17472676 17453186 17435628 17422730 17416936 17419384 
2174.974 17429076 17442390 17456774 17468606 17474882 17473814 17464432 
2178.349 17446562 17422420 17396450 17373896 17360720 17360202 17371412 
2181.725 17389792 17407624 17416452 17411970 17393482 17364928 17332616 
2185.100 17303202 17279652 17263070 17252208 17244486 17239212 17236800 
2188.475 17238178 17243692 17253208 17263966 17274102 17282688 17289998 
2191.850 17298652 17311582 17329582 17351962 17375860 17397864 17415108 
2195.226 17427594 17436976 17445356 17455670 17466844 17477470 17485852 
2198.601 17489438 17489336 17488680 17491026 17499754 17516554 17540426 
2201.976 17568684 17599046 17629412 17658984 17688042 17716446 17744092 
2205.351 17770186 17794662 17819032 17846616 17882418 17930068 17992540 
2208.727 18069006 18156752 18251148 18348054 18445432 18543212 18642676 
2212.102 18744338 18848034 18951302 19050340 19140914 19219870 19284986 
2215.477 19336080 19374154 19400798 19418538 19430042 19438290 19446050 
2218.852 19456030 19468332 19481292 19490580 19491170 19477550 19446604 
2222.228 19397852 19333622 19257900 19174330 19086000 18994432 18900564 
2225.603 18804850 18709432 18617496 18531836 18455632 18389604 18332570 
2228.978 18281974 18234736 18188538 18142104 18095880 18050562 18007354 
2232.353 17967570 17932070 17901720 17877896 17861012 17850896 17846650 
2235.729 17846236 17847928 17851208 17855798 17863188 17875202 17891706 
2239.104 17911318 17930724 17945434 17951892 17948508 17936802 17920158 
2242.479 17903894 17890842 17883006 17880002 17879658 17879554 17879036 
2245.854 17877550 17876446 17876896 17879760 17885008 17892328 17901478 
2249.229 17912112 17924956 17940462 17958316 17978206 17999240 18020444 
2252.605 18042204 18065174 18090424 18119200 18151016 18184598 18217734 
2255.980 18248280 18274960 18297734 18317468 18335198 18351580 18365892 
2259.355 18376640 18382102 18381064 18373426 18360258 18343216 18324104 
2262.730 18304334 18285050 18267772 18253880 18245758 18245102 18253326 
2266.106 18269880 18292688 18318330 18343424 18365372 18383036 18396862 
2269.481 18407786 18416774 18423894 18428320 18428526 18423688 18413420 
2272.856 18398142 18379234 18358080 18335474 18312318 18288748 18265420 
2276.231 18243168 18223332 18206748 18194030 18184944 18178104 18172472 
2279.607 18167082 18161416 18155438 18149530 18143866 18137888 18131152 
2282.982 18122966 18112946 18101410 18088592 18075364 18062410 18050148 
2286.357 18038750 18028768 18020892 18015332 18013330 18014330 18017508 
2289.732 18021724 18024968 18026282 18025868 18024416 18023726 18025452 
2293.108 18030046 18037298 18046590 18056262 18065622 18074638 18083894 
2296.483 18094570 18107212 18121652 18137404 18153054 18167704 18180592 
2299.858 18191994 18202566 18213208 18224610 18237396 18252014 18269016 
2303.233 18288610 18311074 18336824 18365650 18396966 18429980 18464170 
2306.609 18499230 18535052 18571742 18609022 18646340 18682070 18714690 
2309.984 18742574 18764922 18781566 18793226 18801598 18807792 18813222 
2313.359 18818794 18825402 18833882 18845508 18861494 18883088 18910982 
2316.734 18945108 18984706 19028806 19076270 19126024 19177828 19231370 
2320.110 19286302 19341624 19395428 19444594 19485902 19515288 19529534 
2323.485 19526898 19507560 19473530 19429314 19380980 19334834 19296902 
2326.860 19271652 19260740 19263372 19276154 19294580 19314084 19331370 
2330.235 19345052 19355828 19365944 19377446 19392448 19411678 19435100 
2333.611 19461678 19490474 19519794 19548422 19575458 19599860 19621422 
2336.986 19640730 19658550 19676544 19695648 19716138 19736838 19755978 
2340.361 19771132 19780356 19782888 19778344 19766590 19746234 19713988 
2343.736 19665380 19596672 19507006 19400866 19289592 19189360 19117680 
2347.112 19089012 19112486 19189706 19315158 19478452 19667078 19867754 
2350.487 20068280 20259940 20437310 20597864 20741550 20869258 20981878 
2353.862 21079534 21162636 21231976 21289774 21339052 21383808 21426660 
2357.237 21468432 21508572 21544644 21574206 21596284 21611362 21621672 
2360.613 21629718 21637482 21645876 21654340 21661584 21666424 21668550 
2363.988 21668270 21666112 21662036 21654828 21642324 21621776 21590538 
2367.363 21547536 21493430 21430174 21360316 21286468 21210684 21133764 
2370.738 21056022 20977706 20898740 20819758 20741794 20665410 20591714 
2374.114 20521642 20455300 20393342 20336012 20282960 20233696 20187390 
2377.489 20142686 20098228 20053254 20007280 19960442 19914200 19869628 
2380.864 19828598 19792876 19763712 19742732 19730874 19729142 19737462 
2384.239 19755668 19782332 19815798 19854194 19895780 19939454 19985040 
2387.615 20032296 20081642 20133002 20185898 20239704 20294382 20349902 
2390.990 20407268 20468256 20534322 20606550 20684418 20766332 20849376 
2394.365 20930694 21007404 21077762 21141070 21197880 21249234 21296664 
2397.740 21341488 21384854 21427354 21469442 21510802 21551086 21589564 
2401.115 21625502 21657892 21686730 21711878 21734102 21754342 21773990 
2404.491 21794056 21815588 21839072 21864996 21893360 21923990 21956542 
2407.866 21991012 22027160 22064738 22104376 22146284 22191056 22239146 
2411.241 22290868 22346052 22404556 22465684 22529402 22595506 22664340 
2414.616 22735910 22810494 22888026 22967876 23049874 23133948 23220378 
2417.992 23309940 23403506 23501394 23604132 23711338 23822352 23936754 
2421.367 24054234 24174548 24297732 24423548 24551292 24679774 24808226 
2424.742 24935626 25062504 25190190 25320758 25457022 25601342 25755168 
2428.117 25919178 26093878 26278676 26473416 26678496 26894776 27123296 
2431.493 27365488 27622434 27895008 28183908 28489346 28811250 29149338 
2434.868 29502974 29871274 30252780 30645468 31046482 31452034 31856968 
2438.243 32255106 32639288 33001606 33333882 33628864 33879404 34080056 
2441.618 34227340 34319272 34356460 34341468 34278896 34174032 34033000 
2444.994 33861920 33665988 33450462 33220128 32979582 32733526 32486644 
2448.369 32242474 32004502 31774506 31553890 31343580 31144720 30958836 
2451.744 30788214 30635796 30503656 30393232 30304864 30237222 30188344 
2455.119 30156486 30140396 30139472 30154426 30185610 30233456 30297474 
2458.495 30375962 30466976 30568530 30679142 30798068 30925176 31060932 
2461.870 31205206 31358358 31520400 31691450 31872266 32064144 32268740 
2465.245 32487750 32722988 32975436 33245880 33534822 33842292 34168332 
2468.620 34512736 34875184 35254932 35650516 36060360 36482516 36915616 
2471.996 37357852 37808380 38266940 38733380 39208332 39693240 40189888 
2475.371 40700784 41228896 41776480 42346260 42939436 43556240 44194756 
2478.746 44851812 45521308 46195080 46863624 47514936 48135724 48712400 
2482.121 49229644 49671640 50023208 50268216 50392328 50384332 50236152 
2485.497 49944248 49510036 48938712 48239424 47423716 46507040 45506300 
2488.872 44441232 43333960 42205872 41078200 39970516 38898088 37873380 
2492.247 36905300 35999300 35158708 34384684 33677520 33036210 32458864 
2495.622 31943298 31486340 31084600 30734618 30432502 30174456 29956430 
2498.998 29773926 29622786 29497798 29394366 29308044 29235276 29173684 
2502.373 29121772 29078866 29044396 29017366 28995934 28977376 28958920 
2505.748 28937884 28912348 28881892 28847012 28808984 28769048 28728018 
2509.123 28685540 28640872 28592138 28537820 28476856 28409004 28335042 
2512.499 28256322 28175070 28093406 28013244 27936346 27863986 27797254 
2515.874 27736606 27682290 27633910 27591186 27552914 27518318 27486618 
2519.249 27457002 27429366 27404308 27382076 27362948 27346644 27332072 
2522.624 27317464 27300986 27280380 27254344 27222698 27186046 27146400 
2526.000 27105910 27067012 27031854 27001636 26976990 26957916 26944236 
2529.375 26935564 26931334 26931474 26935810 26944344 26957316 26975050 
2532.750 26997122 27023674 27053822 27086090 27119522 27152678 27184776 
2536.125 27215854 27246370 27276958 27308396 27340928 27373922 27406426 
2539.500 27437096 27465158 27490042 27511822 27530780 27547338 27561740 
2542.876 27574098 27584550 27593374 27601354 27609158 27617702 27627130 
2546.251 27637018 27646764 27655450 27662582 27669188 27676744 27687938 
2549.626 27705350 27730990 27765568 27808594 27858510 27912744 27969244 
2553.001 28025896 28081104 28134200 28184720 28232948 28279164 28324044 
2556.377 28368750 28414098 28461820 28512486 28566730 28624590 28685254 
2559.752 28747630 28810258 28871942 28931932 28990446 29048398 29107670 
2563.127 29171096 29240380 29317046 29400854 29489606 29580044 29668194 
2566.502 29751110 29827052 29896546 29961756 30026266 30093164 30165010 
2569.878 30242622 30325364 30411498 30499142 30586982 30674092 30760438 
2573.253 30846730 30933252 31020432 31108840 31198584 31290304 31384572 
2576.628 31482246 31584036 31690772 31802952 31920656 32044094 32173316 
2580.003 32308110 32448546 32594316 32744958 32900262 33059842 33223666 
2583.379 33392240 33566604 33747880 33937260 34136644 34347276 34570820 
2586.754 34808768 35062144 35331412 35616204 35915440 36226652 36547136 
2590.129 36873340 37201956 37529772 37853892 38171568 38479844 38775328 
2593.504 39054052 39311912 39544340 39747340 39917884 40054152 40155504 
2596.880 40222820 40257608 40262332 40239248 40191012 40119816 40028104 
2600.255 39918320 39792800 39653780 39503224 39342820 39173988 38998444 
2603.630 38817936 38634600 38450664 38267884 38088040 37912028 37740396 
2607.005 37573484 37411984 37256608 37108836 36969944 36840556 36720572 
2610.381 36609384 36505112 36406232 36311624 36220564 36133632 36051644 
2613.756 35975328 35905324 35841912 35784736 35733756 35689364 35652424 
2617.131 35624404 35607108 35601784 35609336 35630268 35663968 35709976 
2620.506 35768080 35837920 35919612 36013560 36119912 36238824 36369948 
2623.882 36513184 36668040 36834060 37010788 37197264 37392376 37594512 
2627.257 37801548 38011436 38221784 38430536 38635436 38834424 39025524 
2630.632 39206516 39375540 39530984 39671712 39796468 39904512 39994820 
2634.007 40065856 40115748 40142496 40143584 40117344 40062620 39979164 
2637.383 39867868 39731108 39572396 39395604 39205644 39007396 38805252 
2640.758 38603496 38404980 38212016 38026192 37848544 37680404 37522656 
2644.133 37376664 37243580 37125112 37022372 36936032 36866884 36814908 
2647.508 36779568 36760096 36755836 36765720 36788728 36824216 36871320 
2650.884 36929324 36997436 37074552 37159328 37249968 37344528 37440876 
2654.259 37537140 37631944 37724308 37813804 37900532 37984856 38067348 
2657.634 38148740 38229492 38310512 38392456 38475716 38561308 38649924 
2661.009 38742036 38838804 38941356 39050680 39167752 39292836 39425936 
2664.385 39565752 39710776 39859364 40009864 40161828 40314972 40470468 
2667.760 40629140 40792096 40959884 41132652 41309752 41490788 41675152 
2671.135 41862356 42052352 42245420 42441648 42641544 42845296 43053388 
2674.510 43266052 43483792 43706704 43934424 44166256 44401004 44637644 
2677.885 44874964 45111856 45347780 45582172 45814596 46044712 46271924 
2681.261 46496272 46717452 46935896 47151832 47365700 47577968 47788820 
2684.636 47998336 48206952 48415300 48624524 48836296 49051920 49272732 
2688.011 49499488 49732384 49971276 50216100 50467020 50724412 50989112 
2691.386 51261996 51544000 51835188 52135684 52444988 52762592 53087840 
2694.762 53420272 53759440 54105104 54457164 54815192 55178892 55547788 
2698.137 55920960 56297508 56676080 57055436 57434364 57812304 58188980 
2701.512 58564352 58938908 59312348 59684204 60053492 60418712 60778408 
2704.887 61131232 61476176 61812452 62139700 62457744 62766372 63065724 
2708.263 63355572 63636028 63907376 64169100 64420952 64662068 64891344 
2711.638 65107508 65309912 65497808 65670720 65828540 65970420 66095516 
2715.013 66202940 66291704 66361336 66411728 66442840 66455080 66447900 
2718.388 66420488 66371104 66297808 66198460 66071056 65914572 65728536 
2721.764 65512760 65268128 64996048 64698332 64377604 64036608 63678384 
2725.139 63305700 62921652 62528796 62130524 61730364 61332328 60940944 
2728.514 60560884 60195964 59849412 59523504 59219528 58938304 58680964 
2731.889 58448416 58241716 58062348 57910920 57787432 57691348 57620664 
2735.265 57573296 57546740 57538304 57545264 57565620 57597056 57637956 
2738.640 57687108 57743380 57806172 57875672 57951960 58035196 58125944 
2742.015 58224784 58332512 58450804 58581220 58726172 58887184 59066060 
2745.390 59263428 59479164 59712412 59961540 60224892 60499980 60784924 
2748.766 61077380 61375372 61677048 61981072 62286608 62593468 62901700 
2752.141 63211864 63523836 63837676 64152472 64466612 64778136 65084836 
2755.516 65384088 65672956 65949016 66210112 66454040 66680020 66887492 
2758.891 67076804 67248328 67402552 67540176 67661664 67768192 67861504 
2762.267 67944680 68021288 68095736 68171520 68251072 68334872 68421088 
2765.642 68505848 68583712 68649144 68695632 68717840 68711584 68673672 
2769.017 68602264 68497312 68359576 68190440 67991920 67766336 67515680 
2772.392 67242184 66948676 66637760 66312896 65977744 65635764 65290464 
2775.768 64945020 64602196 64264604 63934676 63614936 63307308 63013852 
2779.143 62735820 62474424 62230508 62004804 61797708 61609608 61439988 
2782.518 61287452 61150188 61025096 60908844 60798912 60692400 60587324 
2785.893 60482044 60374732 60262992 60143904 60013960 59869568 59707964 
2789.269 59527420 59326816 59106412 58866812 58608984 58334292 58044208 
2792.644 57740352 57424872 57100552 56769940 56435432 56099524 55764172 
2796.019 55431000 55101696 54777224 54458556 54146236 53840112 53539592 
2799.394 53244680 52954680 52670412 52393056 52123836 51865016 51618400 
2802.770 51385016 51165884 50961804 50772716 50599160 50441524 50299984 
2806.145 50174484 50065260 49971756 49894068 49832044 49785480 49754228 
2809.520 49737696 49734872 49744608 49765748 49797296 49838916 49890948 
2812.895 49954140 50028748 50114756 50210856 50314604 50423476 50534608 
2816.271 50645736 50755544 50863448 50969476 51074004 51177928 51281120 
2819.646 51384344 51488000 51592464 51698340 51806552 51917480 52032168 
2823.021 52152008 52278644 52414028 52560752 52720688 52895844 53087396 
2826.396 53296184 53523252 53769752 54037216 54327568 54642192 54982056 
2829.771 55346380 55732600 56136096 56550380 56967968 57380172 57777480 
2833.147 58151472 58493524 58796620 59055544 59267644 59432276 59550980 
2836.522 59626652 59662764 59663412 59632888 59575532 59496680 59402984 
2839.897 59300536 59196552 59097680 59009464 58936744 58883884 58854552 
2843.272 58852996 58883732 58950784 59057520 59205892 59395612 59623916 
2846.648 59885924 60174460 60480252 60792436 61099232 61387472 61645352 
2850.023 61862236 62030376 62146696 62212076 62232076 62215328 62172580 
2853.398 62115960 62056520 62005032 61970716 61961044 61981796 62037060 
2856.773 62128880 62257696 62422816 62622288 62853596 63113228 63398248 
2860.149 63704632 64028464 64366036 64712904 65065480 65419764 65771328 
2863.524 66115616 66447592 66761120 67050508 67310264 67536080 67725360 
2866.899 67877192 67992384 68072680 68120472 68138920 68131208 68101008 
2870.274 68052488 67989552 67916400 67836832 67754216 67672240 67594688 
2873.650 67525664 67470040 67432816 67418568 67431072 67472712 67544208 
2877.025 67645248 67774744 67931352 68112872 68317424 68542200 68783792 
2880.400 69039072 69304288 69576528 69853792 70135128 70419912 70708208 
2883.775 70999624 71293568 71589440 71886296 72183576 72480840 72777792 
2887.151 73073968 73368816 73661552 73951536 74238488 74522680 74804616 
2890.526 75085080 75364864 75643640 75920864 76195656 76467184 76734416 
2893.901 76996360 77251520 77497968 77733136 77953728 78156736 78339792 
2897.276 78501024 78639512 78754768 78846416 78914400 78958664 78979648 
2900.652 78978736 78957832 78919208 78865048 78796832 78715288 78620568 
2904.027 78513368 78395120 78268288 78136336 78003248 77872376 77746008 
2907.402 77625680 77511864 77405368 77307336 77219536 77144224 77083272 
2910.777 77037184 77005176 76984288 76970640 76958968 76943656 76918976 
2914.153 76879072 76818360 76732520 76617840 76472832 76298024 76096000 
2917.528 75870944 75627552 75370464 75103400 74828360 74545768 74254568 
2920.903 73952632 73637056 73305104 72954648 72584608 72195552 71789928 
2924.278 71371320 70944728 70515240 70087392 69665088 69251360 68848080 
2927.654 68456424 68077056 67709640 67353912 67008676 66672644 66344664 
2931.029 66023804 65709808 65403276 65105320 64817524 64541184 64277432 
2934.404 64026660 63788972 63563840 63350440 63147560 62953860 62767372 
2937.779 62586388 62409312 62234636 62061752 61890620 61721808 61556000 
2941.155 61394072 61236404 61083176 60934540 60789956 60649000 60511560 
2944.530 60376828 60243772 60111784 59979568 59846256 59711728 59575760 
2947.905 59439112 59302964 59168604 59038004 58913368 58797188 58692264 
2951.280 58601624 58528176 58474416 58442768 58435144 58453152 58498416 
2954.656 58571668 58672464 58798856 58945700 59105008 59266352 59416696 
2958.031 59543648 59635852 59684888 59686412 59639956 59548704 59418140 
2961.406 59255908 59070612 58870448 58664500 58460924 58267332 58090372 
2964.781 57935604 57806664 57705876 57633792 57589792 57571368 57575036 
2968.156 57595884 57627892 57664668 57699556 57725856 57738652 57733728 
2971.532 57708376 57661604 57593124 57503464 57393900 57265916 57121260 
2974.907 56961848 56790148 56608320 56418716 56223356 56023328 55819592 
2978.282 55612260 55401072 55185924 54967316 54746176 54524704 54305900 
2981.657 54092684 53888496 53695880 53516508 53351328 53200744 53064516 
2985.033 52942516 52834396 52739808 52658556 52590520 52535656 52494524 
2988.408 52467792 52456464 52461324 52482900 52520700 52573464 52640112 
2991.783 52719604 52812840 52922492 53052948 53209808 53397488 53618088 
2995.158 53869064 54142976 54425956 54699800 54944336 55137884 55261404 
2998.534 55302008 55252976 55116816 54904856 54637644 54340668 54042772 
3001.909 53773800 53558408 53416000 53358296 53388344 53500688 53681856 
3005.284 53912728 54167896 54418480 54636440 54793536 54866880 54841692 
3008.659 54711560 54480304 54160012 53770428 53334472 52874924 52414104 
3012.035 51969460 51553664 51174868 50836704 50539264 50280488 50056824 
3015.410 49864264 49698684 49556792 49435548 49332380 49245416 49172792 
3018.785 49112460 49062896 49022428 48989752 48964008 48944280 48929776 
3022.160 48919876 48913608 48909680 48907488 48906228 48905116 48904224 
3025.536 48903520 48902856 48902484 48902448 48902632 48903040 48903520 
3028.911 48903520 48903004 48901556 48899072 48895736 48891916 48887984 
3032.286 48883940 48879568 48873376 48863808 48848940 48827212 48798516 
3035.661 48763740 48724408 48683120 48641868 48601844 48563156 48525400 
3039.037 48487572 48448860 48408928 48367964 48326444 48285044 48244016 
3042.412 48203988 48165488 48129468 48097188 48070100 48049372 48035640 
3045.787 48028348 48026280 48027796 48031456 48036492 48042820 48051592 
3049.162 48064176 48081792 48105780 48136764 48174704 48219652 48271232 
3052.538 48328924 48392592 48462084 48537440 48619596 48709916 48809860 
3055.913 48921544 49046204 49184632 49336052 49498376 49668148 49839992 
3059.288 50008004 50164624 50301100 50408296 50476064 50494448 50455592 
3062.663 50353152 50184484 49950788 49657560 49313968 48931372 48523140 
3066.039 48102892 47682716 47274032 46885552 46524264 46194860 45899992 
3069.414 45640616 45416088 45224212 45061828 44924928 44809088 44710540 
3072.789 44625964 44553196 44491776 44441856 44403976 44378652 44364968 
3076.164 44360744 44362176 44364856 44364268 44356672 44340380 44315172 
3079.540 44283028 44246740 44209468 44174216 44143184 44117624 44098184 
3082.915 44085308 44078928 44079000 44085348 44097268 44113332 44131448 
3086.290 44148064 44158556 44157892 44140324 44101152 44036572 43945348 
3089.665 43828484 43689412 43533680 43367532 43197456 43028988 42866724 
3093.041 42713700 42571548 42441352 42323396 42217704 42123644 42040560 
3096.416 41966760 41900308 41838788 41779396 41719864 41658152 41592696 
3099.791 41522796 41448648 41371412 41292480 41213668 41136548 41061844 
3103.166 40989376 40918264 40847096 40774188 40698528 40619752 40538008 
3106.542 40454532 40370204 40285780 40202536 40120544 40040164 39961688 
3109.917 39885300 39810848 39737932 39665868 39593520 39520100 39444836 
3113.292 39367888 39290040 39212244 39135552 39060540 38987132 38915048 
3116.667 38843732 38773192 38703784 38636488 38572132 38510472 38450880 
3120.042 38391188 38329080 38262456 38190672 38113828 38034112 37954408 
3123.418 37876996 37803936 37736128 37672668 37612504 37554336 37497080 
3126.793 37440372 37384536 37329576 37275816 37223252 37171708 37120708 
3130.168 37070220 37020208 36971100 36923372 36877308 36833232 36791036 
3133.543 36750320 36710656 36671468 36632640 36593920 36555784 36518448 
3136.919 36482408 36447996 36414984 36382916 36350960 36317672 36281796 
3140.294 36242424 36199024 36151996 36102484 36052040 36002472 35955388 
3143.669 35912128 35873116 35838312 35806864 35777684 35749660 35721920 
3147.044 35694116 35666488 35639832 35615160 35593440 35575064 35559668 
3150.420 35546220 35532844 35517672 35499044 35476248 35449356 35419192 
3153.795 35387488 35355352 35323936 35293676 35264600 35236392 35209044 
3157.170 35183248 35159428 35138984 35122636 35110892 35103456 35099756 
3160.545 35098428 35098496 35098712 35098428 35097312 35095228 35092244 
3163.921 35089012 35086572 35085924 35088940 35097168 35112040 35134456 
3167.296 35164496 35201464 35244368 35292308 35344424 35401108 35463700 
3170.671 35534104 35614660 35708036 35816076 35940016 36080412 36237132 
3174.046 36409760 36598140 36802036 37021972 37258848 37513444 37786768 
3177.422 38078960 38389484 38716460 39056916 39406560 39760120 40111712 
3180.797 40455480 40784816 41094552 41379032 41633280 41853344 42035816 
3184.172 42178012 42279204 42339432 42360360 42344948 42297208 42221828 
3187.547 42124304 42010668 41886808 41759040 41633320 41514120 41404324 
3190.923 41304796 41214616 41130828 41050336 40969748 40886592 40799156 
3194.298 40706792 40609532 40507784 40402096 40293488 40183128 40072392 
3197.673 39963032 39856716 39754600 39657480 39565864 39480108 39400504 
3201.048 39327728 39262476 39205028 39155824 39113760 39077652 39046364 
3204.424 39018596 38993912 38972384 38954408 38940344 38930412 38924256 
3207.799 38921536 38922476 38927696 38938168 38955420 38980248 39012144 
3211.174 39049700 39090520 39131892 39172100 39210652 39248112 39286668 
3214.549 39328128 39374052 39424812 39480292 39538972 39599836 39662128 
3217.925 39725516 39790076 39856244 39923804 39992572 40062148 40131952 
3221.300 40201588 40271276 40341224 40411804 40483556 40556852 40631540 
3224.675 40707664 40784528 40861548 40938148 41013992 41088944 41164016 
3228.050 41240232 41319444 41403016 41491704 41585148 41682332 41780856 
3231.426 41878560 41973732 42065492 42154172 42241184 42328072 42416328 
3234.801 42506720 42599764 42694804 42791504 42889000 42986768 43084344 
3238.176 43181904 43279780 43378884 43480168 43584556 43692524 43803928 
3241.551 43917596 44031588 44143516 44251732 44355608 44455876 44554368 
3244.927 44654020 44757444 44866400 44981488 45102192 45227116 45355100 
3248.302 45484992 45616436 45749024 45882460 46016344 46149864 46282284 
3251.677 46413120 46542080 46669892 46797672 46926668 47057812 47192060 
3255.052 47329044 47468288 47608948 47749504 47889072 48026500 48161120 
3258.427 48292784 48421484 48547852 48672740 48797216 48922284 49048432 
3261.803 49175800 49303908 49431796 49558052 49681076 49799488 49912764 
3265.178 50020424 50123344 50223092 50321192 50419828 50520540 50624028 
3268.553 50730412 50838640 50947196 51053920 51157160 51254836 51345784 
3271.928 51429136 51505128 51574744 51639596 51701848 51763324 51825404 
3275.304 51888540 51952168 52015100 52075648 52133028 52186832 52237760 
3278.679 52286644 52334520 52381844 52428536 52473660 52516624 52556824 
3282.054 52594372 52630088 52664616 52698696 52732700 52766256 52799184 
3285.429 52831028 52861640 52891128 52919872 52947420 52973360 52996680 
3288.805 53016560 53032208 53043924 53052612 53059612 53066728 53074928 
3292.180 53084772 53096416 53109524 53123676 53138616 53154232 53170296 
3295.555 53187112 53204304 53221644 53238760 53255392 53270860 53284908 
3298.930 53296856 53305888 53311428 53313380 53311808 53307420 53301428 
3302.306 53294388 53287268 53280228 53272884 53265468 53258388 53252172 
3305.681 53248276 53248276 53253108 53263520 53279588 53300604 53325668 
3309.056 53354024 53384712 53416896 53450400 53484012 53517708 53550912 
3312.431 53583896 53617412 53652652 53690748 53732628 53779056 53829760 
3315.807 53884408 53942664 54004008 54068552 54135992 54206260 54279092 
3319.182 54354376 54431552 54510544 54591768 54675336 54761516 54850416 
3322.557 54941216 55032748 55123512 55212036 55297156 55378372 55455620 
3325.932 55528888 55598364 55664500 55727552 55787720 55845100 55899972 
3329.308 55952016 56001168 56046892 56088848 56127008 56161096 56191488 
3332.683 56218188 56241080 56259336 56271972 56277968 56276800 56268804 
3336.058 56254808 56236216 56214532 56189828 56161736 56129004 56090284 
3339.433 56044100 55990348 55929176 55861568 55788736 55711620 55630640 
3342.809 55546020 55457392 55364596 55267500 55165836 55059492 54948136 
3346.184 54832256 54711976 54588384 54462688 54336200 54209824 54083860 
3349.559 53958008 53831708 53704280 53575016 53444288 53312444 53179888 
3352.934 53046772 52913212 52778828 52643520 52507724 52372088 52237840 
3356.310 52105908 51976292 51848476 51721704 51594332 51465992 51336684 
3359.685 51207376 51079336 50953868 50831528 50712272 50595512 50479932 
3363.060 50364572 50248576 50131564 50013392 49894404 49775112 49656484 
3366.435 49539372 49424744 49313188 49204888 49099032 48994200 48888984 
3369.811 48782128 48673188 48562900 48452600 48343516 48236832 48132580 
3373.186 48030240 47928700 47827068 47724692 47621740 47519004 47416916 
3376.561 47316112 47216768 47118116 47020368 46923752 46828416 46735236 
3379.936 46644548 46555832 46468208 46379828 46289320 46195152 46097836 
3383.312 45998112 45897928 45799904 45705804 45617284 45535108 45459276 
3386.687 45388936 45323432 45261460 45201456 45141784 45080280 45014596 
3390.062 44943196 44864932 44779884 44689676 44596920 44504768 44416052 
3393.437 44332600 44254520 44180492 44107464 44032684 43954076 43871112 
3396.813 43785344 43699520 43616904 43540160 43469732 43404696 43342160 
3400.188 43278936 43211916 43139744 43062168 42981064 42897740 42813776 
3403.563 42729900 42645600 42560144 42472592 42382168 42289172 42193784 
3406.938 42097144 42000264 41903884 41808288 41713628 41619864 41526736 
3410.313 41433960 41341092 41247624 41153196 41057328 40959520 40859396 
3413.689 40757044 40652172 40545140 40436312 40326788 40217076 40107968 
3417.064 39999544 39890640 39779948 39665720 39546736 39422776 39294972 
3420.439 39166080 39039008 38916860 38801268 38692628 38589480 38489940 
3423.814 38391764 38293248 38193744 38093392 37992592 37892328 37792512 
3427.190 37693444 37594764 37495708 37395372 37292532 37185708 37074152 
3430.565 36957428 36836404 36712860 36589452 36468716 36352692 36242100 
3433.940 36136044 36032820 35930912 35829176 35727968 35628544 35532484 
3437.315 35440728 35352940 35266796 35179688 35088188 34990164 34885456 
3440.691 34775812 34664512 34555572 34452220 34356384 34267708 34183888 
3444.066 34100804 34013972 33919276 33814388 33699252 33576740 33451502 
3447.441 33328946 33214048 33108580 33012114 32921422 32831826 32739316 
3450.816 32641322 32537244 32428872 32318528 32208714 32100924 31995158 
3454.192 31890306 31785376 31679760 31573706 31467922 31363416 31260536 
3457.567 31159138 31058548 30957874 30856832 30755778 30655104 30555412 
3460.942 30456918 30359260 30261770 30163802 30065110 29965484 29865064 
3464.317 29764312 29662944 29560960 29458082 29354658 29251438 29149550 
3467.693 29049638 28952228 28856220 28759808 28660940 28557884 28449828 
3471.068 28337590 28222622 28106520 27991014 27876918 27764156 27652590 
3474.443 27542322 27433532 27327554 27225378 27128270 27037002 26950758 
3477.818 26868656 26788580 26708198 26624910 26536318 26440948 26338734 
3481.194 26230912 26120794 26012430 25909718 25815154 25728766 25647562 
3484.569 25567322 25482742 25389464 25285848 25172914 25054464 24935626 
3487.944 24821768 24716354 24621594 24537092 24460984 24390776 24323664 
3491.319 24257402 24189716 24119204 24044710 23965850 23883154 23796976 
3494.695 23708750 23619666 23530636 23442918 23357560 23275086 23196716 
3498.070 23122380 23052180 22984680 22917470 22847548 22771664 22688010 
3501.445 22596098 22497996 22397858 22300182 22209958 22130350 22062296 
3504.820 22004154 21952534 21902664 21849280 21788274 21716478 21633198 
3508.196 21540082 21440756 21340896 21245964 21161210 21089274 21030008 
3511.571 20980314 20935702 20891092 20842458 20787500 20726502 20660996 
3514.946 20593484 20526542 20461898 20399768 20340352 20283132 20227760 
3518.321 20174512 20123146 20073866 20025218 19975082 19920514 19858668 
3521.697 19787744 19708198 19622148 19534178 19448754 19369928 19299084 
3525.072 19235420 19175612 19115256 19051308 18981936 18908110 18832324 
3528.447 18757900 18687156 18621368 18559672 18501028 18444050 18388496 
3531.822 18334748 18283910 18235738 18189436 18142242 18091184 18033708 
3535.198 17969160 17899164 17827144 17757554 17693528 17636692 17586382 
3538.573 17541048 17498374 17457188 17417316 17379170 17343170 17308788 
3541.948 17274446 17237558 17194810 17144102 17083616 17013558 16935242 
3545.323 16850844 16763294 16676450 16594648 16521709 16460896 16412994 
3548.698 16376246 16345933 16315969 16279984 16233478 16175697 16108880 
3552.074 16039012 15972113 15913852 15866799 15830407 15801920 15777525 
3555.449 15753713 15728736 15701527 15672257 15640827 15607235 15571001 
3558.824 15532023 15490335 15447382 15404810 15364920 15329598 15300115 
3562.199 15276571 15257764 15240021 15218024 15184911 15132244 15053443 
3565.575 14944477 14807699 14652047 14493059 14349677 14236985 14164817 
3568.950 14132947 14134556 14157456 14189019 14218907 14239518 14247427 
3572.325 14242394 14226131 14201686 14171457 14138218 14103476 14068496 
3575.700 14033760 13999128 13964430 13928950 13892069 13853822 13814724 
3579.076 13776724 13741327 13710274 13685380 13667804 13658402 13657410 
3582.451 13664590 13678268 13695057 13708838 13711403 13693108 13644828 
3585.826 13560553 13440170 13292318 13131915 12979797 12855992 12773713 
3589.201 12737715 12742458 12776887 12825515 12873740 12909818 12926031 
3592.577 12919307 12891761 12848586 12797088 12744335 12696670 12657233 
3595.952 12627043 12605144 12589488 12576595 12563157 12545490 12520901 
3599.327 12488266 12448676 12405068 12362964 12327715 12304502 12295639 
3602.702 12301263 12318477 12342510 12367941 12388873 12399442 12394192 
3606.078 12368316 12317932 12243015 12148006 12042253 11939251 11852788 
3609.453 11791739 11757592 11743465 11737235 11725831 11700062 11658708 
3612.828 11608848 11564303 11538817 11542253 11574851 11628280 11686515 
3616.203 11731380 11747277 11723108 11656325 11553040 11428177 11301344 
3619.579 11192092 11117029 11083955 11092283 11134230 11198484 11273289 
3622.954 11349196 11422055 11491421 11559879 11628791 11694412 11745371 
3626.329 11763141 11723856 11607521 11407597 11143068 10859097 10612830 
3629.704 10454464 10402469 10443739 10543399 10662302 10768297 10840820 
3633.080 10874963 10878157 10865076 10850978 10845916 10851725 10863887 
3636.455 10874555 10877885 10871327 10857161 10840277 10824888 10813440 
3639.830 10805797 10799819 10793976 10789255 10789152 10799547 10825771 
3643.205 10870173 10930412 10999156 11065125 11114139 11133550 11112303 
3646.581 11044290 10927932 10768501 10576161 10364630 10151575 9957203 
3649.956 9801449 9703144 9674480 9717206 9821885 9969137 10133871 10287302 
3653.813 10403521 10463255 10456365 10387435 10275901 10152695 10048715 
3657.188 9986258 9973070 10002295 10058651 10124374 10186173 10234444 
3660.564 10266096 10282280 10286962 10285198 10281703 10281533 10288523 
3663.939 10306166 10336737 10380919 10436407 10498319 10557658 10603356 
3667.314 10620367 10595004 10516819 10385128 10213039 10031083 9881234 
3670.689 9800941 9811142 9905878 10056514 10217245 10337586 10373997 
3674.065 10297073 10106264 9836764 9557439 9341395 9234055 9240181 9328868 
3677.922 9456752 9583622 9685390 9754954 9798941 9830596 9863032 9903335 
3681.780 9952050 10005821 10061465 10119219 10182612 10255274 10337009 
3685.155 10420185 10489493 10526018 10510437 10431758 10292357 10111385 
3688.530 9919302 9747364 9618581 9540504 9507922 9509175 9534035 9575426 
3692.387 9629997 9695487 9769186 9845440 9918149 9981105 10031320 10069740 
3696.245 10101346 10132650 10168229 10208934 10249982 10283399 10298938 
3699.620 10288489 10249371 10185393 10107315 10030235 9970154 9939269 
3702.995 9943168 9981071 10046816 10131327 10224911 10319399 10407729 
3706.371 10484979 10547915 10593884 10620333 10624679 10603288 10552294 
3709.746 10469093 10354247 10213989 10060889 9914488 9796230 9723983 9708260 
3713.603 9747838 9832121 9943439 10063331 10174674 10265146 10329781 
3716.979 10369653 10391304 10403317 10412854 10423681 10434337 10440039 
3720.354 10435118 10416485 10385196 10346781 10309118 10280075 10263009 
3723.729 10257005 10255952 10253238 10243604 10227761 10212360 10209613 
3727.104 10232443 10288828 10378951 10492378 10612694 10718642 10790681 
3730.479 10816294 10792889 10729680 10643728 10554637 10474727 10403895 
3733.855 10331037 10241263 10125459 9988292 9849745 9738180 9680206 9687694 
3737.712 9756207 9868997 10007212 10155951 10307522 10459861 10610453 
3741.087 10750397 10860898 10911283 10866367 10699963 10414415 10057024 
3744.463 9713546 9480761 9413747 9507685 9709650 9950321 10166635 10309593 
3748.320 10354247 10298701 10163616 9982054 9789452 9614008 9470636 9367362 
3752.177 9310723 9306559 9357780 9459731 9598866 9753835 9900657 10020436 
3756.035 10100770 10139399 10142519 10121389 10086832 10046240 10003686 
3759.410 9963441 9931777 9919234 9936049 9987174 10067943 10164498 10256462 
3763.268 10323368 10352720 10343796 10310169 10272441 10252628 10262534 
3766.643 10299380 10346985 10383431 10390048 10357335 10289269 10201743 
3770.018 10118168 10058888 10035695 10049190 10091274 10149371 10210969 
3773.393 10267182 10313698 10350039 10378069 10400636 10419031 10432199 
3776.769 10436034 10424732 10393204 10340232 10270371 10195094 10130818 
3780.144 10093071 10090562 10122713 10179423 10245368 10304028 10343660 
3783.519 10359574 10355197 10338706 10320620 10308507 10305352 10309525 
3786.894 10317295 10325370 10332258 10338502 10345425 10353500 10362187 
3790.270 10370807 10379155 10388860 10403351 10425343 10454804 10487456 
3793.645 10514272 10524898 10511218 10472589 10417945 10364834 10335448 
3797.020 10345797 10399754 10485318 10578571 10647633 10660469 10596395 
3800.395 10452257 10251950 10040068 9873336 9795484 9820496 9931810 10090359 
3804.253 10251611 10370535 10416112 10376236 10262704 10109588 9964356 
3807.628 9870896 9851033 9901742 10001075 10122475 10243332 10351634 
3811.003 10446793 10534947 10622812 10710321 10787794 10836540 10835793 
3814.378 10769961 10639416 10466649 10295275 10173962 10135770 10186987 
3817.754 10304367 10446997 10565501 10617889 10576569 10438003 10227354 
3821.129 9996871 9809040 9709379 9714190 9807413 9954830 10115387 10254188 
3824.986 10350005 10396123 10401824 10385568 10370943 10375184 10404743 
3828.362 10454701 10512372 10563361 10596022 10605801 10595785 10575651 
3831.737 10557081 10550936 10563701 10596226 10643728 10697144 10744827 
3835.112 10773324 10769860 10725774 10638601 10516241 10375116 10239364 
3838.487 10132175 10068587 10051869 10074216 10120678 10174131 10221350 
3841.863 10254324 10271220 10275393 10273832 10274782 10285842 10312680 
3845.238 10358794 10425140 10510200 10610622 10722887 10843436 10969966 
3848.613 11101188 11234627 11364195 11477880 11554095 11563486 11473865 
3851.988 11259415 10918452 10487354 10044544 9680646 9462610 9408566 9491530 
3855.846 9663097 9873539 10087408 10282585 10449068 10585260 10693273 
3859.221 10774750 10831206 10863242 10872449 10862053 10836608 10800566 
3862.596 10755696 10702374 10641215 10576942 10521334 10490783 10501068 
3865.971 10559288 10658160 10775973 10879856 10937616 10923923 10833517 
3869.347 10685089 10520620 10389098 10322961 10329069 10387537 10466174 
3872.722 10532366 10565840 10564007 10540888 10520383 10524728 10566519 
3876.097 10643592 10741702 10839496 10916074 10954640 10946111 10891033 
3879.472 10801109 10697518 10605495 10548899 10542178 10585871 10665732 
3882.848 10756274 10829202 10856957 10823563 10731242 10603424 10479887 
3886.223 10400739 10393340 10460132 10580948 10721426 10845984 10925315 
3889.598 10941626 10894532 10799309 10684206 10578571 10507517 10483281 
3892.973 10505821 10565976 10651505 10750432 10852982 10950223 11035487 
3896.349 11101834 11143204 11155137 11136236 11089495 11022096 10945125 
3899.724 10870139 10805661 10755356 10716332 10681354 10641147 10589164 
3903.099 10524762 10454769 10390896 10347562 10336093 10360796 10418386 
3906.474 10499269 10591472 10682949 10764357 10830867 10880909 10915904 
3909.850 10938975 10953824 10964562 10975267 10990083 11012139 11042522 
3913.225 11079468 11117913 11150649 11169585 11169109 11147488 11108156 
3916.600 11058327 11007415 10963781 10931296 10911045 10901566 10900682 
3919.975 10908022 10923617 10947708 10978427 11011187 11039327 11055471 
3923.351 11055063 11038002 11010202 10980976 10960586 10956679 10971019 
3926.726 11000244 11036744 11072840 11102004 11120292 11127329 11123556 
3930.101 11110162 11087761 11057511 11021213 10982845 10948388 10924840 
3933.476 10917331 10928238 10955489 10993583 11034977 11072568 11101699 
3936.852 11120904 11131986 11138649 11144666 11152349 11161528 11169619 
3940.227 11172781 11167342 11150854 11124100 11091059 11058259 11032904 
3943.602 11021042 11025528 11045377 11074879 11107171 11134264 11150139 
3946.977 11152451 11142320 11124372 11104349 11088136 11079094 11078176 
3950.353 11083988 11094084 11106321 11119102 11131374 11142898 11152825 
3953.728 11160270 11164214 11164078 11160746 11155646 11151262 11150173 
3957.103 11153743 11161460 11171557 11181145 11186788 11186618 11179648 
3960.478 11166763 11149969 11132462 11117266 11107171 11104009 11108768 
3963.854 11120666 11137935 11157959 11177643 11194540 11207222 11214940 
3967.229 11218783 11219870 11219496 11218612 11217422 11216096 11214634 
3970.604 11213614 11213614 11215994 11221230 11229221 11238979 11249112 
3973.979 11258225 11265298 11270739 11275091 11279240 11283763 11288592 
3977.354 11292979 11296074 11297196 11296142 11293455 11289884 11286110 
3980.730 11282777 11279648 11277132 11274786 11273052 11272439 11273731 
3984.105 11277268 11283151 11291245 11300936 11311921 11324062 11336918 
3987.480 11350556 11364297 11377120 11388073 11396134 11400556 11401339 
3990.855 11398788 11393923 11387426 11380114 11372630 11365726 11360420 
3994.231 11357937 11359399 11365624 11376576 11391134 11407665 11424299 
3997.606 11439505 11452637 11463932 11473933 11483425 11492441 11500709 
##END=
