
##TITLE=Z361_2_b
##JCAMP-DX=5.01  $$ Nicolet v. 1
##DATATYPE=INFRARED SPECTRUM
##ORIGIN=UniL
##OWNER=Nicolet
##LONGDATE=2011/09/14
##TIME=11:33:24
##SPECTROMETER/DATA SYSTEM=Nicolet iS5
##DATA PROCESSING=
Ratio against background
%Transmittance->Absorbance
Truncated
ElementMultiply or ElementDivide
##COMMENTS=
Number of sample scans: 32
Collection length: 51.29 sec
Sample gain: 2.0
Background collected on: Mer Sep 14 11:27:19 2011 (GMT+02:00);
Number of background scans: 32
Background gain: 2.0
Sample spacing:  1.000
Number of scan points: 12415
Resolution points: 8192
Number of FFT points: 65536
Apodization: N-B fort;
Phase correction: Mertz;
Laser frequency: 15798.0 cm-1
Number of rejected sample scans: 0
Number of rejected background scans: 0
Bench serial number: ASB1000141;
##RESOLUTION=4.000
##XUNITS=1/CM
##YUNITS=ABSORBANCE
##FIRSTX=649.893372
##LASTX=4000.122314
##FIRSTY=0.098493
##MAXX=4000.122314
##MINX=649.893372
##MAXY=0.243567
##MINY=0.003659
##XFACTOR=1.000000
##YFACTOR=1.000000E-009
##NPOINTS=6950
##DELTAX=0.482117
##ZPD=6100
##XYDATA=(X++(Y..Y))
649.893 98492888 98732392 99036072 99394080 99788312 100202440 100629408 
653.268 101075576 101556736 102091576 102688680 103343768 104039096 
656.161 104753456 105469080 106179400 106888144 107601392 108320408 
659.054 109036904 109734040 110396096 111017144 111606216 112186616 
661.946 112786304 113431952 114139320 114911000 115741352 116622136 
664.839 117547536 118513000 119517136 120556128 121627960 122739792 
667.732 123928440 125276880 126887856 128883872 131397112 134552512 
670.624 138505440 143420112 149432272 156591296 164773792 173645072 
673.517 182571104 190691456 197065328 200753472 201122592 198017120 
676.410 191837616 183438848 173892560 164276592 155378112 147663760 
679.302 141282496 136122976 131918696 128339824 125096488 121957080 
682.195 118777304 115497424 112116648 108676872 105237944 101867096 98622944 
685.570 95547480 92672208 90017128 87595576 85418360 83491472 81814728 
688.945 80380280 79171496 78166328 77337144 76656656 76098368 75638120 
692.320 75256928 74938672 74670064 74440952 74240960 74060328 73889944 
695.694 73722048 73551288 73376040 73197600 73020184 72848400 72687024 
699.069 72539496 72407440 72292520 72196264 72119544 72063096 72024960 
702.444 71999496 71976464 71944088 71890240 71805992 71688192 71539312 
705.819 71366632 71178952 70984248 70788312 70593360 70400200 70208256 
709.194 70018080 69830864 69647968 69470320 69297840 69128960 68960960 
712.569 68790152 68611648 68419344 68205712 67963128 67685440 67370088 
715.943 67020044 66642896 66250296 65852948 65459056 65071596 64689256 
719.318 64307788 63925116 63541748 63161628 62790492 62431536 62083504 
722.693 61739872 61391440 61028260 60644736 60239700 59816896 59382884 
726.068 58944828 58510360 58086208 57680788 57303304 56961848 56662108 
729.443 56404760 56184888 55993856 55822836 55667212 55527684 55409692 
732.817 55319356 55261028 55233936 55234952 55260804 55312512 55396328 
736.192 55522936 55702356 55940784 56238628 56593860 57005144 57478128 
739.567 58025764 58667576 59425892 60319756 61368544 62594964 64031960 
742.942 65734552 67785312 70292360 73405384 77308800 82218504 88398824 
746.317 96120272 105618048 117016544 130224424 144822048 159928016 174294720 
749.692 186342528 194415216 197270352 194328672 185922496 173149504 
752.584 157637872 141113904 124969312 110240344 97479216 86829624 78189536 
755.959 71309272 65904664 61696868 58456188 55998112 54160728 52809512 
759.334 51829472 51121116 50615168 50266692 50052656 49966664 50010644 
762.709 50190808 50515480 50995300 51642916 52469248 53481692 54682476 
766.083 56069436 57641852 59407504 61386024 63611404 66123448 68953816 
769.458 72111720 75568448 79248272 83018520 86710104 90123824 93043712 
772.833 95278120 96664392 97086408 96494336 94904000 92401552 89124144 
776.208 85255712 80998440 76538672 72053864 67691632 63565836 59769900 
779.583 56366728 53388048 50837488 48689864 46900868 45413364 44172420 
782.958 43130412 42248236 41497500 40854776 40298288 39809032 39370208 
786.332 38969988 38603024 38269220 37970500 37707864 37478296 37275708 
789.707 37092884 36924128 36767524 36624492 36498120 36390124 36299372 
793.082 36221788 36152248 36086356 36022160 35959564 35899492 35842056 
796.457 35786284 35731060 35676020 35624044 35579992 35549784 35537268 
799.832 35542448 35560964 35586644 35613684 35639440 35665376 35695408 
803.206 35733576 35780960 35835256 35892440 35948764 36003624 36060324 
806.581 36124376 36201152 36292640 36396104 36505292 36613172 36714516 
809.956 36808308 36897144 36985496 37077688 37175388 37278128 37383852 
813.331 37490612 37597544 37704324 37810480 37914196 38012304 38101456 
816.706 38179236 38246172 38305408 38362408 38422172 38487516 38559096 
820.081 38635436 38714868 38797248 38884644 38980428 39088056 39208984 
823.455 39342708 39486860 39639256 39798608 39965540 40141620 40328608 
826.830 40526840 40735900 40954424 41181828 41419488 41669936 41936436 
830.205 42220808 42523788 42844124 43180144 43531808 43901208 44292312 
833.580 44709216 45153324 45621036 46102884 46585156 47051016 47484180 
836.955 47871756 48204916 48480052 48698276 48866516 48997204 49107824 
840.329 49223780 49373400 49586760 49893884 50318772 50880288 51592916 
843.704 52467304 53514480 54748320 56185004 57845844 59755868 61939876 
847.079 64423256 67226976 70362440 73825800 77589864 81598288 85749520 
850.454 89897008 93852096 97372400 100202488 102098408 102851312 102344048 
853.829 100565880 97628248 93743776 89212832 84390968 79614040 75194320 
857.204 71374800 68299424 66033712 64565828 63832260 63734404 64161076 
860.578 65005668 66159756 67523224 69002744 70499376 71917656 73166664 
863.953 74158416 74823704 75114512 75007376 74508048 73648872 72488240 
867.328 71097960 69560776 67959720 66361880 64820716 63369564 62023836 
870.703 60788852 59663600 58645992 57734220 56926224 56219248 55608416 
874.078 55087852 54651360 54292868 54007348 53789180 53630832 53523064 
877.452 53454932 53415624 53398052 53398984 53420872 53468836 53549228 
880.827 53666824 53823004 54016692 54244628 54504080 54792672 55109068 
884.202 55452344 55820612 56211588 56622360 57050256 57494084 57953624 
887.577 58429724 58921944 59428628 59946136 60470008 60995656 61519884 
890.952 62041380 62560292 63077444 63592604 64104848 64612352 65113820 
894.327 65609248 66100880 66592640 67089916 67598440 68124312 68674024 
897.701 69256376 69881376 70562560 71313992 72150448 73086240 74133936 
901.076 75305392 76612696 78067448 79680720 81459768 83404184 85500736 
904.451 87718512 90009384 92301456 94503128 96514448 98221112 99512016 
907.826 100292176 100483976 100047560 98987840 97362360 95275936 92871464 
911.201 90322440 87798400 85457208 83436864 81836168 80724712 80140568 
914.575 80089560 80547136 81453616 82718648 84209760 85760256 87193824 
917.950 88323984 88994760 89108800 88637376 87632800 86211968 84546648 
921.325 82819160 81194288 79806920 78735904 78011968 77627496 77552232 
924.700 77747800 78177672 78815624 79643424 80649936 81830736 83186264 
928.075 84723440 86455464 88403944 90597440 93068312 95855680 99002952 
931.450 102556144 106569352 111097624 116194224 121905704 128259984 
934.342 135258112 142860320 150984960 159497984 168205712 176884832 
937.235 185278992 193127136 200212480 206373952 211543520 215757136 
940.128 219162224 221998848 224540912 227076336 229822656 232867696 
943.020 236129616 239328768 242015232 243567232 243329952 240720256 
945.913 235312464 226984112 215933728 202675696 187919056 172483488 
948.806 157185264 142671056 129434856 117777752 107806392 99505392 92763968 
952.181 87422112 83286800 80154312 77829600 76114632 74834456 73848584 
955.555 73047032 72364536 71773072 71270112 70866744 70576440 70408344 
958.930 70364784 70442832 70635848 70934936 71327816 71798600 72330720 
962.305 72908240 73519888 74161880 74835912 75546520 76295856 77080224 
965.680 77891080 78718784 79556936 80406920 81276984 82179344 83124112 
969.055 84116368 85157384 86248704 87397552 88619936 89935648 91361240 
972.429 92899160 94532992 96226128 97932320 99611576 101239152 102814440 
975.804 104357512 105903624 107491888 109157456 110932944 112848472 
978.697 114933016 117219480 119743944 122549864 125703352 129299880 
981.590 133474112 138396432 144219648 151018032 158684304 166874688 
984.482 174935872 181938928 186906176 188943408 187551168 182792160 
987.375 175301488 166122720 156373136 147107344 139058880 132586616 
990.268 127753584 124387384 122208656 120906240 120224744 119977640 
993.160 120030144 120294144 120700480 121191936 121729816 122292776 
996.053 122876560 123485088 124117568 124760776 125390696 125978216 
998.946 126503360 126962632 127367928 127738776 128090056 128426656 
1001.839 128743632 129033368 129296048 129543424 129797008 130080176 
1004.731 130406696 130776704 131178256 131597056 132025304 132467032 
1007.624 132935672 133446496 134006504 134609920 135239872 135875984 
1010.517 136504736 137122144 137732752 138342480 138951488 139551504 
1013.409 140130544 140681344 141209840 141737568 142297888 142924144 
1016.302 143641168 144462384 145392608 146438336 147616512 148956784 
1019.195 150498976 152284928 154347920 156713008 159399408 162423728 
1022.087 165799824 169521680 173541120 177727584 181850480 185598816 
1024.980 188585568 190448720 190932640 189940800 187577248 184115488 
1027.873 179957472 175517904 171173040 167217712 163817776 161033856 
1030.766 158835344 157134528 155810448 154735936 153804848 152932080 
1033.659 152063392 151174512 150261232 149332448 148402608 147489504 
1036.552 146613648 145799200 145079120 144491536 144076832 143876784 
1039.446 143926992 144257344 144892432 145847184 147122656 148692976 
1042.339 150496864 152421168 154298640 155939584 157142192 157743440 
1045.232 157663968 156921104 155635024 153989360 152212720 150519488 
1048.125 149073120 147984304 147294656 146992256 147025152 147321968 
1051.018 147804272 148391328 149013536 149610032 150128864 150531344 
1053.911 150786720 150871328 150769600 150472688 149980624 149303152 
1056.804 148459488 147474464 146370848 145166912 143870368 142480656 
1059.697 140991856 139399776 137706480 135922704 134066240 132158232 
1062.590 130220936 128273936 126334504 124419592 122544496 120724016 
1065.483 118970744 117292744 115693344 114171728 112725224 111351848 
1068.376 110051792 108826864 107679512 106610176 105616192 104691504 
1071.269 103828632 103020560 102261656 101548360 100876776 100241504 
1074.162 99634664 99046696 98467328 97889064 97308544 96726608 96147440 
1077.538 95576880 95021752 94488792 93986600 93526568 93121024 92784072 
1080.913 92528552 92362848 92291872 92316376 92435696 92649072 92957768 
1084.288 93363080 93865464 94461368 95141936 95891880 96692208 97521520 
1087.663 98357024 99178400 99966216 100703392 101378096 101985288 102530968 
1091.039 103032984 103522456 104041112 104633320 105347568 106230856 
1093.932 107326784 108682912 110349608 112381600 114843400 117802648 
1096.825 121325544 125472040 130276200 135729264 141747584 148159824 
1099.718 154675952 160871904 166259040 170298160 172501424 172560544 
1102.611 170392336 166188976 160352048 153445600 146067952 138728624 
1105.504 131846784 125685424 120363080 115896832 112225192 109248768 
1108.397 106847208 104905216 103317464 101986208 100832016 99787352 98796160 
1111.772 97817136 96818368 95776856 94679696 93522384 92310680 91058624 
1115.147 89788984 88528160 87301080 86130224 85031392 84013352 83080216 
1118.523 82232520 81468840 80785800 80177912 79636928 79150576 78705352 
1121.898 78286344 77879504 77473528 77059104 76628944 76177728 75701544 
1125.273 75199488 74673840 74131968 73585512 73049112 72539496 72074088 
1128.648 71668368 71338520 71099520 70965480 70950576 71067168 71324968 
1132.024 71731808 72293344 73015008 73904120 74971192 76230680 77700600 
1135.399 79399136 81343272 83546736 86018448 88761824 91774320 95046576 
1138.774 98557416 102270328 106134304 110073600 113991880 117778664 
1141.667 121298600 124406000 126952200 128782768 129768608 129821408 
1144.560 128915024 127101224 124512184 121355864 117870016 114310528 
1147.453 110922256 107897704 105388184 103492936 102259968 101703568 
1150.346 101810960 102554888 103897528 105797800 108215440 111105328 
1153.240 114418656 118097144 122054536 126171800 130287168 134175032 
1156.133 137573488 140193456 141735312 141955280 140684880 137867968 
1159.026 133579464 128023672 121515376 114408952 107083304 99880464 93052416 
1162.401 86779608 81152472 76186504 71847120 68067328 64768904 61868612 
1165.776 59292292 56977788 54871204 52931400 51127488 49436588 47845344 
1169.151 46346864 44940180 43627932 42415340 41310008 40320572 39459388 
1172.527 38742036 38184916 37803936 37607156 37589200 37723660 37961316 
1175.902 38236548 38467856 38576404 38500044 38199640 37670428 36940184 
1179.277 36067808 35127812 34201312 33368126 32690726 32214888 31967446 
1182.652 31954284 32162826 32560460 33100036 33715656 34328632 34859892 
1186.028 35229744 35374436 35257128 34869980 34237664 33410062 32458044 
1189.403 31456914 30476820 29578270 28801690 28168882 27684584 27341282 
1192.778 27123228 27010980 26986192 27031606 27131762 27274242 27448180 
1196.153 27644574 27856672 28079020 28307280 28537678 28766816 28991188 
1199.529 29207950 29414290 29608454 29789008 29955046 30105166 30237790 
1202.904 30350414 30440036 30503230 30535718 30533088 30490364 30402614 
1206.279 30265606 30076686 29835960 29547022 29217448 28858626 28483508 
1209.654 28106768 27742222 27401168 27093390 26825620 26602646 26427496 
1213.030 26301524 26224366 26194274 26208140 26262344 26353450 26478664 
1216.405 26635972 26824140 27041692 27287260 27558846 27855084 28175140 
1219.780 28519208 28888514 29284790 29709668 30164014 30647886 31161202 
1223.155 31703178 32273486 32871492 33496738 34148084 34824560 35525260 
1226.531 36250348 37001408 37781308 38594188 39444728 40337444 41276956 
1229.906 42267736 43314224 44420896 45591336 46827048 48125916 49481664 
1233.281 50882336 52311460 53749280 55172156 56555512 57875976 59111348 
1236.656 60245828 61271388 62190016 63014268 63766332 64477952 65184080 
1240.031 65923364 66736348 67659496 68727656 69971560 71414160 73072680 
1243.407 74956616 77068872 79407408 81967408 84744824 87736472 90941240 
1246.782 94359280 97990328 101833120 105885272 110143112 114601744 119253296 
1250.157 124081936 129061968 134151608 139286976 144387488 149345584 
1253.050 154021856 158255584 161845120 164557312 166161040 166428640 
1255.943 165185152 162343824 157915376 152016960 144848368 136686896 
1258.836 127845424 118641520 109400824 100404352 91878544 83996304 76855256 
1262.212 70494504 64907312 60053760 55874756 52300584 49262268 46690260 
1265.587 44518352 42690156 41153708 39864924 38789636 37897460 37163620 
1268.962 36568112 36092940 35723288 35447200 35254612 35137404 35088368 
1272.337 35100508 35167368 35282788 35441160 35638612 35872684 36142956 
1275.713 36450372 36797056 37185640 37618176 38095380 38615732 39174240 
1279.088 39762080 40366604 40974008 41569760 42142412 42686428 43203056 
1282.463 43700952 44193144 44695336 45219800 45772068 46348860 46938632 
1285.838 47524104 48086824 48614000 49101552 49556900 49996780 50445584 
1289.214 50930508 51475620 52102284 52826688 53659624 54608976 55679488 
1292.589 56872588 58185568 59610348 61133480 62734328 64387940 66066428 
1295.964 67738920 69376432 70952880 72446312 73843120 75138304 76337048 
1299.339 77452376 78503600 79513568 80503264 81493504 82503400 83549384 
1302.715 84648584 85816096 87062736 88393056 89801656 91272192 92775040 
1306.090 94269320 95704616 97017424 98138416 98993328 99504856 99607744 
1309.465 99253600 98420280 97117600 95386080 93294608 90924168 88367960 
1312.840 85719736 83061728 80470440 78011576 75738936 73704544 71957496 
1316.216 70542016 69499064 68853752 68606304 68720672 69121264 69695936 
1319.591 70295792 70767248 70963848 70763504 70095208 68939488 67330888 
1322.966 65345040 63090280 60691256 58262256 55908488 53710240 51716964 
1326.341 49955400 48431300 47137508 46059224 45178912 44478560 43938600 
1329.717 43539500 43262388 43087892 42998844 42980332 43018120 43099896 
1333.092 43214364 43350688 43500716 43659108 43823572 43995428 44178912 
1336.467 44379612 44603532 44858024 45151780 45495624 45904040 46393652 
1339.842 46980092 47676984 48490760 49418728 50446960 51549744 52688220 
1343.218 53805944 54836244 55703144 56327268 56644140 56608432 56203932 
1346.593 55445868 54381076 53083012 51636944 50138668 48679004 47330228 
1349.968 46148908 45169760 44407760 43863560 43526280 43377852 43394260 
1353.343 43550236 43821556 44184888 44620420 45109728 45632632 46168068 
1356.719 46690700 47171300 47581628 47893992 48084384 48136020 48038784 
1360.094 47790116 47395668 46870784 46242624 45548464 44837816 44163508 
1363.469 43570744 43092976 42743464 42518560 42402448 42375596 42419212 
1366.844 42517716 42660696 42840140 43049328 43282008 43531408 43790844 
1370.219 44054284 44315392 44567624 44805268 45023344 45221088 45403840 
1373.595 45585852 45788420 46034472 46345208 46733684 47204616 47758196 
1376.970 48394816 49120700 49951272 50909752 52025520 53329676 54847068 
1380.345 56591560 58557600 60715108 62998636 65303712 67503712 69447656 
1383.720 70985808 71993552 72369704 72056912 71052608 69428720 67337000 
1387.096 64988160 62631324 60482728 58689192 57325804 56400192 55883876 
1390.471 55732600 55903396 56358276 57064768 57999896 59146128 60489584 
1393.846 62018524 63714644 65548824 67482000 69466240 71451888 73394048 
1397.221 75247120 76968104 78518248 79863272 80983072 81875176 82554488 
1400.597 83046032 83377480 83575528 83661616 83652176 83555688 83367040 
1403.972 83062840 82599648 81926352 80995008 79780528 78293168 76579696 
1407.347 74717480 72797112 70924400 69207672 67749760 66655800 66014892 
1410.722 65889472 66311428 67276104 68750176 70680376 73009760 75681032 
1414.098 78632840 81805168 85127960 88518696 91897992 95182528 98295024 
1417.473 101175104 103777416 106078080 108068216 109758440 111164952 
1420.366 112298816 113166360 113764784 114086280 114117384 113845736 
1423.259 113264664 112379112 111208904 109785656 108142112 106297344 
1426.152 104248608 101970408 99427032 96588976 93455848 90068168 86515952 
1429.527 82925944 79430448 76155304 73197408 70614600 68431408 66637024 
1432.903 65193548 64043708 63125072 62385020 61792548 61352856 61109532 
1436.278 61134972 61494844 62214676 63262156 64555256 65980060 67400416 
1439.653 68678520 69663800 70211336 70215936 69622920 68452232 66787744 
1443.028 64766748 62547468 60276164 58087916 56083496 54327640 52860964 
1446.404 51701216 50852460 50308616 50052324 50051392 50254004 50599160 
1449.779 51021944 51463492 51883800 52262240 52601328 52922640 53261760 
1453.154 53659624 54153708 54779740 55572268 56568796 57807648 59314700 
1456.529 61079744 63040852 65090344 67107164 68987368 70653936 72048856 
1459.905 73119336 73823992 74126624 73992240 73388984 72279720 70630936 
1463.280 68432608 65733360 62669560 59446256 56303580 53438856 50954464 
1466.655 48863548 47116788 45645808 44390140 43311040 42389076 41615196 
1470.030 40982788 40484068 40112332 39868156 39763312 39818512 40053900 
1473.406 40481448 41103108 41915160 42917856 44119196 45531576 47168568 
1476.781 49037600 51136772 53457480 55987596 58717032 61632712 64717404 
1480.156 67946656 71279984 74667384 78054528 81383792 84601160 87652784 
1483.531 90476104 93005664 95170648 96901400 98146640 98878152 99098768 
1486.906 98835304 98135624 97058104 95660336 94009552 92183496 90270968 
1490.282 88371248 86570672 84920176 83422568 82030640 80661184 79204408 
1493.657 77546488 75582400 73231096 70458304 67289760 63817180 60170924 
1497.032 56488864 52882368 49422108 46147396 43081196 40240960 37643292 
1500.407 35299784 33209934 31363808 29741176 28314424 27052164 25917210 
1503.783 24865028 23840798 22784830 21647268 20411090 19121316 17881866 
1507.158 16810580 15976995 15377484 14954525 14639298 14374233 14124629 
1510.533 13878522 13639118 13417376 13222424 13058632 12924120 12813810 
1513.908 12721986 12645771 12583826 12536657 12505282 12491539 12499178 
1517.284 12532666 12596276 12690769 12811830 12949005 13087930 13216925 
1520.659 13332941 13448509 13587218 13775424 14027394 14339848 14696773 
1524.034 15077216 15465339 15852161 16239153 16635582 17052496 17496374 
1527.409 17965326 18449582 18935970 19412128 19867546 20295112 20687754 
1530.785 21033626 21316882 21517000 21616030 21609972 21518846 21389310 
1534.160 21275262 21221016 21242484 21329342 21454020 21583086 21686592 
1537.535 21738180 21720274 21625886 21463106 21254906 21035956 20845202 
1540.910 20712392 20650502 20654604 20705790 20778810 20848332 20899228 
1544.286 20929616 20952564 20988380 21056476 21165420 21309608 21473132 
1547.661 21637656 21791270 21932600 22073522 22233322 22431560 22678688 
1551.036 22974234 23309696 23676242 24070834 24498038 24968508 25493528 
1554.411 26079240 26723032 27415144 28142012 28894852 29671032 30481690 
1557.787 31355008 32341908 33501390 34861472 36413688 38113068 39905676 
1561.162 41758964 43659916 45612608 47626584 49714620 51884356 54125032 
1564.537 56408452 58687940 60902476 62993696 64906620 66587896 67988192 
1567.912 69054600 69739040 70014232 69889512 69417288 68673440 67738144 
1571.288 66669860 65498120 64232364 62868760 61395600 59804352 58095488 
1574.663 56294300 54480376 52793532 51415860 50523632 50217512 50508740 
1578.038 51344664 52653316 54376080 56482788 58975116 61877172 65228820 
1581.413 69075736 73464160 78434408 84013272 90205504 96981216 104270304 
1584.789 111943184 119817288 127665464 135195232 142084096 148003856 
1587.682 152649536 155838336 157565376 158049008 157675632 156938352 
1590.575 156336096 156236896 156855808 158212192 160148016 162339888 
1593.468 164341600 165671712 165817776 164342368 160974752 155641952 
1596.361 148512896 139941360 130412456 120421096 110399472 100720104 
1599.254 91646152 83351544 75931960 69391560 63657820 58594040 54042060 
1602.629 49847428 45894024 42127992 38549248 35196112 32116194 29351608 
1606.004 26925764 24843344 23097780 21673912 20551552 19700466 19082122 
1609.380 18652116 18361328 18165356 18028872 17924302 17832668 17738362 
1612.755 17624270 17470882 17254932 16952294 16543807 16021891 15400107 
1616.130 14715693 14026162 13391712 12853773 12427707 12104632 11863275 
1619.505 11676542 11517857 11363141 11190427 10983864 10737525 10458299 
1622.881 10164668 9881438 9629490 9417912 9243160 9092466 8951904 8810644 
1626.738 8664426 8514644 8367141 8228671 8104524 7998570 7913192 7850264 
1630.595 7810826 7793824 7795409 7806812 7815920 7808599 7771256 7694960 
1634.453 7579868 7438177 7291949 7166689 7081136 7040454 7038232 7061570 
1638.310 7097808 7136036 7168575 7191953 7206406 7216411 7228540 7249462 
1642.168 7282851 7327600 7376532 7418459 7440637 7431368 7385362 7305933 
1646.025 7207517 7111752 7040960 7011663 7029779 7091341 7186025 7301047 
1649.883 7419942 7521406 7579531 7560413 7432716 7185789 6856524 6528753 
1653.740 6286944 6171418 6165940 6228622 6316024 6398635 6461823 6502114 
1657.597 6524414 6537297 6548161 6560405 6572919 6581093 6579681 6564980 
1661.455 6536018 6495455 6448539 6401998 6362657 6336129 6325841 6332128 
1665.312 6351797 6377989 6400855 6408084 6387505 6331187 6237631 6115430 
1669.170 5980968 5855480 5756823 5695215 5671850 5680242 5709718 5746951 
1673.027 5778614 5791676 5776935 5732615 5668426 5604346 5561352 5554372 
1676.885 5584376 5640564 5705790 5763672 5804470 5827741 5842618 5861928 
1680.742 5896320 5946502 6000486 6034821 6022323 5942673 5797317 5617235 
1684.599 5452024 5344300 5305893 5322564 5366910 5414414 5447025 5456956 
1688.457 5444475 5414581 5374625 5331587 5292209 5262728 5247905 5250688 
1692.314 5269100 5294691 5311864 5301097 5244886 5137415 4993803 4850473 
1696.172 4751240 4722532 4763400 4847458 4937934 4994574 4987736 4910655 
1700.029 4788726 4672994 4610970 4624299 4701430 4814389 4933007 5035300 
1703.886 5109252 5153442 5175672 5190158 5212391 5253002 5315621 5397605 
1707.744 5493162 5595720 5699445 5801414 5900317 5996690 6091706 6187146 
1711.601 6283314 6380040 6475645 6567436 6652820 6728293 6789476 6831110 
1715.459 6844776 6821652 6754576 6643938 6501105 6348872 6213967 6116404 
1719.316 6063112 6047387 6053637 6063481 6060222 6034049 5982009 5908445 
1723.174 5821965 5732481 5647110 5568837 5497054 5429612 5364930 5302137 
1727.031 5241398 5182647 5125747 5070699 5019143 4974732 4941419 4921747 
1730.888 4912129 4902344 4873995 4804506 4676511 4488088 4263675 4048240 
1734.746 3890277 3815462 3819173 3874999 3950025 4015967 4051650 4047604 
1738.603 4005901 3938924 3863799 3796243 3745640 3712588 3692504 3679605 
1742.461 3670115 3662831 3659055 3660625 3669046 3684785 3707675 3737051 
1746.318 3772043 3810983 3851531 3890177 3922908 3945477 3955073 3951596 
1750.176 3937720 3919832 3906459 3907027 3928091 3972260 4037270 4116538 
1754.033 4200538 4278330 4340708 4382075 4403497 4412936 4422944 4445640 
1757.890 4486715 4543565 4605780 4659765 4691583 4693090 4664085 4613549 
1761.748 4556925 4509883 4484640 4484840 4506736 4542159 4580933 4614018 
1765.605 4633776 4635551 4619108 4588936 4554112 4526154 4514537 4522840 
1769.463 4546445 4572997 4587362 4575006 4529502 4456854 4375448 4308447 
1773.320 4273044 4275486 4309284 4361893 4420400 4476605 4528096 4576948 
1777.177 4626107 4676846 4726485 4770133 4802462 4821592 4830169 4835329 
1781.035 4844376 4861631 4885422 4909482 4926170 4929287 4917860 4896078 
1784.892 4872421 4854930 4848765 4854796 4870310 4891789 4915748 4940614 
1788.750 4963974 4982173 4989714 4979290 4945139 4886896 4811977 4736132 
1792.607 4676578 4647507 4653134 4688300 4741894 4801959 4859989 4911526 
1796.465 4956466 4996920 5035165 5072341 5108481 5142947 5176712 5211821 
1800.322 5252063 5300930 5360402 5430585 5509906 5596593 5689474 5789091 
1804.179 5896522 6012345 6136399 6266774 6400720 6534976 6666918 6793885 
1808.037 6913819 7024358 7122833 7207484 7277056 7332419 7376768 7413942 
1811.894 7447783 7480683 7511899 7539274 7558862 7567966 7565504 7552591 
1815.752 7532733 7509067 7484424 7459513 7433087 7403191 7367905 7326960 
1819.609 7282077 7236120 7191852 7150958 7113166 7075512 7033618 6982469 
1823.467 6918566 6841343 6754138 6664125 6580219 6509379 6454491 6412153 
1827.324 6374156 6328834 6265195 6177332 6066908 5944252 5824685 5723751 
1831.181 5650097 5603608 5576288 5556990 5535914 5507255 5470479 5429209 
1835.039 5388682 5352787 5322564 5296569 5273024 5251392 5233819 5224765 
1838.896 5228386 5246463 5276714 5312166 5343059 5359160 5351110 5313005 
1842.754 5243679 5148513 5038685 4929153 4835698 4769664 4735261 4729500 
1846.611 4744808 4771038 4798274 4820721 4836435 4848262 4861396 4880731 
1850.469 4908510 4943329 4980128 5013311 5039154 5056686 5068519 5078543 
1854.326 5090545 5105732 5123702 5142679 5161422 5180568 5202263 5228722 
1858.183 5261152 5297878 5335814 5371539 5402772 5429712 5454709 5480780 
1862.041 5509135 5539102 5567561 5591424 5608508 5619216 5625224 5628647 
1865.898 5629185 5623512 5606058 5571924 5519907 5455212 5388883 5334136 
1869.756 5302036 5296771 5315453 5350439 5394284 5440482 5486551 5532256 
1873.613 5578704 5625492 5671212 5712806 5748160 5776734 5800407 5821428 
1877.470 5842618 5864515 5885842 5905019 5921243 5936156 5953389 5977575 
1881.328 6011035 6053099 6098998 6142179 6176661 6199011 6210539 6215816 
1885.185 6220858 6230370 6246505 6268354 6293264 6318546 6343089 6367062 
1889.043 6392851 6422510 6457854 6499760 6548531 6603431 6663654 6728361 
1892.900 6795601 6863155 6929373 6993715 7057528 7123675 7196131 7277325 
1896.758 7367668 7464334 7562942 7659279 7750107 7835150 7916127 7995701 
1900.615 8076100 8158203 8242110 8327689 8416393 8511602 8617445 8738290 
1904.472 8876855 9033462 9206709 9394955 9597511 9815107 10050343 10304639 
1908.330 10576670 10861170 11148201 11423687 11671573 11876249 12022189 
1911.705 12097068 12092264 12003966 11834502 11592105 11291211 10948897 
1915.080 10582713 10209138 9840357 9485638 9152663 8849057 8583547 8364371 
1918.938 8196356 8078193 8001304 7952774 7917443 7883228 7844934 7804180 
1922.795 7768625 7746902 7745654 7764746 7799559 7842201 7886366 7928174 
1926.653 7967723 8007548 8049198 8092945 8136528 8176908 8211618 8240422 
1930.510 8264669 8286992 8308201 8327892 8343361 8352110 8352717 8346199 
1934.367 8334545 8319989 8303236 8283007 8257137 8225362 8189772 8156042 
1938.225 8131059 8119547 8121640 8132342 8142571 8143381 8129675 8102364 
1942.082 8067155 8032827 8005253 7986117 7972347 7958848 7942245 7923010 
1945.940 7905903 7896623 7899289 7913360 7934045 7955406 7972044 7982235 
1949.797 7989019 7997490 8011530 8032017 8056016 8078835 8095815 8105402 
1953.655 8108575 8107799 8104828 8098988 8086801 8064522 8030161 7985779 
1957.512 7938162 7894937 7864266 7849488 7849995 7861668 7880090 7901685 
1961.369 7925372 7950851 7976870 8000055 8015210 8017369 8003632 7975384 
1965.227 7938061 7899492 7867404 7847531 7841863 7850636 7872465 7904856 
1969.084 7944843 7988344 8028507 8059392 8075155 8074345 8060540 8041907 
1972.942 8028946 8029554 8048489 8085586 8137979 8203447 8283682 8382409 
1976.799 8504743 8650737 8813923 8980487 9134424 9261336 9354089 9413307 
1980.656 9446796 9465725 9480896 9499828 9527125 9564078 9610451 9666857 
1984.514 9732149 9803991 9878624 9949846 10012027 10061839 10099888 10130106 
1988.371 10159173 10191600 10229627 10270949 10310882 10344236 10368600 
1991.747 10385568 10399517 10415773 10437800 10464986 10494347 10520383 
1995.122 10537153 10542279 10533961 10512372 10478868 10434439 10380105 
1998.497 10317702 10250762 10182984 10119422 10063060 10014332 9971375 
2001.872 9930454 9888149 9843916 9798636 9755089 9715986 9682984 9654390 
2005.730 9628677 9604455 9582031 9564925 9557202 9561300 9577762 9603947 
2009.587 9634300 9663842 9689320 9708464 9719917 9722695 9714969 9694470 
2013.445 9660759 9615871 9564857 9515034 9474090 9447033 9436028 9439109 
2017.302 9453738 9478493 9513510 9560319 9619529 9688134 9759190 9823682 
2021.159 9872048 9899843 9907844 9902827 9893470 9888386 9891607 9902657 
2025.017 9918488 9935065 9950355 9964492 9979274 9995447 10012331 10028065 
2028.874 10040442 10049257 10057770 10071096 10094055 10129190 10174538 
2032.250 10223690 10268539 10302569 10321638 10326456 10318856 10302196 
2035.625 10278073 10247064 10208764 10164091 10115387 10066145 10019486 
2039.000 9976629 9936150 9895403 9852151 9806092 9762205 9727337 9708531 
2042.857 9710768 9734554 9775151 9826494 9881200 9934557 9984970 10033796 
2046.715 10083440 10136177 10192312 10250525 10306946 10356079 10391847 
2050.090 10407628 10398906 10363443 10304198 10228711 10146691 10071266 
2053.465 10012773 9976087 9959644 9956322 9954559 9944015 9919335 9880353 
2057.323 9832799 9783860 9740789 9707888 9685932 9673634 9668415 9667941 
2061.180 9670448 9673701 9675463 9672143 9661233 9641754 9615296 9586366 
2065.038 9559471 9538980 9525398 9517372 9510801 9502335 9490989 9478154 
2068.895 9466944 9460476 9459393 9461899 9464032 9462339 9455262 9443782 
2072.752 9431388 9421400 9415711 9413578 9412460 9408770 9401287 9390215 
2076.610 9377823 9367091 9359507 9355139 9351923 9348639 9344339 9340819 
2080.467 9340683 9347014 9361132 9382258 9407653 9434232 9459630 9482692 
2084.325 9504264 9525127 9545313 9564180 9579727 9589957 9594021 9592430 
2088.182 9585926 9575900 9562893 9546262 9526380 9504637 9484656 9471957 
2092.040 9473412 9493359 9533730 9592836 9665672 9746957 9831849 9917776 
2095.897 10004194 10091274 10177828 10262772 10344372 10421373 10495569 
2099.272 10570932 10653032 10747375 10857840 10984612 11125289 11276384 
2102.647 11433893 11595099 11758647 11923176 12086950 12247036 12399613 
2106.023 12540204 12665625 12773850 12864012 12936374 12991098 13027731 
2109.398 13045589 13044326 13024590 12988946 12941051 12885207 12824969 
2112.773 12762112 12696330 12625883 12547775 12459758 12360543 12249763 
2116.148 12128278 11998107 11861879 11722699 11584040 11449439 11320831 
2119.524 11198620 11081167 10965751 10849245 10730495 10610350 10491869 
2122.899 10379155 10275630 10182204 10097344 10018266 9941845 9866896 
2126.274 9794163 9726151 9664926 9610925 9562080 9515238 9467114 9416828 
2130.132 9366617 9321590 9287806 9270644 9272675 9292748 9328394 9375047 
2133.989 9428442 9485130 9541791 9595580 9643854 9685017 9719001 9747093 
2137.846 9772880 9799314 9828223 9859134 9888657 9913030 9928692 9934794 
2141.704 9932895 9926760 9919505 9913607 9910454 9909200 9910861 9916997 
2145.561 9930251 9952796 9984699 10022335 10058413 10085644 10098260 
2148.937 10094292 10076726 10051259 10024098 9999380 9977918 9956796 9932827 
2152.794 9903098 9865913 9822326 9773524 9722017 9671872 9629726 9608012 
2156.651 9622003 9689117 9820800 10017960 10264400 10531654 10786333 
2160.027 10999088 11153641 11249418 11297842 11315730 11319573 11321035 
2163.402 11324335 11329504 11334163 11336544 11335456 11331375 11322668 
2166.777 11307874 11285021 11252648 11212084 11167171 11122604 11083411 
2170.152 11051801 11027059 11005851 10985121 10962625 10938874 10915904 
2173.528 10896095 10880161 10866538 10851895 10832803 10808413 10779982 
2176.903 10751349 10727472 10712087 10705533 10706755 10712359 10718846 
2180.278 10723838 10725808 10723736 10716740 10703903 10683798 10656666 
2183.653 10624170 10588858 10554670 10524355 10498692 10478257 10461592 
2187.029 10447879 10437561 10431996 10432335 10438614 10449441 10460437 
2190.404 10468245 10469534 10463153 10451409 10438037 10426260 10418454 
2193.779 10415874 10417402 10421949 10429077 10439191 10453276 10472012 
2197.154 10495603 10522624 10551412 10580438 10607940 10633915 10657549 
2200.530 10678330 10695446 10707876 10715857 10721358 10727472 10739019 
2203.905 10759568 10791666 10834705 10886787 10945057 11007550 11074642 
2207.280 11147725 11229390 11321342 11423687 11533985 11648871 11764639 
2210.655 11877747 11986458 12090084 12188522 12281494 12369646 12452700 
2214.031 12531541 12606986 12679885 12750613 12817973 12880020 12933336 
2217.406 12975291 13003866 13018718 13021005 13012675 12996048 12972833 
2220.781 12943816 12909510 12870463 12826948 12779105 12727275 12670162 
2224.156 12605894 12532735 12448983 12354373 12250376 12140715 12029342 
2227.531 11920622 11818806 11726409 11646046 11579310 11526465 11487644 
2230.907 11460427 11440832 11424367 11405727 11381474 11350352 11313486 
2234.282 11273765 11235001 11200490 11171489 11149324 11134536 11127703 
2237.657 11130456 11143953 11168123 11201034 11238810 11276588 11309370 
2241.032 11334095 11349434 11356202 11356032 11351032 11341612 11328552 
2244.408 11311921 11292775 11274207 11259042 11251322 11253125 11264483 
2247.783 11283389 11305970 11327702 11344707 11355454 11359298 11357869 
2251.158 11354332 11352291 11355284 11366814 11388549 11420592 11460972 
2254.533 11506084 11551134 11592309 11627089 11654691 11676339 11693969 
2257.909 11709083 11722256 11733286 11741524 11746936 11750784 11755175 
2261.284 11763039 11776010 11794428 11816184 11838384 11857180 11870426 
2264.659 11877373 11879143 11878122 11876726 11876964 11880302 11887418 
2268.034 11898248 11912516 11929647 11948004 11965272 11978623 11985674 
2271.410 11984346 11974297 11956689 11933086 11905706 11876351 11846250 
2274.785 11816525 11788811 11764877 11747004 11736860 11734545 11739004 
2278.160 11746630 11753166 11755208 11750239 11737643 11719431 11698429 
2281.535 11676406 11655951 11637776 11621372 11606840 11593943 11582474 
2284.911 11572503 11563894 11556272 11549569 11544193 11540654 11540313 
2288.286 11544601 11553925 11567774 11584618 11602076 11617866 11630901 
2291.661 11641078 11649381 11657346 11666127 11676304 11687673 11699654 
2295.036 11711602 11723720 11736179 11749524 11764197 11779550 11794871 
2298.412 11808933 11820679 11829736 11836546 11841891 11846965 11852821 
2301.787 11860449 11870358 11883094 11899440 11919634 11944087 11973173 
2305.162 12006247 12042901 12082214 12123643 12166373 12209445 12252115 
2308.537 12292879 12330544 12363407 12390851 12412569 12429309 12442062 
2311.913 12452495 12461838 12471352 12481786 12493926 12508863 12527926 
2315.288 12552584 12584201 12623700 12671083 12725466 12785179 12848176 
2318.663 12912275 12974984 13034321 13088373 13135773 13175460 13206507 
2322.038 13228129 13239538 13240153 13229393 13207634 13175767 13136149 
2325.414 13092301 13048320 13008715 12977100 12955662 12944601 12942382 
2328.789 12946069 12952930 12960543 12967815 12974847 12982494 12992053 
2332.164 13004481 13020562 13040740 13065393 13094589 13128158 13165588 
2335.539 13205585 13246370 13286169 13323750 13358841 13391883 13423698 
2338.915 13454661 13484566 13512013 13534779 13551084 13559391 13559083 
2342.290 13549956 13531189 13501144 13457293 13397624 13322110 13234858 
2345.665 13144721 13064710 13009022 12989323 13013460 13082705 13193322 
2349.040 13336802 13502614 13679088 13855054 14022124 14174607 14310500 
2352.416 14430131 14535952 14630388 14714940 14790421 14857276 14916048 
2355.791 14968038 15015026 15058280 15098588 15135262 15167102 15192426 
2359.166 15210818 15222589 15229726 15234564 15239025 15244482 15251415 
2362.541 15259583 15268162 15277188 15285700 15292805 15296168 15292873 
2365.917 15279076 15252238 15210921 15155917 15090046 15017563 14942797 
2369.292 14869174 14798923 14732626 14670520 14612329 14557161 14504879 
2372.667 14454725 14405572 14356732 14306870 14255610 14203569 14151569 
2376.042 14100875 14052137 14005459 13959880 13914033 13867095 13818760 
2379.417 13770260 13723509 13681106 13645511 13618227 13600483 13592517 
2382.793 13594534 13606261 13627321 13657375 13694853 13737530 13783086 
2386.168 13828919 13873732 13917112 13959914 14003885 14050700 14101285 
2389.543 14155813 14213669 14273860 14335534 14398071 14461816 14526634 
2392.918 14592454 14658970 14725153 14790421 14854224 14916562 14977778 
2396.294 15038178 15097868 15156226 15212190 15265005 15314119 15359497 
2399.669 15401823 15441957 15480516 15517325 15551700 15582712 15609571 
2403.044 15632000 15651304 15668822 15686790 15706988 15730385 15756909 
2406.419 15785839 15815631 15845012 15873227 15900584 15928116 15957505 
2409.795 15990745 16029352 16074391 16125763 16182782 16244451 16309742 
2413.170 16377794 16448678 16522501 16599882 16681271 16766910 16856596 
2416.545 16949816 17046224 17145034 17246556 17350720 17457394 17566820 
2419.920 17679172 17794384 17912838 18035260 18161622 18292102 18426142 
2423.296 18562784 18700716 18838932 18976986 19115498 19255820 19400140 
2426.671 19550398 19708440 19875108 20050930 20236196 20430954 20636084 
2430.046 20852990 21083464 21329968 21594474 21878898 22184884 22512932 
2433.421 22862984 23233802 23623480 24029650 24449802 24882078 25324446 
2436.797 25775034 26231088 26688116 27139310 27576570 27989600 28368610 
2440.172 28704866 28991296 29223156 29397662 29513260 29570006 29568836 
2443.547 29512550 29404930 29252216 29061682 28841312 28599322 28343320 
2446.922 28078276 27808982 27538404 27268738 27002340 26741852 26489758 
2450.298 26248898 26022034 25811146 25618318 25445358 25293610 25164522 
2453.673 25058888 24976510 24916150 24876044 24854010 24848114 24857728 
2457.048 24882712 24924222 24983144 25060292 25155008 25265688 25389782 
2460.423 25524310 25667106 25816666 25972644 26135996 26308388 26491236 
2463.799 26686496 26894740 27116384 27351550 27600226 27862820 28141058 
2467.174 28437374 28754816 29096154 29464038 29859242 30280954 30726936 
2470.549 31193384 31675876 32170496 32674256 33185434 33703800 34230280 
2473.924 34766944 35316460 35881536 36464820 37068560 37694420 38343304 
2477.300 39015624 39710736 40427184 41162300 41912056 42670016 43428132 
2480.675 44175352 44898292 45581768 46207648 46756120 47207164 47539852 
2484.050 47734524 47776172 47652836 47358900 46894852 46267352 45487312 
2487.425 44570192 43535876 42406248 41205252 39959072 38691324 37424984 
2490.801 36180048 34972068 33813528 32714340 31680330 30716232 29824176 
2494.176 29004612 28256958 27579534 26970080 26425666 25943202 25519144 
2497.551 25149354 24829450 24554902 24320932 24123546 23958638 23822142 
2500.926 23710570 23619456 23544242 23480304 23423264 23369204 23315674 
2504.302 23261662 23207202 23153064 23100154 23048510 22998062 22947650 
2507.677 22895746 22841542 22784234 22723726 22660674 22595610 22528670 
2511.052 22460102 22389344 22315738 22239356 22160476 22079728 21998438 
2514.427 21917892 21839350 21763400 21690666 21621706 21556832 21496666 
2517.802 21441800 21392860 21349526 21311452 21277108 21245024 21213398 
2521.178 21181074 21147714 21113102 21077762 21042458 21007438 20972836 
2524.553 20938900 20905348 20872388 20840544 20810022 20781590 20755870 
2527.928 20732896 20713122 20696512 20683550 20674618 20670450 20671838 
2531.303 20678684 20691020 20708606 20730256 20755384 20782982 20812490 
2534.679 20843952 20877186 20912336 20949296 20987616 21026148 21064058 
2538.054 21099744 21132232 21161246 21186956 21209986 21231454 21252506 
2541.429 21273522 21294122 21313680 21330316 21343018 21350814 21353912 
2544.804 21353426 21351198 21349422 21349876 21354224 21363204 21376812 
2548.180 21394982 21417016 21442218 21470520 21501158 21534408 21570028 
2551.555 21608298 21649184 21693278 21740862 21791758 21845586 21901478 
2554.930 21958284 22015132 22071362 22126480 22180944 22235800 22291496 
2558.305 22349366 22409822 22472976 22538406 22605836 22674534 22743976 
2561.681 22814442 22885860 22958516 23033068 23109730 23188678 23269912 
2565.056 23353190 23438336 23524970 23612984 23701960 23791552 23881090 
2568.431 23970088 24058226 24145090 24231372 24317426 24404130 24492324 
2571.806 24582356 24674234 24767708 24862430 24958262 25055308 25154342 
2575.182 25256452 25362170 25472482 25587214 25706160 25828972 25955162 
2578.557 26084236 26216412 26351478 26489792 26631674 26777972 26929676 
2581.932 27088770 27257200 27436568 27628402 27833146 28050814 28280474 
2585.307 28521650 28774216 29038798 29316904 29609768 29918588 30243474 
2588.683 30583390 30936562 31300380 31672098 32048770 32427408 32804452 
2592.058 33175778 33536680 33882088 34206368 34504844 34772832 35006580 
2595.433 35203404 35361460 35479880 35559312 35601244 35608584 35584844 
2598.808 35533956 35459960 35366132 35255188 35128924 34988584 34835080 
2602.184 34668748 34490420 34301308 34102632 33896668 33686148 33473690 
2605.559 33262302 33054624 32852586 32657896 32471612 32294366 32126504 
2608.934 31968228 31819604 31680434 31550188 31427920 31312916 31203886 
2612.309 31100190 31001180 30906888 30817560 30733906 30656526 30586306 
2615.685 30523776 30469890 30425430 30390922 30367470 30355494 30355886 
2619.060 30369564 30397070 30439646 30498148 30573472 30666304 30776656 
2622.435 30904112 31047442 31205312 31376236 31558808 31752188 31955782 
2625.810 32168784 32390386 32619320 32853660 33091560 33330626 33568648 
2629.186 33803536 34032892 34254588 34466532 34666052 34851024 35019152 
2632.561 35168480 35297268 35403552 35485200 35540144 35566108 35561396 
2635.936 35524644 35455864 35355856 35226584 35071196 34893460 34697420 
2639.311 34487444 34267708 34042424 33815680 33590592 33370700 33158574 
2642.687 32956454 32766112 32588888 32425624 32277272 32144878 32029186 
2646.062 31931068 31851120 31789836 31747092 31722102 31714082 31721712 
2649.437 31743776 31779532 31828016 31888634 31960740 32043490 32135672 
2652.812 32235586 32341160 32450334 32561138 32671790 32781116 32888468 
2656.188 32993558 33096566 33197988 33298288 33398252 33498920 33600900 
2659.563 33704912 33811488 33920672 34032320 34146292 34262760 34382140 
2662.938 34505344 34633724 34768596 34910948 35061644 35220544 35386876 
2666.313 35559600 35737572 35919684 36105400 36294260 36486264 36681596 
2669.688 36880372 37082596 37288488 37498160 37711552 37929132 38151164 
2673.064 38378192 38610520 38848732 39092624 39342056 39596244 39853776 
2676.439 40113784 40374532 40635072 40894856 41153740 41411868 41669420 
2679.814 41926836 42183784 42439892 42694584 42947080 43197016 43443764 
2683.189 43687504 43928300 44166952 44404160 44641128 44878856 45118624 
2686.565 45361276 45607712 45858856 46115376 46378128 46647868 46925600 
2689.940 47212004 47507804 47812900 48127432 48450860 48782684 49123076 
2693.315 49471788 49828920 50194676 50569268 50952492 51344140 51744136 
2696.690 52152380 52568716 52993048 53424804 53863180 54306312 54752380 
2700.066 55199508 55645852 56090512 56532756 56972312 57409252 57843232 
2703.441 58273696 58700192 59121828 59538248 59948304 60351316 60746052 
2706.816 61131464 61506372 61869912 62222056 62562660 62892124 63209876 
2710.191 63515200 63806780 64083032 64342484 64584396 64808904 65016672 
2713.567 65208332 65383940 65542892 65683476 65803596 65901348 65975352 
2716.942 66024692 66048948 66047796 66020564 65966100 65882640 65768472 
2720.317 65621464 65440216 65223968 64972572 64687104 64369344 64021824 
2723.692 63647732 63250156 62832080 62395924 61944232 61479384 61004772 
2727.068 60524776 60044812 59571200 59110020 58666168 58243800 57845500 
2730.443 57472600 57126552 56808084 56518524 56259260 56031400 55835228 
2733.818 55670748 55536944 55432544 55355488 55303780 55274916 55265996 
2737.193 55273972 55295876 55329108 55372240 55424748 55486796 55559348 
2740.569 55642692 55736520 55840392 55953600 56075692 56207816 56351824 
2743.944 56510528 56686988 56883580 57101684 57341228 57601180 57879800 
2747.319 58175112 58484956 58807580 59140508 59481972 59830096 60183444 
2750.694 60541080 60903088 61269176 61639316 62012408 62386892 62760556 
2754.070 63130856 63495456 63852452 64200676 64538836 64865648 65179156 
2757.445 65477236 65757452 66017748 66256316 66472500 66666148 66837752 
2760.820 66988840 67121816 67240280 67348184 67450456 67551560 67654576 
2764.195 67761144 67870536 67980568 68087056 68184936 68269032 68333280 
2767.571 68371872 68379432 68350648 68282016 68171632 68019896 67828896 
2770.946 67602312 67344160 67058168 66747092 66413572 66059256 65686984 
2774.321 65299900 64901656 64497016 64090408 63686056 63287796 62899208 
2777.696 62523060 62162180 61818792 61494764 61191120 60908652 60647060 
2781.072 60406412 60186376 59986532 59805568 59642388 59494244 59357928 
2784.447 59229436 59104668 58979704 58851672 58717412 58574360 58420440 
2787.822 58252856 58069092 57867040 57644804 57401276 57136380 56850080 
2791.197 56543056 56216340 55871064 55509044 55132616 54744524 54347844 
2794.573 53946304 53542740 53139780 52739432 52343120 51951424 51564784 
2797.948 51183292 50807092 50436800 50073256 49717816 49372212 49038120 
2801.323 48716884 48409408 48115956 47836208 47569832 47317000 47077788 
2804.698 46853584 46645508 46454896 46282800 46129304 45994132 45876604 
2808.073 45776048 45691816 45623724 45571316 45534704 45513620 45507696 
2811.449 45516560 45539668 45576580 45626668 45688944 45762388 45845380 
2814.824 45936012 46032588 46133172 46235880 46339456 46442544 46543660 
2818.199 46641852 46736268 46826972 46914820 47001136 47088016 47177392 
2821.574 47271260 47370980 47477972 47593456 47719032 47856556 48007996 
2824.950 48175632 48360812 48564640 48787580 49030180 49293296 49578592 
2828.325 49888196 50224024 50587396 50977752 51392812 51827792 52275468 
2831.700 52727500 53173596 53602492 54003632 54366392 54681648 54943320 
2835.075 55147964 55295312 55388200 55431636 55431112 55392680 55322292 
2838.451 55225432 55108016 54976300 54836880 54696908 54563024 54440940 
2841.826 54335524 54251044 54190908 54158660 54158476 54193800 54268916 
2845.201 54386748 54548824 54754896 55001800 55283760 55591360 55912556 
2848.576 56232820 56535472 56804720 57026644 57190768 57292608 57332568 
2851.952 57317140 57256088 57162572 57051164 56935708 56829760 56745436 
2855.327 56692728 56679064 56709792 56786820 56910020 57077160 57284780 
2858.702 57528736 57804732 58109048 58437648 58786604 59151592 59527764 
2862.077 59910568 60294628 60674568 61045004 61400408 61734796 62042832 
2865.453 62319576 62561288 62765068 62929616 63054800 63140744 63188760 
2868.828 63200676 63179180 63127944 63051968 62957272 62850192 62737352 
2872.203 62624276 62516324 62418228 62334072 62268096 62224200 62206076 
2875.578 62216664 62258268 62331660 62436856 62573076 62738696 62931492 
2878.954 63149176 63388504 63646040 63918360 64201788 64493440 64791292 
2882.329 65093808 65400468 65710576 66023648 66338876 66655180 66971564 
2885.704 67286744 67600104 67910712 68218312 68522568 68823816 69122432 
2889.079 69419776 69717136 70015592 70315888 70617568 70919832 71220992 
2892.455 71519232 71812984 72101120 72382536 72656128 72920392 73172744 
2895.830 73410880 73632032 73833856 74015104 74174688 74311880 74426120 
2899.205 74516304 74581968 74622680 74639136 74632600 74605568 74560872 
2902.580 74500808 74427536 74342712 74248232 74145880 74038440 73929224 
2905.956 73821440 73717808 73620600 73531392 73451056 73380712 73321624 
2909.331 73275336 73243768 73228472 73230120 73248672 73282432 73328528 
2912.706 73382784 73439288 73491632 73531944 73552232 73544968 73503920 
2916.081 73424880 73306640 73150584 72960168 72740496 72497200 72235544 
2919.457 71959688 71671848 71372448 71059520 70729536 70378848 70004104 
2922.832 69603752 69178960 68733480 68272864 67803904 67332904 66865192 
2926.207 66404352 65952988 65512456 65083952 64668372 64266600 63878396 
2929.582 63503316 63140316 62787928 62445004 62111104 61786592 61472244 
2932.958 61169148 60878004 60598904 60331632 60075676 59830396 59595220 
2936.333 59369628 59153040 58944564 58742676 58545920 58352860 58162572 
2939.708 57975096 57790688 57610448 57435312 57266180 57103652 56947796 
2943.083 56798640 56655580 56517808 56384272 56253600 56124444 55995588 
2946.458 55866092 55735840 55605108 55475044 55347020 55222688 55103840 
2949.834 54992096 54889516 54797900 54719640 54657148 54613484 54591732 
2953.209 54595600 54628780 54694424 54794516 54929032 55095112 55286320 
2956.584 55493344 55704236 55904944 56082480 56224336 56320476 56364768 
2959.959 56354016 56289168 56174668 56018320 55830596 55622844 55407324 
2963.335 55194956 54994576 54812936 54654968 54523580 54420996 54348780 
2966.710 54307624 54297036 54315364 54358208 54419348 54491384 54565540 
2970.085 54633212 54687172 54721220 54730956 54714004 54669812 54599208 
2973.460 54504420 54388772 54255740 54108408 53949232 53779728 53600692 
2976.836 53412512 53215540 53010680 52799108 52582516 52362404 52140648 
2980.211 51918788 51698560 51481584 51269528 51064240 50867284 50679916 
2983.586 50503344 50338752 50187016 50049344 49926856 49820148 49729188 
2986.961 49653476 49592224 49544904 49511740 49493880 49492988 49511036 
2990.337 49548916 49606856 49683972 49779348 49893288 50027596 50186416 
2993.712 50375104 50598380 50858120 51151532 51470024 51798260 52115472 
2997.087 52399336 52625524 52772880 52826612 52779016 52632372 52398816 
3000.462 52100900 51767016 51429624 51122420 50873804 50706056 50633004 
3003.838 50658392 50776216 50970932 51220684 51496096 51763620 51991084 
3007.213 52146704 52205292 52151600 51980180 51697444 51317816 50864008 
3010.588 50361260 49833972 49305692 48795068 48315780 47877308 47484144 
3013.963 47137540 46835316 46574352 46350260 46158892 45997192 45862204 
3017.339 45751416 45662188 45590968 45533488 45485728 45443752 45404648 
3020.714 45367420 45331780 45298568 45268560 45242376 45219872 45200936 
3024.089 45184944 45171672 45161084 45153324 45148180 45145492 45144504 
3027.464 45144284 45144024 45143032 45140604 45136120 45129468 45120128 
3030.840 45108068 45093808 45077596 45060248 45042128 45022944 45002064 
3034.215 44978180 44950140 44917068 44879000 44836312 44790096 44741208 
3037.590 44689972 44636540 44580544 44521844 44461016 44399280 44338324 
3040.965 44280020 44225648 44175828 44130532 44089200 44051460 44016916 
3044.341 43985272 43956712 43930904 43907660 43886804 43868656 43853664 
3047.716 43843108 43838232 43840468 43850216 43867408 43891384 43921264 
3051.091 43956492 43997300 44044200 44098404 44160972 44232876 44314912 
3054.466 44407832 44512332 44629304 44759464 44903436 45060836 45230280 
3057.842 45409280 45594352 45780352 45961200 46129488 46275316 46388232 
3061.217 46456296 46467544 46412564 46284532 46080960 45804472 45462108 
3064.592 45065136 44626552 44161232 43684316 43208876 42747224 42309152 
3067.967 41901656 41529324 41193888 40895296 40631288 40399040 40195668 
3071.343 40018144 39863760 39730708 39616752 39520172 39439288 39372820 
3074.718 39319276 39277528 39246336 39223632 39207312 39194292 39181492 
3078.093 39165684 39144436 39116592 39081928 39041436 38996704 38950132 
3081.468 38903776 38859968 38820616 38787720 38762356 38745692 38737832 
3084.844 38738016 38744172 38753268 38760656 38760620 38747324 38714612 
3088.219 38657348 38572532 38459172 38319016 38155540 37974332 37781888 
3091.594 37584072 37386704 37194408 37010392 36837272 36676476 36528608 
3094.969 36393692 36270808 36158768 36055712 35959812 35869408 35782580 
3098.344 35698072 35614480 35530364 35444464 35355748 35263664 35168264 
3101.720 35070332 34971096 34871740 34773192 34676036 34579540 34483036 
3105.095 34385832 34287324 34187224 34085968 33984052 33881480 33778428 
3108.470 33674692 33569864 33463738 33356640 33249206 33141982 33036106 
3111.845 32932076 32830182 32730382 32632322 32535852 32440622 32346230 
3115.221 32252322 32158580 32064680 31970550 31876508 31782918 31690414 
3118.596 31599432 31509712 31420260 31329796 31236608 31139488 31038262 
3121.971 30933430 30827024 30721780 30619620 30522176 30429586 30341068 
3125.346 30254914 30169520 30083540 29997080 29910816 29825740 29743304 
3128.722 29663972 29587564 29512940 29438614 29363238 29285782 29206640 
3132.097 29126484 29046874 28969794 28896200 28827148 28762852 28702954 
3135.472 28646712 28593094 28541110 28489628 28437444 28383392 28326626 
3138.847 28266436 28202540 28135296 28065376 27993734 27921366 27848936 
3142.223 27777084 27706022 27636028 27567214 27500102 27434802 27371700 
3145.598 27311006 27252260 27195182 27139100 27083762 27029174 26975438 
3148.973 26923190 26872886 26824598 26777794 26731630 26684698 26635586 
3152.348 26583694 26528604 26471058 26412286 26353660 26296596 26241718 
3155.724 26189170 26138318 26088354 26038604 25988860 25939228 25890480 
3159.099 25843530 25799120 25757770 25719484 25684402 25651956 25622256 
3162.474 25595158 25570662 25548382 25528386 25509974 25492510 25475924 
3165.849 25460290 25446728 25436328 25431024 25432218 25441316 25459132 
3169.225 25486220 25522762 25569046 25625700 25693576 25773556 25866916 
3172.600 25974790 26098204 26237812 26394644 26569392 26762466 26974310 
3175.975 27205130 27454674 27722796 28009110 28312690 28632306 28966112 
3179.350 29311090 29663050 30017034 30366794 30705172 31025556 31321072 
3182.726 31585250 31812758 31998974 32140740 32236512 32286122 32291688 
3186.101 32256462 32185234 32083370 31956640 31811188 31653028 31488088 
3189.476 31322174 31159956 31004988 30859110 30722064 30591960 30465944 
3192.851 30340642 30213422 30082476 29947060 29807142 29663298 29515990 
3196.227 29366004 29214720 29063206 28913446 28767454 28626750 28492422 
3199.602 28364824 28243698 28128402 28018226 27912956 27812832 27718206 
3202.977 27629426 27546984 27470698 27400498 27336272 27277876 27224814 
3206.352 27176346 27132114 27090604 27051176 27013730 26978470 26946916 
3209.728 26920546 26900910 26888362 26882650 26882404 26886070 26892026 
3213.103 26899782 26909054 26920652 26935422 26953544 26974698 26998250 
3216.478 27023180 27048708 27074488 27100796 27128060 27156700 27186928 
3219.853 27219030 27252826 27288354 27325402 27364466 27405120 27447190 
3223.229 27490536 27534522 27578440 27621834 27664384 27705596 27745542 
3226.604 27783866 27821026 27857486 27894442 27933274 27975536 28022220 
3229.979 28073646 28129214 28187762 28247764 28308094 28367582 28425808 
3233.354 28482552 28537748 28591324 28643172 28693998 28744442 28796204 
3236.729 28850802 28909658 28973302 29041206 29112346 29185164 29258702 
3240.105 29332148 29405746 29479854 29554150 29627646 29698918 29766866 
3243.480 29830848 29891682 29951782 30013662 30080592 30153786 30233386 
3246.855 30318364 30406772 30496868 30587836 30679780 30773242 30868250 
3250.230 30964100 31059188 31151556 31239526 31322390 31401418 31478680 
3253.606 31556706 31637918 31723280 31812224 31903538 31995370 32086048 
3256.981 32175064 32262388 32349084 32436014 32523998 32612712 32701802 
3260.356 32790552 32877926 32963604 33047222 33129356 33210326 33290416 
3263.731 33369664 33447492 33523258 33595744 33664592 33729692 33791648 
3267.107 33851820 33911640 33972444 34034932 34099048 34163780 34227520 
3270.482 34288864 34346492 34399672 34449352 34495948 34540968 34585104 
3273.857 34628912 34672016 34713716 34753056 34789200 34821980 34851920 
3277.232 34880068 34908112 34937412 34969120 35003384 35039624 35076296 
3280.608 35111968 35144876 35174088 35199312 35221300 35240992 35260180 
3283.983 35280052 35301148 35323796 35347696 35371776 35395108 35416856 
3287.358 35436052 35452268 35465536 35476176 35484660 35491852 35498324 
3290.733 35504368 35510264 35515872 35521016 35525472 35529464 35533060 
3294.109 35536512 35539752 35542952 35545932 35548484 35550536 35552336 
3297.484 35554348 35556684 35559884 35563624 35567148 35570208 35571716 
3300.859 35571360 35569128 35565424 35560680 35555820 35551576 35548740 
3304.234 35547768 35549280 35553268 35559600 35567868 35577004 35585744 
3307.610 35593440 35599984 35605880 35612932 35622424 35636024 35654436 
3310.985 35677064 35702676 35730160 35758188 35786176 35814532 35843748 
3314.360 35875164 35909356 35946712 35986848 36029468 36073860 36119912 
3317.735 36166976 36214836 36262956 36311192 36359140 36406988 36455200 
3321.111 36504284 36554992 36607764 36662636 36719204 36777296 36836156 
3324.486 36895164 36953964 37012160 37069140 37124532 37177300 37226824 
3327.861 37272748 37314376 37351640 37384720 37413468 37437988 37458432 
3331.236 37475332 37489024 37500296 37509688 37517164 37522184 37523848 
3334.612 37521356 37514164 37502680 37487468 37469916 37451100 37431376 
3337.987 37410432 37387572 37361860 37332432 37299104 37261808 37220328 
3341.362 37174632 37123812 37067116 37004512 36935816 36862520 36786456 
3344.737 36709180 36631776 36554560 36476856 36397508 36316020 36231948 
3348.113 36145836 36058524 35971044 35883548 35795784 35707316 35617248 
3351.488 35525616 35432744 35339788 35247532 35156660 35067136 34978640 
3354.863 34890264 34801012 34710560 34618152 34523500 34426752 34327844 
3358.238 34227340 34126540 34027192 33930844 33839460 33753864 33673544 
3361.614 33596892 33521470 33444914 33365584 33283084 33198378 33113014 
3364.989 33028952 32947768 32870136 32795984 32724488 32654538 32585244 
3368.364 32515820 32445476 32374360 32302252 32229234 32155332 32081090 
3371.739 32006464 31932030 31857968 31784378 31711694 31639948 31569534 
3375.115 31500842 31433974 31368938 31305506 31243158 31181352 31119660 
3378.490 31057622 30995022 30931650 30867754 30802976 30737534 30671354 
3381.865 30604366 30536500 30467722 30397994 30327674 30257328 30187954 
3385.240 30121184 30058896 30002512 29953236 29910886 29874008 29839828 
3388.615 29805156 29766974 29722868 29671636 29613776 29550462 29484180 
3391.991 29417092 29351326 29288476 29229214 29173506 29120746 29069760 
3395.366 29019492 28968874 28917554 28865568 28814154 28764480 28717256 
3398.741 28672902 28630466 28588386 28544792 28498226 28447456 28392838 
3402.116 28334972 28274250 28211520 28146890 28079902 28010664 27939738 
3405.492 27867978 27797076 27728802 27663996 27602732 27544054 27486088 
3408.867 27426896 27365596 27301198 27234622 27166752 27098610 27031254 
3412.242 26964826 26899290 26833586 26767434 26699742 26630370 26559142 
3415.617 26486130 26411546 26335284 26257100 26176150 26092046 26004232 
3418.993 25912882 25819304 25725356 25633644 25546378 25465068 25389290 
3422.368 25317878 25248410 25178566 25106980 25033720 24960016 24887658 
3425.743 24818786 24753538 24691488 24630188 24566788 24498318 24423336 
3429.118 24341256 24253198 24161236 24067752 23975200 23885676 23800266 
3432.494 23719912 23644682 23573592 23505522 23439176 23372666 23304976 
3435.869 23235934 23165610 23094984 23025068 22956592 22889528 22823590 
3439.244 22757698 22690488 22621404 22550134 22477270 22404100 22332342 
3442.619 22262722 22195974 22131536 22067666 22001782 21931448 21854506 
3445.995 21770750 21681470 21589564 21498894 21413326 21334632 21263292 
3449.370 21197358 21133904 21070006 21003196 20932850 20859524 20785240 
3452.745 20711246 20638932 20569130 20501114 20434288 20368202 20302610 
3456.120 20237342 20172500 20107772 20042914 19977408 19910662 19842608 
3459.496 19773282 19702892 19631682 19560034 19488050 19415558 19343044 
3462.871 19270854 19198952 19127858 19056536 18984290 18910220 18833534 
3466.246 18754544 18674012 18593356 18513684 18435338 18358010 18280176 
3469.621 18200320 18118060 18033258 17947576 17863120 17781578 17704330 
3472.997 17631240 17561300 17493130 17425420 17357926 17290618 17224214 
3476.372 17159372 17096022 17034060 16972382 16910024 16845642 16778240 
3479.747 16707025 16631657 16552549 16471047 16389079 16309224 16233994 
3483.122 16165277 16102621 16044410 15987858 15929077 15865013 15794361 
3486.498 15717672 15637152 15555719 15477082 15403231 15335331 15273241 
3489.873 15215794 15161510 15108639 15055981 15002163 14946569 14888238 
3493.248 14827756 14765602 14702497 14640053 14579125 14520604 14464763 
3496.623 14411806 14361492 14314404 14270744 14230650 14193812 14158997 
3499.999 14123602 14084719 14039201 13985098 13921765 13850744 13775048 
3503.374 13699195 13627492 13563048 13507296 13459514 13416658 13374592 
3506.749 13328636 13274793 13210366 13135740 13053476 12968873 12887870 
3510.124 12816472 12758563 12715572 12685344 12664431 12648022 12631683 
3513.500 12611932 12587237 12557358 12522469 12483457 12440902 12395454 
3516.875 12347520 12298060 12248332 12200108 12154480 12112264 12072811 
3520.250 12034385 11995075 11952601 11905808 11854762 11801000 11747311 
3523.625 11695944 11648769 11605581 11564950 11523641 11479138 11429369 
3527.000 11373617 11313554 11251220 11189270 11130184 11074539 11022572 
3530.376 10974213 10929087 10887193 10849381 10815648 10785246 10756613 
3533.751 10726521 10691847 10650247 10600979 10545674 10487082 10429314 
3537.126 10375897 10329306 10290660 10259787 10236411 10220027 10209986 
3540.501 10206118 10206831 10209714 10211444 10207713 10194382 10168500 
3543.877 10128546 10074623 10009076 9935540 9858490 9783318 9715139 9657507 
3547.734 9612280 9578778 9553612 9531494 9506906 9474970 9433555 9383342 
3551.592 9327852 9272540 9222683 9181664 9150565 9127825 9110500 9095342 
3555.449 9079914 9062455 9042122 9018610 8990972 8958466 8920517 8877700 
3559.306 8831000 8783222 8737952 8698737 8668720 8650197 8643571 8647053 
3563.164 8656754 8666185 8667638 8652022 8612071 8543501 8447812 8332958 
3567.021 8212800 8103444 8017909 7963269 7939275 7939107 7953246 7971571 
3570.879 7986994 7995161 7995466 7989221 7978489 7965496 7951188 7935057 
3574.736 7916869 7895037 7868585 7837309 7800773 7759450 7714354 7667104 
3578.594 7620027 7575687 7537285 7507415 7488469 7482267 7489582 7510247 
3582.451 7542207 7582363 7625321 7663664 7688013 7689531 7659482 7592681 
3586.308 7490391 7360760 7218668 7083494 6975129 6906211 6882545 6900421 
3590.166 6949742 7016243 7085346 7144322 7183801 7199196 7190236 7160996 
3594.023 7117915 7068069 7018027 6971896 6931595 6897054 6866825 6838381 
3597.881 6809367 6777393 6741148 6700834 6658775 6619008 6587216 6568949 
3601.738 6567638 6584457 6617359 6661298 6710156 6757941 6798731 6827341 
3605.595 6839963 6833197 6804891 6755552 6689394 6614196 6540525 6479479 
3609.453 6437374 6414944 6405394 6398870 6384142 6354352 6309300 6255715 
3613.310 6205599 6170443 6157672 6167149 6191314 6217463 6231984 6223110 
3617.168 6183786 6113245 6016511 5905288 5794866 5701022 5637744 5613342 
3621.025 5629151 5680275 5758199 5852357 5953422 6055518 6156496 6256253 
3624.883 6354150 6445949 6520075 6559968 6543721 6452944 6282305 6049235 
3628.740 5796008 5576589 5437832 5397941 5445079 5546754 5666042 5771731 
3632.597 5843055 5873146 5867202 5838252 5801045 5767500 5742653 5725799 
3636.455 5712202 5697363 5678429 5655736 5631803 5609280 5590451 5576422 
3640.312 5567427 5564339 5568971 5584175 5613241 5657616 5716298 5784793 
3644.170 5855480 5918824 5963936 5981774 5965549 5912140 5822973 5703708 
3648.027 5563433 5413239 5266283 5136979 5039892 4989044 4993468 5054340 
3651.885 5162997 5302204 5449508 5578570 5666042 5694711 5658019 5563232 
3655.742 5432598 5298883 5192203 5132318 5122629 5152168 5202867 5255383 
3659.599 5297005 5320954 5327797 5322262 5312132 5304585 5305156 5317432 
3663.457 5342891 5381201 5430685 5488229 5549203 5608038 5658153 5691656 
3667.314 5700452 5677288 5616463 5519504 5397001 5271616 5174465 5132586 
3671.172 5160449 5251124 5380328 5508967 5593707 5597097 5494370 5287949 
3675.029 5012975 4735763 4524916 4421973 4428032 4511121 4628418 4740621 
3678.886 4825512 4877648 4905226 4922350 4943195 4975470 5019579 5071603 
3682.744 5127893 5187509 5252466 5325180 5404382 5482089 5544136 5573804 
3686.601 5556050 5484638 5366474 5222752 5082365 4971179 4903953 4879859 
3690.459 4887533 4912129 4943430 4977246 5014216 5057424 5107341 5161522 
3694.316 5214973 5261185 5296368 5320384 5337189 5353458 5374659 5403375 
3698.174 5436758 5468029 5487592 5486216 5458869 5406093 5335210 5258905 
3702.031 5192338 5148546 5135437 5155151 5203772 5274366 5358087 5446958 
3705.888 5534471 5616161 5689474 5752525 5803160 5838454 5853029 5840502 
3709.746 5794027 5709718 5589276 5442093 5286474 5145730 5041601 4990451 
3713.603 4997289 5056250 5152838 5269100 5386736 5490008 5569475 5621833 
3717.461 5649191 5658321 5657113 5651876 5645834 5638919 5629185 5615255 
3721.318 5596929 5576589 5558466 5546015 5540679 5541586 5544606 5545277 
3725.176 5540478 5531048 5521786 5521450 5539538 5582060 5649191 5734293 
3729.033 5824819 5905523 5961585 5983689 5969781 5927188 5869183 5810481 
3732.890 5758669 5711195 5655065 5574207 5458634 5312099 5154313 5014852 
3736.748 4923523 4896245 4932136 5017869 5135604 5269738 5410723 5554808 
3740.605 5698068 5831435 5937466 5987519 5948283 5795370 5529940 5196328 
3744.463 4874632 4656349 4593590 4681066 4868031 5087527 5279196 5396632 
3748.320 5417802 5345038 5203604 5031009 4865016 4732079 4641713 4593959 
3752.177 4586458 4618003 4688602 4793852 4923925 5062251 5190963 5295160 
3756.035 5366138 5403745 5414145 5406865 5389957 5365970 5334136 5294154 
3759.892 5249548 5210311 5189152 5196563 5234590 5295731 5364058 5421761 
3763.750 5456084 5463432 5452326 5437899 5437026 5458265 5497960 5541082 
3767.607 5567796 5562091 5516181 5435383 5336753 5244283 5179126 5154380 
3771.465 5172185 5225167 5301601 5388145 5474572 5553063 5619384 5671850 
3775.322 5710590 5736476 5749536 5749637 5735133 5705017 5660469 5605890 
3779.179 5550345 5505779 5483095 5488095 5519571 5568568 5622404 5666915 
3783.037 5691656 5692025 5670137 5632944 5589981 5549942 5518061 5496115 
3786.894 5484303 5481853 5488095 5502322 5522960 5546586 5569105 5586994 
3790.752 5599211 5608005 5618410 5635898 5662820 5697061 5730734 5753666 
3794.609 5756990 5738222 5703708 5668963 5653387 5671480 5727075 5809037 
3798.467 5895145 5955841 5961719 5893835 5750577 5555681 5352619 5195523 
3802.324 5125143 5153341 5262259 5413675 5563601 5668996 5700653 5647982 
3806.181 5524269 5364863 5217588 5126183 5111330 5169066 5275640 5402604 
3810.039 5525007 5628312 5709852 5775189 5831905 5883625 5926449 5948887 
3813.896 5937130 5881072 5782543 5660335 5548297 5482357 5485209 5557090 
3817.754 5676247 5808029 5912039 5955504 5917078 5796176 5614181 5415554 
3821.611 5251627 5159511 5151598 5214067 5318438 5431323 5525443 5585517 
3825.469 5608944 5605790 5593438 5591424 5612033 5657482 5719622 5785027 
3829.326 5839629 5873717 5884532 5876672 5860115 5846111 5844230 5859947 
3833.183 5893835 5942102 5997194 6050176 6089488 6103198 6081592 6019568 
3837.041 5920201 5796109 5668426 5559876 5487860 5459708 5470713 5508295 
3840.898 5555278 5597063 5623311 5630494 5621733 5605723 5594109 5597667 
3844.756 5624754 5679101 5759509 5860249 5973006 6089455 6202842 6309805 
3848.613 6410203 6504805 6593002 6667725 6713319 6705209 6614365 6416222 
3852.470 6107163 5717674 5317130 4986631 4787654 4737371 4812714 4970174 
3856.328 5165680 5367279 5554573 5718581 5857395 5971696 6062709 6130451 
3860.185 6174308 6194541 6192826 6171888 6134013 6080080 6010330 5926785 
3864.043 5836942 5756453 5705521 5702197 5755177 5856085 5981640 6096612 
3867.900 6166443 6164057 6081659 5936223 5768709 5627842 5547459 5536887 
3871.758 5579140 5645129 5704783 5740438 5749805 5746817 5752995 5786975 
3875.615 5857563 5959065 6074738 6181937 6259850 6292491 6272926 6203952 
3879.472 6100073 5985301 5886144 5827707 5824752 5877311 5970890 6079811 
3883.330 6175013 6227782 6219917 6149774 6037106 5917750 5830293 5803630 
3887.187 5843155 5933200 6042952 6138920 6193062 6188255 6123764 6015402 
3891.045 5891719 5783382 5715324 5699512 5734092 5807760 5905691 6014260 
3894.902 6121814 6219951 6302812 6365414 6404385 6417802 6406335 6374257 
3898.760 6328396 6278002 6230370 6189801 6154916 6120033 6077291 6020173 
3902.617 5947040 5863003 5779890 5712135 5673025 5670306 5703137 5763807 
3906.474 5840200 5920571 5995111 6058206 6108239 6146313 6174610 6195952 
3910.332 6213026 6228522 6245496 6267817 6298643 6339626 6389388 6442956 
3914.189 6492562 6529190 6545571 6538003 6507798 6460511 6405024 6349880 
3918.047 6301366 6263379 6237900 6225295 6226471 6241799 6270338 6308998 
3921.904 6351730 6391305 6419618 6431657 6426646 6408924 6386395 6367902 
3925.761 6360102 6365616 6382528 6405663 6429404 6448942 6461553 6466228 
3929.619 6463370 6453415 6436970 6414540 6387841 6359967 6335726 6320395 
3933.476 6317840 6329270 6352637 6383100 6414305 6440972 6459737 6470230 
3937.334 6474770 6476890 6480387 6486676 6495320 6503359 6506655 6501576 
3941.191 6486071 6461083 6430749 6401796 6380343 6371769 6378023 6397761 
3945.049 6426142 6457215 6484827 6504401 6514020 6514290 6508202 6499222 
3948.906 6490611 6484356 6480858 6479647 6479714 6480824 6482943 6486676 
3952.763 6492730 6501038 6510825 6520916 6529930 6536287 6539853 6540593 
3956.621 6539651 6537599 6535211 6532587 6529695 6526197 6521959 6517149 
3960.478 6512271 6508269 6506184 6507024 6511229 6518898 6529459 6541535 
3964.336 6553812 6564812 6573323 6578638 6580656 6579782 6577091 6573154 
3968.193 6569084 6565048 6561986 6559766 6559127 6560540 6564274 6570531 
3972.051 6579008 6588999 6599125 6608410 6615946 6621093 6623717 6624592 
3975.908 6624390 6624458 6625568 6628495 6633474 6640472 6648614 6657093 
3979.765 6664495 6669878 6672537 6672503 6670585 6667725 6665269 6663822 
3983.623 6663889 6665336 6668062 6671796 6676540 6682664 6689899 6697941 
3987.480 6705983 6712747 6717727 6720150 6720722 6720453 6720924 6723380 
3991.338 6728159 6735091 6742696 6749999 6756157 6761643 6766860 6773254 
3995.195 6781735 6792707 6805395 6818488 6830808 6841343 6849758 6856423 
3999.052 6862078 6867700 6873557 6879751 
##END=
