
##TITLE=Z361_1_b
##JCAMP-DX=5.01  $$ Nicolet v. 1
##DATATYPE=INFRARED SPECTRUM
##ORIGIN=UniL
##OWNER=Nicolet
##LONGDATE=2011/09/14
##TIME=10:52:54
##SPECTROMETER/DATA SYSTEM=Nicolet iS5
##DATA PROCESSING=
Ratio against background
%Transmittance->Absorbance
Truncated
ElementMultiply or ElementDivide
##COMMENTS=
Number of sample scans: 32
Collection length: 51.23 sec
Sample gain: 2.0
Background collected on: Mer Sep 14 10:43:08 2011 (GMT+02:00);
Number of background scans: 32
Background gain: 2.0
Sample spacing:  1.000
Number of scan points: 12415
Resolution points: 8192
Number of FFT points: 65536
Apodization: N-B fort;
Phase correction: Mertz;
Laser frequency: 15798.0 cm-1
Number of rejected sample scans: 0
Number of rejected background scans: 0
Bench serial number: ASB1000141;
##RESOLUTION=4.000
##XUNITS=1/CM
##YUNITS=ABSORBANCE
##FIRSTX=649.893372
##LASTX=4000.122314
##FIRSTY=0.107449
##MAXX=4000.122314
##MINX=649.893372
##MAXY=0.237042
##MINY=0.009343
##XFACTOR=1.000000
##YFACTOR=1.000000E-009
##NPOINTS=6950
##DELTAX=0.482117
##ZPD=6100
##XYDATA=(X++(Y..Y))
649.893 107448728 107656032 107944528 108316200 108753528 109229288 
652.786 109716544 110202128 110685944 111181248 111703064 112261400 
655.679 112859600 113495720 114166256 114871584 115612304 116386168 
658.571 117180992 117976048 118743904 119460288 120114672 120711248 
661.464 121267672 121807272 122352720 122923264 123534360 124203336 
664.357 124950488 125798776 126769376 127874152 129107328 130434112 
667.250 131800296 133159656 134527312 135991536 137713152 139884032 
670.142 142675456 146265824 150817104 156444480 163169376 170843552 
673.035 179121056 187382720 194812224 200535056 203695360 203732832 
675.928 200532752 194492288 186419328 177314208 168179072 159744224 
678.820 152440368 146400208 141511008 137511424 134078504 130929144 
681.713 127838792 124672072 121382984 117988472 114549976 111143808 
684.606 107848008 104722496 101802912 99107256 96639432 94397656 92378880 
687.981 90579528 88994384 87613376 86422792 85406024 84544992 83823304 
691.355 83225880 82737808 82344728 82030320 81776688 81566704 81383512 
694.730 81213264 81046320 80876360 80701320 80521848 80341176 80164360 
698.105 79996664 79844240 79711368 79599880 79508912 79434784 79371648 
701.480 79312944 79252968 79186960 79111504 79024760 78924968 78810664 
704.855 78680616 78533816 78369880 78190288 77998096 77797936 77595096 
708.229 77395240 77202992 77021312 76850752 76689384 76533568 76378568 
711.604 76220064 76055416 75882864 75701664 75510408 75305120 75080392 
714.979 74828984 74544240 74222800 73865464 73477704 73067384 72643080 
718.354 72212336 71780272 71350936 70928376 70517224 70122624 69748032 
721.729 69392448 69048512 68703904 68344408 67957504 67537392 67086704 
725.104 66615356 66137528 65666980 65214492 64786368 64385480 64013800 
728.478 63673280 63365772 63092156 62851184 62639208 62451392 62283972 
731.853 62136028 62009464 61907892 61833960 61788192 61769172 61775324 
735.228 61807028 61868916 61969036 62115844 62316708 62575824 62894768 
738.603 63275420 63722624 64245388 64857224 65574600 66414156 67396480 
741.978 68549144 69909400 71535688 73508392 75928200 78931528 82684656 
745.352 87381304 93257352 100550304 109458928 120071288 132270056 145633856 
748.727 159324608 172189824 182804592 189709120 191838688 188728560 
751.620 180718112 168810496 154472992 139258448 124421752 110900608 99195344 
754.995 89434936 81521408 75221304 70270152 66409484 63427196 61155608 
758.370 59448348 58185568 57265312 56600616 56131044 55817784 55639940 
761.744 55589592 55663856 55862700 56187568 56644516 57243952 57998496 
765.119 58921488 60022408 61306264 62777400 64443624 66320272 68432336 
768.494 70808976 73472168 76425104 79638920 83044352 86522384 89921216 
771.869 93061488 95746296 97799248 99066840 99436608 98857064 97337776 
775.244 94956608 91842272 88170264 84135112 79917312 75687544 71587216 
778.619 67721920 64176784 61006180 58235768 55864848 53867340 52200432 
781.993 50809888 49644000 48658060 47814936 47088240 46456888 45902420 
785.368 45409536 44966456 44565676 44205508 43887608 43613644 43382140 
788.743 43186808 43017208 42862776 42715164 42571548 42433424 42305788 
792.118 42192072 42093456 42007748 41931360 41861156 41796940 41740072 
795.493 41692656 41655016 41625844 41600864 41576648 41551492 41526408 
798.867 41504936 41490316 41484192 41485212 41490788 41497828 41505116 
802.242 41514524 41528744 41550108 41578764 41612280 41646996 41680948 
805.617 41715708 41755576 41807156 41875712 41962200 42063304 42172024 
808.992 42281392 42387320 42489768 42591612 42696592 42806348 42918552 
812.367 43028184 43129496 43219124 43297056 43366468 43431828 43495992 
815.742 43559284 43619288 43672812 43718212 43756760 43792640 43830940 
819.116 43875988 43929656 43991692 44060296 44134564 44214936 44303172 
822.491 44400748 44508224 44623984 44745284 44869816 44997728 45131340 
825.866 45275952 45436652 45616952 45817320 46035316 46266284 46506080 
829.241 46751732 47002392 47259400 47525840 47804872 48101192 48419668 
832.616 48764964 49140768 49547692 49981868 50434344 50891612 51338700 
835.990 51760520 52145432 52486116 52779576 53025840 53227000 53387484 
839.365 53514744 53621088 53726516 53856652 54041344 54312620 54697732 
842.740 55218584 55891148 56726028 57731836 58918492 60298052 61886536 
846.115 63704172 65771832 68111712 70742720 73676392 76911384 80424824 
849.490 84167048 88044368 91919000 95611200 98889144 101508592 103237944 
852.865 103881736 103333768 101590392 98763968 95060112 90765080 86214272 
856.239 81722096 77578848 74009640 71146048 69046288 67696208 67033960 
859.614 66965112 67384328 68191328 69285240 70573512 71969936 73383328 
862.989 74725032 75910296 76856568 77499072 77792464 77714984 77272104 
866.364 76494376 75436528 74165528 72758640 71292792 69830168 68419768 
869.739 67092076 65860972 64731100 63702060 62773228 61944576 61216220 
873.113 60586752 60051856 59604380 59236236 58938412 58702996 58523176 
876.488 58392088 58303024 58249676 58226184 58229556 58259752 58319660 
879.863 58412592 58541676 58707132 58906424 59135344 59389952 59667632 
883.238 59968804 60295616 60650224 61033068 61442052 61872928 62319840 
886.613 62778204 63245176 63720128 64203748 64696908 65199360 65709532 
889.987 66225284 66743808 67263032 67781288 68296824 68807744 69311632 
893.362 69806352 70291232 70767712 71239928 71713392 72194616 72689024 
896.737 73200824 73733752 74291832 74881736 75513672 76201264 76960632 
900.112 77810016 78765856 79844240 81059336 82422552 83942272 85621744 
903.487 87456592 89431360 91515840 93666112 95817712 97888816 99788896 
906.862 101412032 102651872 103414232 103618560 103219200 102214184 
909.754 100654016 98638024 96305448 93827504 91372328 89096480 87136192 
913.129 85587928 84517584 83959480 83916504 84361272 85232368 86440584 
916.504 87855992 89317744 90657616 91699912 92299864 92370520 91890256 
919.879 90913624 89554888 87977944 86354960 84840160 83559384 82585144 
923.254 81945720 81633192 81618600 81865416 82338240 83011056 83865336 
926.628 84889192 86077136 87429080 88951648 90657864 92569680 94716088 
930.003 97130248 99852072 102924664 106392832 110306552 114715344 119664544 
933.378 125190896 131313192 138023648 145275744 152983952 161013824 
936.271 169175904 177255792 185010944 192199744 198627024 204155024 
939.163 208736528 212422496 215367536 217808160 220007456 222235264 
942.056 224688928 227441328 230403216 233302096 235709520 237041536 
944.949 236689664 234117216 228936560 221041200 210620560 198156048 
947.841 184308000 169840848 155517376 141943072 129581152 118713248 
950.734 109438040 101738000 95505000 90585440 86795072 83940624 81838568 
954.109 80303816 79173280 78316776 77632416 77059968 76573368 76169752 
957.484 75858912 75652400 75558424 75579720 75714952 75960296 76310272 
960.859 76755448 77282000 77873720 78512896 79185088 79882904 80605336 
964.233 81355376 82136024 82946840 83782840 84637872 85507952 86394616 
967.608 87304888 88248376 89232656 90261456 91335192 92455488 93630072 
970.983 94875504 96211776 97656296 99213088 100867424 102585944 104324816 
974.358 106045512 107724048 109359136 110969392 112588776 114255864 
977.251 116005144 117869408 119877752 122057176 124437112 127049368 
980.143 129932272 133146376 136780640 140962528 145853264 151596528 
983.036 158258880 165731344 173678048 181467216 188207920 192968128 
985.929 194901936 193544272 188966704 181785216 173002672 163689664 
988.821 154854816 147198352 141060528 136497264 133338704 131314352 
991.714 130124616 129525784 129340768 129443064 129749808 130195928 
994.607 130727304 131306944 131914528 132545800 133203416 133885536 
997.500 134576992 135252672 135883056 136448352 136945200 137385872 
1000.392 137789824 138171728 138536528 138879264 139193424 139480272 
1003.285 139753440 140035456 140349984 140710336 141115328 141551072 
1006.178 142002304 142460512 142930672 143427856 143969216 144563632 
1009.070 145206384 145880064 146563168 147240192 147905056 148561040 
1011.963 149213536 149862608 150500704 151116480 151702608 152264320 
1014.856 152822064 153407680 154053472 154784208 155614032 156548816 
1017.748 157595616 158772256 160107200 161638784 163407088 165443616 
1020.641 167773744 170417584 173393808 176718160 180386192 184349648 
1023.534 188477648 192540304 196229568 199165728 200997504 201481424 
1026.427 200532640 198261392 194940592 190964016 186732912 182606656 
1029.320 178863072 175653936 173029760 170954304 169338976 168065136 
1032.213 167009744 166073072 165175840 164269520 163334544 162369312 
1035.106 161384208 160392992 159412224 158460224 157559984 156743520 
1037.999 156049152 155518688 155196016 155118704 155319472 155825392 
1040.892 156653920 157808768 159266496 160968768 162806192 164616064 
1043.785 166214144 167404368 168029216 168012224 167370512 166219728 
1046.678 164735696 163136032 161623920 160352784 159425504 158879360 
1049.571 158700384 158837216 159220000 159772032 160414368 161078976 
1052.464 161706528 162246960 162663680 162928032 163018000 162919344 
1055.357 162623456 162130384 161449456 160598976 159602560 158481696 
1058.250 157252592 155921408 154486288 152941120 151282320 149513520 
1061.144 147647504 145703696 143704368 141672688 139628944 137591936 
1064.037 135580608 133612784 131705600 129872976 128122312 126455112 
1066.930 124867616 123354376 121911664 120539336 119240344 118019048 
1069.823 116877752 115814712 114824144 113898192 113028920 112210384 
1072.716 111438264 110709288 110018024 109356672 108715256 108083088 
1075.609 107452160 106818520 106182320 105547352 104918336 104301392 
1078.502 103702776 103131296 102598744 102119608 101709848 101384208 
1081.395 101152232 101019128 100984920 101047640 101205688 101459080 
1084.288 101809200 102256704 102798488 103426296 104125120 104875984 
1087.181 105657808 106448200 107227352 107976680 108680024 109326280 
1090.074 109911704 110442920 110938768 111430600 111959856 112569888 
1092.967 113306512 114213624 115330552 116700592 118369808 120388568 
1095.860 122816944 125716848 129147608 133159384 137776672 142981600 
1098.753 148685424 154718864 160804672 166545312 171488624 175141968 
1101.646 177065312 176987664 174846896 170832224 165322288 158841904 
1104.540 151943728 145097072 138686528 132952288 128001736 123848672 
1107.433 120434832 117666384 115429784 113615320 112122400 110857024 
1110.326 109743160 108717048 107725792 106731192 105704088 104623368 
1113.219 103477720 102264464 100991488 99675472 98341768 97019992 95736624 
1116.594 94515072 93371216 92313344 91344848 90465200 89671936 88960104 
1119.969 88322520 87748720 87225016 86736928 86270448 85813352 85357208 
1123.344 84895272 84422160 83932624 83421160 82883952 82320576 81735488 
1126.720 81139368 80546856 79976664 79448672 78981120 78592216 78298288 
1130.095 78113376 78050432 78119688 78328248 78680896 79180280 79829584 
1133.470 80634416 81604048 82752360 84097112 85655480 87443744 89473776 
1136.845 91752096 94279456 97050192 100052024 103262024 106643088 110145416 
1140.221 113697104 117208984 120579704 123687016 126400816 128589552 
1143.114 130118352 130875888 130789368 129842144 128088144 125653120 
1146.007 122729768 119536024 116304528 113256840 110566080 108367736 
1148.900 106749672 105753840 105390640 105646104 106492488 107892480 
1151.793 109805072 112191128 115007144 118206440 121733368 125505704 
1154.686 129409400 133290472 136935200 140098208 142511072 143899632 
1157.579 144043600 142794912 140109200 136061744 130845128 124752032 
1160.472 118109752 111267896 104541928 98164456 92301216 87034640 82377296 
1163.847 78294992 74722992 71586672 68807552 66316328 64055884 61977248 
1167.223 60044512 58231144 56518148 54895268 53357624 51905564 50542280 
1170.598 49273216 48106112 47050240 46118360 45326300 44690704 44226932 
1173.973 43942488 43831560 43867960 44004120 44177812 44312348 44334508 
1177.348 44188084 43838344 43282852 42549552 41694148 40786092 39899976 
1180.724 39108360 38467060 38016680 37779788 37760524 37945296 38303020 
1184.099 38788732 39340424 39884500 40347444 40655920 40752388 40604984 
1187.474 40209624 39593124 38804492 37911960 36987012 36093880 35287568 
1190.849 34603256 34058408 33655000 33384118 33230000 33174024 33198844 
1194.225 33288092 33426524 33602156 33803680 34021676 34249604 34482244 
1197.600 34715764 34947900 35176384 35399136 35614228 35819496 36013088 
1200.975 36193192 36358276 36505976 36634080 36740080 36820824 36873592 
1204.350 36895056 36881600 36829264 36733412 36589596 36394700 36148036 
1207.726 35852204 35514256 35145272 34758544 34369260 33992080 33638956 
1211.101 33319932 33042360 32810670 32628000 32496002 32414272 32381318 
1214.476 32394492 32449902 32543674 32672614 32833968 33025700 33245950 
1217.851 33493086 33765108 34060484 34378480 34719244 35084164 35474920 
1221.227 35892940 36338968 36812604 37312824 37838384 38388580 38962816 
1224.602 39561544 40185124 40833772 41507744 42207336 42933072 43686224 
1227.977 44468944 45284408 46136600 47030748 47972172 48966756 50019416 
1231.352 51133380 52308916 53542104 54825152 56145524 57487240 58832508 
1234.728 60160416 61449912 62680968 63834720 64897740 65863632 66735036 
1238.103 67524040 68251544 68946512 69641320 70371136 71172784 72079560 
1241.478 73122856 74330088 75721504 77311456 79107320 81110576 83318304 
1244.853 85725624 88328528 91123520 94108272 97280736 100636976 104171360 
1248.229 107877232 111746592 115771416 119942216 124243304 128651304 
1251.122 133128944 137620032 142053776 146335552 150343152 153934768 
1254.015 156932240 159129216 160321392 160307872 158935296 156129264 
1256.908 151902864 146364528 139695808 132148352 124005360 115553928 
1259.801 107088480 98862840 91080568 83897136 77399432 71621560 66555908 
1263.176 62165392 58395120 55180356 52456764 50158900 48224356 46600172 
1266.551 45237856 44097448 43148272 42363940 41723184 41208752 40804872 
1269.927 40497964 40277308 40133516 40059352 40048740 40095360 40193632 
1273.302 40337880 40522696 40744092 40999720 41289052 41612496 41971760 
1276.677 42368800 42804668 43279484 43791244 44335644 44904612 45486980 
1280.052 46070132 46640156 47185592 47699840 48182888 48642056 49090016 
1283.427 49542528 50012988 50508628 51028276 51562692 52096828 52614192 
1286.803 53103304 53560660 53993016 54415440 54849740 55319208 55845140 
1290.178 56445768 57135432 57924096 58819304 59825912 60944984 62173688 
1293.553 63503964 64922824 66411412 67947168 69505824 71060536 72585624 
1296.928 74057736 75456232 76767432 77985960 79115552 80167464 81159696 
1300.304 82113336 83048288 83984528 84940072 85931328 86974728 88084752 
1303.679 89271312 90537808 91877768 93274232 94697216 96107296 97456824 
1307.054 98686520 99732952 100528704 101003448 101098528 100771336 100003760 
1310.429 98806968 97220512 95309488 93149104 90824136 88419128 86006896 
1313.805 83655304 81422600 79357088 77506320 75915456 74625400 73673560 
1317.180 73081928 72849104 72939440 73280824 73767952 74263096 74625360 
1320.555 74722992 74448224 73741648 72590952 71033496 69141976 67017256 
1323.930 64773060 62512300 60329004 58294540 56453016 54828724 53427576 
1327.306 52243704 51264416 50473684 49854560 49388248 49056036 48839632 
1330.681 48720516 48682452 48710916 48791696 48912608 49061376 49226564 
1334.056 49399388 49573020 49744756 49915108 50087796 50268660 50464488 
1337.431 50683380 50934868 51230004 51583136 52009944 52525448 53142288 
1340.807 53866516 54695556 55615988 56602616 57617976 58608148 59510132 
1344.182 60253820 60767356 60993828 60895348 60460676 59707164 58680620 
1347.557 57450440 56096012 54705888 53363804 52135456 51071920 50203528 
1350.932 49541524 49084044 48818424 48725336 48780796 48959892 49239592 
1354.308 49598164 50017892 50483284 50977676 51483788 51980068 52440684 
1357.683 52839408 53148988 53345072 53410044 53332932 53111356 52751476 
1361.058 52269976 51694420 51061224 50417412 49811900 49286356 48870744 
1364.433 48576976 48401188 48328520 48339776 48416372 48542036 48705432 
1367.809 48897924 49113132 49345408 49589624 49840104 50091328 50337000 
1371.184 50570048 50783628 50972012 51133452 51272620 51403368 51547208 
1374.559 51727676 51967856 52282980 52679240 53157792 53718640 54365680 
1377.934 55110532 55972824 56977112 58150752 59515032 61080924 62840580 
1381.310 64763368 66786468 68812824 70727160 72395064 73684712 74487864 
1384.685 74717008 74323448 73306840 71734384 69745880 67535648 65333172 
1388.060 63337096 61681628 60433680 59597308 59143240 59027492 59208248 
1391.435 59648664 60317888 61193868 62259496 63500940 64906316 66458516 
1394.811 68131936 69892320 71698936 73508824 75282376 76978472 78557160 
1398.186 79981480 81218776 82249656 83071392 83697488 84150952 84456160 
1401.561 84635944 84708136 84685064 84572496 84364608 84040208 83561432 
1404.936 82885200 81972008 80803760 79394360 77790440 76065440 74303672 
1408.312 72602224 71059440 69767248 68818688 68291672 68239520 68687952 
1411.687 69629576 71032400 72846408 75019192 77498840 80230272 83159536 
1415.062 86224048 89349824 92465040 95493976 98365416 101022560 103421376 
1418.437 105537304 107360856 108902088 110178424 111203816 111987088 
1421.330 112528024 112819560 112848000 112599560 112065784 111248968 
1424.223 110167496 108851424 107334128 105636048 103756752 101673504 
1427.116 99352304 96763296 93902560 90804240 87548960 84252720 81038216 
1430.492 78023512 75300112 72923288 70916952 69272032 67954368 66911684 
1433.867 66086376 65430128 64912320 64534576 64332680 64367956 64696520 
1437.242 65339880 66268356 67407312 68651784 69876088 70952880 71744584 
1440.617 72122000 71995432 71325120 70140456 68527568 66618524 64560676 
1443.993 62486136 60513732 58729284 57185436 55912668 54921548 54211440 
1447.368 53773468 53590124 53631096 53849860 54192180 54600484 55022860 
1450.743 55424336 55787640 56116452 56432152 56768844 57165252 57656572 
1454.118 58275212 59051104 60015408 61197108 62611916 64242816 66028120 
1457.494 67869408 69660536 71312200 72758640 73950160 74840792 75395016 
1460.869 75582208 75372864 74739600 73649144 72070992 69995232 67466600 
1464.244 64611004 61617780 58709636 56068644 53788692 51881220 50299612 
1467.619 48980032 47865544 46919728 46122780 45464388 44934888 44523016 
1470.995 44217392 44014500 43922728 43962176 44155984 44520924 45064400 
1474.370 45786136 46687196 47774508 49058592 50551140 52258616 54178820 
1477.745 56303240 58619448 61116588 63780336 66592604 69528888 72549792 
1481.120 75608152 78653256 81631832 84495200 87194792 89675520 91879408 
1484.496 93744768 95210544 96232536 96787520 96880400 96537296 95803464 
1487.871 94733272 93379592 91802936 90072856 88268312 86478152 84780592 
1491.246 83222344 81807128 80492776 79203776 77839864 76296128 74475400 
1494.621 72302576 69745616 66828012 63634380 60285300 56907792 53603652 
1497.997 50437396 47443860 44643224 42051512 39684528 37554228 35661848 
1501.372 33999316 32548960 31285462 30179606 29196080 28292816 27416910 
1504.747 26510078 25521850 24430698 23273268 22143948 21155366 20378966 
1508.122 19818574 19426924 19142124 18911362 18700924 18497742 18302572 
1511.498 18123242 17967328 17838158 17734462 17651598 17584658 17529698 
1514.873 17484438 17447942 17421006 17406762 17411590 17443770 17509758 
1518.248 17611122 17741952 17888772 18032912 18158998 18261102 18352066 
1521.623 18458710 18611720 18830074 19112346 19442482 19798356 20162538 
1524.999 20525048 20887546 21260022 21655384 22081680 22538198 23016018 
1528.374 23501954 23983778 24451028 24896184 25311730 25685702 26001172 
1531.749 26236298 26371018 26397778 26333664 26222782 26118754 26067418 
1535.124 26088492 26173968 26298918 26431228 26541180 26602188 26596516 
1538.500 26516312 26368202 26173790 25964798 25777636 25639970 25564266 
1541.875 25547010 25572558 25618810 25664610 25697758 25717796 25738048 
1545.250 25777530 25853518 25971764 26125088 26295926 26464788 26619484 
1548.625 26758236 26892450 27041692 27225908 27456050 27731274 28042402 
1552.000 28379150 28737114 29120424 29541170 30014230 30551182 31154510 
1555.376 31817998 32528746 33275570 34049592 34850664 35691452 36604412 
1558.751 37636460 38818480 40160592 41640796 43220588 44872684 46582132 
1562.126 48346888 50170388 52060036 54020484 56041576 58099960 60156384 
1565.501 62158968 64056964 65800936 67340912 68629312 69613976 70246120 
1568.877 70496176 70368952 69909904 69189960 68285272 67254256 66129276 
1572.252 64924052 63639448 62268444 60805812 59253132 57632504 56013340 
1575.627 54517680 53305736 52533828 52291724 52590332 53383812 54607848 
1579.002 56210192 58163064 60466656 63141620 66221884 69747136 73757712 
1582.378 78288528 83362904 88985072 95128280 101731128 108679808 115813672 
1585.753 122932320 129775792 136055712 141475344 145756384 148727088 
1588.646 150373504 150881680 150591760 149943136 149385104 149252160 
1591.539 149742656 150877872 152518224 154373472 156042000 157091008 
1594.432 157060304 155558512 152345408 147358112 140750624 132842448 
1597.325 124071800 114886216 105677760 96786064 88452968 80839920 74037144 
1600.700 68050392 62814468 58203868 54072152 50275764 46705348 43308736 
1604.076 40083184 37061848 34287144 31797320 29614094 27742364 26176114 
1607.451 24901868 23900414 23143208 22593866 22211492 21951106 21773642 
1610.826 21648906 21554290 21475464 21400028 21313298 21198018 21032372 
1614.201 20793096 20461170 20026988 19498826 18906760 18299738 17731838 
1617.577 17242902 16851120 16553205 16333170 16168647 16036021 15912648 
1620.952 15776630 15611288 15408793 15173725 14922083 14676209 14456335 
1624.327 14271326 14119118 13988554 13867506 13746593 13621988 13494444 
1627.702 13368476 13248283 13137242 13037633 12952180 12883979 12837426 
1631.078 12815107 12816438 12835515 12861214 12878347 12870122 12822956 
1634.453 12731130 12601938 12455632 12320011 12219431 12165384 12155025 
1637.828 12176970 12217966 12264759 12307706 12341589 12365963 12385157 
1641.203 12406636 12438686 12486833 12551834 12628203 12704859 12767981 
1644.579 12802377 12796201 12745188 12656108 12546240 12440016 12362111 
1647.954 12328806 12345953 12409364 12508078 12625201 12736828 12813536 
1651.329 12817291 12710727 12477285 12148176 11806617 11541640 11400556 
1654.704 11373005 11419197 11496183 11573491 11635394 11677631 11704692 
1658.080 11724809 11745711 11770903 11798923 11823812 11838316 11835694 
1661.455 11811826 11767397 11707347 11641078 11579378 11532658 11507683 
1664.830 11506493 11525614 11556783 11589178 11608746 11602178 11560219 
1668.205 11480227 11368616 11240985 11118117 11018902 10956203 10934354 
1671.581 10949475 10991850 11047348 11099760 11132258 11130660 11089087 
1674.956 11015197 10930208 10859369 10823053 10827232 10864262 10919030 
1678.331 10976354 11026651 11069509 11112134 11164485 11232179 11310697 
1681.706 11382869 11420184 11392971 11281314 11092384 10867489 10668076 
1685.082 10542925 10504327 10532876 10594834 10660435 10708114 10727981 
1688.457 10720137 10690760 10649229 10605359 10568284 10545776 10543162 
1691.832 10562479 10599655 10644271 10678025 10679316 10629128 10521503 
1695.207 10372469 10221248 10114606 10080286 10117523 10198317 10283637 
1698.583 10331308 10311526 10218467 10081813 9957643 9896860 9921065 
1701.958 10016638 10152491 10295512 10421271 10515869 10575889 10607532 
1705.333 10624000 10640910 10670351 10718031 10783887 10864465 10955320 
1708.708 11052582 11154185 11258633 11364978 11472165 11578186 11680082 
1712.083 11774818 11858781 11929885 11987513 12031795 12062693 12078262 
1715.459 12072572 12036257 11960776 11843867 11694923 11536094 11396236 
1718.834 11297468 11249282 11245712 11270943 11304643 11327939 11328007 
1722.209 11299406 11244657 11171421 11090141 11009590 10934320 10866130 
1725.584 10804302 10747748 10695854 10647939 10602711 10558642 10514816 
1728.960 10472488 10435593 10409698 10398532 10400060 10404743 10393679 
1732.335 10342303 10230102 10051191 9827613 9604455 9433861 9346811 9342681 
1736.192 9397698 9479203 9558151 9611772 9628507 9608283 9561402 9503248 
1740.050 9449133 9408330 9382123 9367362 9359507 9355783 9356290 9362114 
1743.907 9374505 9393127 9416219 9440870 9464506 9485571 9503655 9519065 
1747.765 9532307 9542333 9547549 9545483 9534238 9514255 9489262 9466403 
1751.622 9455397 9464439 9497999 9555102 9629761 9711276 9787012 9846221 
1755.479 9881709 9894148 9892217 9890725 9904183 9940421 9998261 10067061 
1759.337 10131972 10177184 10191769 10173284 10128750 10072114 10020062 
1762.712 9986394 9977036 9990565 10020537 10058109 10094428 10121796 
1766.087 10135363 10133464 10119592 10100803 10086865 10085916 10100261 
1769.463 10125290 10148929 10156324 10133871 10075912 9989073 9892386 
1772.838 9809684 9758478 9744890 9762850 9800263 9844661 9889064 9931743 
1776.695 9975409 10023046 10075131 10127732 10174742 10209646 10230679 
1780.071 10241365 10250219 10266571 10295240 10334532 10376135 10409834 
1783.446 10426056 10421440 10399245 10368804 10341217 10325337 10325506 
1786.821 10341352 10369653 10406270 10447167 10488203 10523777 10546557 
1790.196 10548254 10521978 10465766 10386179 10298158 10219891 10167686 
1793.572 10149371 10163141 10200861 10252458 10309661 10367549 10424495 
1796.947 10480702 10536372 10590828 10642336 10689028 10730664 10768603 
1800.322 10806306 10848226 10897352 10955557 11022946 11098605 11181450 
1803.697 11271011 11366644 11467402 11572028 11678449 11784895 11890177 
1807.073 11993849 12095808 12195780 12292470 12382941 12464157 12533076 
1810.448 12588226 12630795 12664158 12691826 12717516 12742765 12767060 
1813.823 12788591 12805006 12814936 12818246 12815857 12808930 12798727 
1817.198 12785316 12768083 12745938 12718677 12686640 12651638 12615787 
1820.573 12580586 12546479 12512000 12473909 12427605 12369270 12296253 
1823.949 12209855 12115296 12021576 11939115 11875534 11833277 11807502 
1827.324 11788300 11761133 11712691 11635189 11529698 11407121 11285327 
1830.699 11182641 11110570 11070631 11055030 11051393 11047994 11036472 
1834.074 11014585 10984713 10952295 10921680 10895043 10871531 10849177 
1837.450 10826756 10805967 10790342 10784838 10793025 10814562 10844727 
1840.825 10874997 10894975 10893819 10863412 10800396 10708759 10600029 
1844.200 10491020 10399754 10338807 10312647 10317057 10342846 10378035 
1847.575 10412311 10440005 10460302 10476424 10493600 10515529 10542313 
1850.951 10571238 10597075 10615817 10627362 10635035 10644543 10661623 
1854.326 10688247 10722513 10759025 10791666 10816531 10833890 10847445 
1857.701 10861849 10880773 10904691 10930718 10954741 10974111 10988520 
1861.076 11000889 11015775 11035963 11062508 11093608 11126615 11158944 
1864.452 11190120 11220346 11249316 11274411 11289748 11287300 11261116 
1867.827 11208990 11137595 11059890 10992122 10947776 10932689 10944106 
1871.202 10973670 11012376 11052922 11091943 11129980 11168022 11206746 
1874.577 11245270 11280873 11310833 11334980 11354910 11374434 11397019 
1877.953 11424878 11458046 11494925 11533440 11572164 11611196 11650777 
1881.328 11690191 11727499 11759362 11782785 11796948 11804983 11812098 
1884.703 11825173 11849280 11884762 11927740 11970858 12006350 12028559 
1888.078 12036701 12033941 12027776 12026175 12035645 12059695 12099283 
1891.454 12152367 12215989 12286709 12360884 12435276 12507055 12575333 
1894.829 12640517 12705336 12773065 12846095 12925042 13008236 13092028 
1898.204 13173239 13249650 13320743 13388432 13455037 13522302 13591081 
1901.579 13661855 13734111 13809628 13891350 13983045 14088793 14211067 
1904.955 14350601 14506523 14677922 14864099 15065963 15284224 15518322 
1908.330 15764741 16016563 16263472 16493279 16693734 16853324 16961702 
1911.705 17010112 16992228 16904926 16749553 16531967 16263507 15958363 
1915.080 15630316 15293045 14956755 14628915 14318069 14033246 13785856 
1918.456 13586261 13440649 13346266 13291430 13259523 13231203 13191820 
1921.831 13135910 13067612 12999019 12944465 12915279 12914664 12939003 
1925.206 12979729 13027903 13078847 13130753 13184477 13240700 13297887 
1928.581 13351870 13398615 13435147 13461838 13482106 13500631 13520251 
1931.957 13540931 13559493 13571151 13572381 13562467 13543769 13520832 
1935.332 13497657 13476637 13458284 13442665 13429952 13421545 13419837 
1938.707 13424860 13433233 13439214 13435215 13415325 13379206 13332463 
1942.082 13284939 13247497 13226080 13219863 13222424 13224611 13218394 
1945.458 13202579 13180309 13158519 13143970 13141033 13148922 13165657 
1948.833 13187824 13213646 13243364 13277150 13312954 13346950 13372713 
1952.208 13384502 13380299 13362599 13336358 13309093 13285554 13265706 
1955.583 13246234 13222664 13191786 13155172 13119210 13091037 13076764 
1958.958 13078437 13091413 13108180 13122011 13128944 13129012 13125972 
1962.334 13122659 13121225 13120815 13119108 13113781 13104799 13092745 
1965.709 13079325 13065325 13050267 13032272 13011138 12988571 12969112 
1969.084 12958632 12961226 12977715 13005436 13038180 13070310 13098789 
1972.459 13124299 13149708 13179182 13215763 13260820 13315106 13380435 
1975.835 13459275 13554879 13666984 13790166 13913485 14023322 14108096 
1979.210 14163652 14194805 14211683 14228938 14256501 14298618 14351012 
1982.585 14407490 14459624 14504159 14543901 14583853 14630971 14688856 
1985.960 14756895 14830670 14906241 14979493 15048606 15114060 15174480 
1989.336 15227290 15269054 15296100 15307700 15308902 15308524 15315663 
1992.711 15337528 15374360 15418337 15460360 15490233 15502320 15498542 
1996.086 15485425 15470214 15459056 15452909 15447966 15438490 15419813 
1999.461 15389053 15347722 15298673 15244174 15184911 15121127 15051007 
2002.837 14976852 14902675 14833825 14776263 14732763 14701263 14678094 
2006.212 14658765 14641081 14626071 14617058 14615345 14620142 14626756 
2009.587 14628470 14619354 14598416 14568023 14535028 14505906 14484700 
2012.962 14470140 14459967 14448286 14432700 14414101 14395262 14380123 
2016.338 14371732 14370397 14374952 14385262 14402797 14429377 14467605 
2019.713 14515910 14569085 14618840 14656605 14677922 14684023 14682858 
2023.088 14684297 14697081 14724023 14760906 14798923 14828270 14843425 
2026.463 14844076 14835916 14826282 14820659 14821962 14827241 14833619 
2029.839 14839790 14846853 14859471 14882443 14917728 14962859 15011081 
2033.214 15052998 15079102 15084900 15068502 15032999 14984122 14928016 
2036.589 14869448 14813254 14761386 14716345 14678746 14649169 14626242 
2039.964 14609999 14599993 14596532 14601775 14616921 14641183 14672405 
2043.340 14705993 14736842 14762654 14784045 14803997 14828373 14861871 
2046.715 14905898 14957955 15012179 15060441 15096187 15115432 15116702 
2050.090 15101367 15072790 15033719 14988445 14941768 14898285 14862694 
2053.465 14838658 14825322 14819047 14813837 14803277 14783977 14757341 
2056.841 14728170 14704245 14691495 14692420 14703937 14720492 14734237 
2060.216 14740544 14738487 14730569 14720903 14712951 14706781 14699721 
2063.591 14688787 14671514 14647969 14621753 14597491 14579399 14569736 
2066.966 14568537 14573540 14582517 14593414 14604825 14615619 14624220 
2070.342 14628161 14625763 14616373 14601535 14585636 14573711 14569805 
2073.717 14574807 14587109 14601843 14614008 14620691 14621787 14619457 
2077.092 14617469 14617367 14619422 14621615 14621170 14616373 14607634 
2080.467 14598108 14591495 14591117 14598828 14613666 14634295 14658422 
2083.843 14684949 14713431 14743869 14774652 14804238 14828921 14845790 
2087.218 14853676 14853058 14846270 14836704 14827550 14820419 14816065 
2090.593 14814625 14816442 14823333 14838179 14863139 14899692 14947290 
2093.968 15003090 15063391 15124215 15182817 15238374 15292015 15344873 
2097.344 15399454 15458026 15522236 15593874 15674490 15764020 15862057 
2100.719 15967714 16079515 16196642 16320061 16450537 16589899 16738430 
2104.094 16894108 17052152 17207288 17353410 17486370 17605360 17711062 
2107.469 17804844 17888220 17959800 18016542 18054464 18070286 18063032 
2110.844 18034468 17988670 17930344 17863256 17789414 17709198 17622062 
2114.220 17527974 17427282 17322272 17214804 17106018 16996398 16885566 
2117.595 16772764 16658889 16545940 16436841 16334374 16240323 16154204 
2120.970 16073979 15997758 15923234 15849616 15777009 15705442 15634369 
2124.345 15563102 15490541 15416036 15341063 15268162 15200901 15142022 
2127.721 15092584 15050767 15014168 14979630 14945369 14912413 14882718 
2131.096 14858751 14842327 14833858 14832041 14837082 14849322 14870237 
2134.471 14902228 14946055 14999969 15060132 15120441 15175029 15220632 
2137.846 15255430 15279351 15293662 15299326 15295756 15284052 15265897 
2141.222 15244653 15225437 15214078 15212328 15220632 15236452 15255705 
2144.597 15277086 15301487 15331692 15370653 15419229 15472858 15523232 
2147.972 15561729 15580961 15579381 15561282 15534324 15506852 15484498 
2151.347 15467159 15451605 15433134 15408003 15376008 15340617 15306155 
2154.723 15277532 15258862 15254640 15271080 15316144 15399111 15525155 
2158.098 15692594 15888453 16091034 16277164 16427033 16531622 16593892 
2161.473 16625769 16640918 16652416 16668221 16689464 16715221 16742252 
2164.848 16767701 16788848 16803038 16806068 16794736 16768459 16729029 
2168.224 16683474 16641194 16610656 16596783 16598504 16607972 16614202 
2171.599 16608763 16587662 16553961 16516477 16485674 16469121 16470324 
2174.974 16485777 16508045 16530486 16547007 16553547 16550485 16538093 
2178.349 16517200 16490458 16461378 16434914 16417984 16416710 16433537 
2181.725 16467469 16511556 16555304 16590277 16609864 16612241 16600225 
2185.100 16579261 16553376 16526356 16499888 16474111 16450915 16432781 
2188.475 16422182 16421217 16429992 16445238 16463339 16479995 16492248 
2191.850 16500302 16506152 16511796 16519334 16529867 16542086 16555957 
2195.226 16571654 16589141 16608797 16630417 16650902 16667118 16676588 
2198.601 16677896 16673764 16669082 16669564 16679410 16699726 16728064 
2201.976 16759368 16789124 16814814 16836860 16858214 16882190 16910988 
2205.351 16944752 16981204 17018312 17055564 17094748 17139416 17193982 
2208.727 17261380 17341824 17433112 17530422 17629480 17725938 17818170 
2212.102 17904482 17984976 18060234 18129910 18194446 18254122 18309138 
2215.477 18360532 18408650 18453938 18495808 18534672 18569840 18601378 
2218.852 18629288 18652740 18669272 18675982 18668754 18644300 18601240 
2222.228 18540412 18464792 18379026 18286882 18191682 18095018 17997444 
2225.603 17899268 17802324 17708784 17621026 17541808 17471606 17409486 
2228.978 17353478 17301650 17252208 17204944 17160200 17118046 17078826 
2232.353 17042158 17007528 16975346 16946816 16923046 16905132 16893696 
2235.729 16887634 16886220 16888770 16894902 16905752 16922116 16943028 
2239.104 16965560 16984786 16994124 16988714 16966802 16930798 16887220 
2242.479 16844816 16810614 16789708 16783440 16789398 16803208 16821498 
2245.854 16840614 16858696 16875094 16888940 16899724 16906958 16911160 
2249.229 16913056 16914538 16917360 16921944 16928076 16934036 16938378 
2252.605 16941168 16943820 16949678 16962082 16983270 17012662 17047570 
2255.980 17083132 17114978 17139898 17157718 17169472 17177848 17185364 
2259.355 17192638 17199048 17202978 17202842 17198118 17189432 17178090 
2262.730 17165820 17154684 17145896 17140346 17138968 17142416 17150444 
2266.106 17163096 17178572 17195050 17210702 17224180 17234522 17242590 
2269.481 17248760 17253864 17258208 17261482 17262758 17261656 17258140 
2272.856 17252244 17244692 17235488 17223490 17208012 17187880 17162338 
2276.231 17132418 17100642 17069314 17041744 17019690 17003840 16993848 
2279.607 16988404 16985614 16983684 16980858 16975588 16966696 16953880 
2282.982 16937240 16918154 16898966 16881466 16867688 16858284 16852600 
2286.357 16849052 16846538 16844092 16842128 16842198 16845710 16853668 
2289.732 16866276 16882190 16899654 16917328 16934002 16949746 16964940 
2293.108 16980100 16995090 17009766 17023378 17035680 17047258 17059492 
2296.483 17073898 17091750 17113256 17137588 17163096 17188328 17212390 
2299.858 17235626 17259346 17284858 17313720 17346134 17381758 17419592 
2303.233 17458706 17498580 17539496 17582276 17627478 17675514 17726248 
2306.609 17778988 17833082 17887772 17942914 17997926 18052152 18104448 
2309.984 18153194 18196382 18232626 18260826 18281630 18296006 18306476 
2313.359 18315704 18326454 18341142 18361986 18390120 18426696 18471984 
2316.734 18525890 18587304 18655334 18728424 18804850 18883330 18962308 
2320.110 19040090 19114946 19184164 19244392 19292400 19325030 19340688 
2323.485 19339960 19325758 19303518 19279824 19261986 19256098 19266176 
2326.860 19293680 19336774 19391340 19451318 19510264 19562806 19605546 
2330.235 19637196 19659382 19675192 19687846 19700916 19716798 19736458 
2333.611 19760106 19787120 19816284 19846804 19878160 19909864 19942090 
2336.986 19974946 20008496 20042638 20076226 20107842 20135674 20157784 
2340.361 20172952 20180760 20182150 20177636 20166878 20147546 20113740 
2343.736 20057938 19972932 19854574 19705632 19537472 19369790 19225204 
2347.112 19125920 19089046 19122770 19226450 19391964 19605960 19851904 
2350.487 20112040 20371846 20619856 20849826 21059814 21251252 21426554 
2353.862 21586708 21731734 21860638 21972434 22067874 22149424 22220628 
2357.237 22284626 22343750 22397718 22445410 22485050 22515724 22537780 
2360.613 22552926 22562942 22569328 22572994 22573378 22569364 22560394 
2363.988 22545736 22524972 22497926 22463660 22420778 22367506 22302484 
2367.363 22225230 22136696 22038976 21934306 21825134 21712958 21598130 
2370.738 21480616 21360282 21236568 21110456 20983410 20856710 20732306 
2374.114 20611484 20494062 20380042 20268794 20159032 20050340 19942472 
2377.489 19835498 19729938 19626760 19526692 19430354 19338888 19252564 
2380.864 19172564 19100160 19036700 18984150 18944346 18918388 18906552 
2384.239 18908282 18921296 18942962 18970236 19000696 19032752 19066472 
2387.615 19102168 19141362 19185168 19234106 19288104 19347028 19410154 
2390.990 19476890 19547278 19620972 19697346 19775606 19854054 19930712 
2394.365 20003670 20071264 20132724 20188084 20238140 20284106 20327436 
2397.740 20369276 20410464 20451478 20492536 20533454 20573544 20612386 
2401.115 20648800 20681742 20711002 20736164 20757644 20776480 20793894 
2404.491 20811588 20830914 20852920 20878158 20906946 20938622 20972802 
2407.866 21009142 21047398 21087326 21129276 21173004 21218198 21264474 
2411.241 21311070 21357288 21403162 21449388 21497396 21549380 21607358 
2414.616 21672972 21746538 21827400 21913536 22003350 22094996 22187256 
2417.992 22280232 22374412 22470394 22569050 22670834 22775716 22883766 
2421.367 22995230 23110010 23228524 23350916 23476808 23605812 23737410 
2424.742 23870972 24006748 24144982 24285854 24430138 24578466 24731086 
2428.117 24888676 25052710 25224250 25405590 25598778 25805554 26027240 
2431.493 26264350 26516946 26784878 27068492 27367820 27683666 28016178 
2434.868 28365354 28730140 29109086 29499500 29897966 30300742 30702506 
2438.243 31096988 31477328 31835076 32161828 32449580 32691512 32882392 
2441.618 33019978 33103968 33136330 33120562 33061382 32963030 32830182 
2444.994 32667362 32478862 32269738 32045520 31811650 31573630 31336560 
2448.369 31103502 30876718 30656882 30444194 30239282 30043272 29858460 
2451.744 29687352 29533474 29398726 29284364 29190940 29117484 29062994 
2455.119 29026684 29007978 29006846 29023388 29057220 29107458 29172868 
2458.495 29251580 29341860 29442656 29553122 29672522 29800294 29935698 
2461.870 30077184 30224220 30376282 30534048 30699732 30876684 31068228 
2465.245 31277948 31508536 31760604 32034214 32327882 32639998 32968678 
2468.620 33312346 33670180 34041744 34426788 34824956 35235996 35659548 
2471.996 36094096 36538592 36992060 37453592 37923384 38402916 38894608 
2475.371 39401952 39928596 40477700 41051832 41651992 42277484 42925832 
2478.746 43593128 44273344 44958776 45641056 46309524 46952216 47557004 
2482.121 48109332 48593656 48993980 49292884 49473384 49521844 49427080 
2485.497 49183444 48790396 48252716 47579332 46782760 45879220 44886608 
2488.872 43824672 42715784 41580516 40439916 39313144 38215888 37161200 
2492.247 36159592 35218208 34342436 33535108 32797914 32130144 31530234 
2495.622 30995450 30521820 30105558 29742276 29427658 29157808 28928180 
2498.998 28734460 28572392 28436984 28323618 28228140 28146856 28077146 
2502.373 28017450 27966420 27923060 27886244 27854058 27824030 27793862 
2505.748 27761472 27725094 27684302 27639206 27590762 27540064 27488172 
2509.123 27435084 27380912 27324520 27264646 27200438 27131374 27057560 
2512.499 26980304 26901616 26823542 26748474 26678284 26613532 26554528 
2515.874 26500428 26450138 26402884 26358028 26315322 26275052 26237564 
2519.249 26203108 26171716 26143668 26118614 26096446 26076566 26058340 
2522.624 26040644 26022034 26000820 25975668 25945944 25911828 25874760 
2526.000 25836710 25800000 25767124 25739560 25718220 25703280 25694806 
2529.375 25692100 25694454 25701346 25712206 25726130 25742828 25762060 
2532.750 25783508 25807734 25834880 25864702 25896952 25930364 25963602 
2536.125 25995614 26025762 26054084 26081526 26109218 26137792 26167352 
2539.500 26197088 26225350 26250130 26270264 26284696 26293954 26299340 
2542.876 26302616 26305396 26309656 26315886 26324442 26334896 26346338 
2546.251 26357888 26368660 26378130 26386404 26394856 26404574 26417708 
2549.626 26436088 26461304 26493772 26533430 26579150 26628998 26681632 
2553.001 26735190 26788474 26840846 26892098 26941946 26990740 27038730 
2556.377 27086372 27134478 27184142 27235928 27290930 27349468 27411368 
2559.752 27475782 27541688 27607498 27672260 27735510 27797360 27858828 
2563.127 27921754 27986984 28055656 28127906 28202610 28278212 28352976 
2566.502 28425454 28494936 28562128 28627882 28693928 28761542 28831752 
2569.878 28904664 28980174 29057680 29136724 29217448 29299748 29383410 
2573.253 29468542 29554648 29640914 29727160 29813246 29899918 29988596 
2576.628 30080948 30178826 30283370 30395258 30514070 30639282 30769792 
2580.003 30904754 31044062 31187580 31335350 31487908 31645120 31806946 
2583.379 31973366 32144808 32321706 32505498 32698120 32901660 33118236 
2586.754 33349664 33596856 33860128 34139336 34433208 34739988 35057836 
2590.129 35383892 35715088 36047972 36378812 36703592 37018152 37318240 
2593.504 37599460 37857472 38088076 38287208 38452180 38581332 38674660 
2596.880 38733812 38761452 38760548 38733884 38683788 38611680 38519160 
2600.255 38407948 38280224 38138932 37987208 37827540 37662332 37493144 
2603.630 37320444 37145212 36968072 36790024 36612412 36436536 36263532 
2607.005 36094344 35929868 35770884 35618760 35474664 35339464 35213752 
2610.381 35097492 34989560 34888760 34793940 34704096 34619120 34539320 
2613.756 34464812 34395944 34332400 34274020 34220420 34172528 34131628 
2617.131 34100016 34080164 34073780 34082024 34104676 34140268 34187084 
2620.506 34243580 34309020 34383608 34468396 34564760 34674276 34797780 
2623.882 34935796 35087828 35253316 35430876 35618868 35815428 36018200 
2627.257 36224924 36433436 36641724 36848092 37050984 37248992 37440224 
2630.632 37622840 37794644 37953540 38097444 38224464 38332952 38421376 
2634.007 38488024 38531472 38549828 38542008 38506996 38444868 38356152 
2637.383 38242264 38105404 37948260 37773716 37585224 37386596 37181560 
2640.758 36974240 36768352 36567212 36373768 36190348 36018740 35860196 
2644.133 35715408 35585024 35469384 35368936 35283504 35213252 35158060 
2647.508 35117644 35091888 35080716 35084056 35101800 35133956 35179796 
2650.884 35238296 35308268 35387380 35473516 35564420 35657676 35751636 
2654.259 35845080 35937244 36027848 36117032 36205112 36292276 36379136 
2657.634 36465792 36552832 36640460 36729192 36819492 36911828 37006856 
2661.009 37105152 37207332 37314592 37427332 37546676 37672848 37806104 
2664.385 37945728 38091224 38241540 38395456 38552544 38712044 38873920 
2667.760 39038172 39204956 39374528 39547352 39723372 39902952 40086204 
2671.135 40273092 40463664 40658032 40856412 41059184 41267044 41480620 
2674.510 41700352 41926072 42157160 42392036 42628784 42865592 43101396 
2677.885 43335492 43568072 43799600 44030340 44260760 44490232 44718180 
2681.261 44944076 45167404 45388164 45606572 45823028 46037892 46251432 
2684.636 46463820 46675536 46887724 47101496 47318808 47540700 47768296 
2688.011 48001596 48240424 48483792 48731528 48983556 49240444 49503424 
2691.386 49773848 50053212 50342544 50642568 50953608 51275456 51607764 
2694.762 51950004 52300956 52659712 53025320 53396852 53773616 54155288 
2698.137 54540900 54929936 55321016 55712748 56104044 56493884 56882184 
2701.512 57269128 57655288 58040836 58425668 58809140 59189756 59566068 
2704.887 59936624 60299956 60654984 61001188 61337748 61664136 61980424 
2708.263 62286644 62583328 62871100 63150020 63419676 63679004 63925920 
2711.638 64158388 64375028 64574748 64757252 64923128 65072484 65205484 
2715.013 65321772 65420800 65501668 65563424 65605624 65627628 65628440 
2718.388 65606588 65560080 65486796 65384708 65252388 65088996 64895004 
2721.764 64670868 64417912 64137952 63832380 63503236 63152544 62782608 
2725.139 62395692 61994944 61583108 61163920 60741784 60321164 59906992 
2728.514 59504088 59116776 58748248 58401144 58076892 57776496 57501044 
2731.889 57251552 57028568 56833312 56666152 56526564 56414000 56326436 
2735.265 56261828 56217812 56192020 56182252 56186924 56204612 56234064 
2738.640 56274420 56324744 56383892 56451092 56525284 56605636 56692276 
2742.015 56785988 56888264 57002008 57129952 57275140 57439356 57623388 
2745.390 57826876 58048148 58285140 58535872 58798668 59072360 59356104 
2748.766 59649044 59950508 60258920 60573304 60891992 61214200 61538860 
2752.141 61865480 62193072 62521072 62848196 63173196 63494532 63810652 
2755.516 64119556 64419068 64707248 64981692 65239980 65480708 65702520 
2758.891 65905200 66088840 66253960 66401608 66533008 66649848 66754708 
2762.267 66850424 66940756 67029016 67118336 67210080 67304424 67399456 
2765.642 67491872 67577184 67650320 67705728 67737760 67741784 67713440 
2769.017 67650088 67550088 67413888 67242528 67038604 66805324 66545716 
2772.392 66262872 65960272 65640576 65307260 64963220 64611540 64255184 
2775.768 63897052 63539980 63187376 62842496 62508440 62188448 61884892 
2779.143 61599336 61332936 61086036 60858680 60650828 60462088 60291660 
2782.518 60138040 59998816 59871052 59751192 59636536 59524416 59412976 
2785.893 59300916 59186568 59067576 58941224 58803788 58651572 58481924 
2789.269 58293024 58084240 57855948 57609012 57344028 57062124 56764088 
2792.644 56450940 56124368 55786852 55440936 55089656 54735844 54382088 
2796.019 54030464 53683020 53340952 53005364 52676696 52354704 52038596 
2799.394 51727860 51421680 51120556 50825268 50537404 50259212 49993060 
2802.770 49740444 49503168 49282084 49077516 48889948 48719368 48565528 
2806.145 48427708 48305704 48198508 48105816 48027316 47962960 47912564 
2809.520 47876416 47853924 47844640 47848228 47864360 47892884 47934176 
2812.895 47988308 48054884 48133248 48221356 48316704 48416708 48518732 
2816.271 48620892 48722184 48822204 48920764 49018124 49114688 49210572 
2819.646 49306100 49401760 49498264 49596380 49696824 49800564 49908824 
2823.021 50023320 50145952 50278892 50423960 50583040 50757184 50947124 
2826.396 51153580 51377408 51620492 51884840 52172932 52486448 52825940 
2829.771 53190144 53575652 53977520 54388512 54801320 55207032 55596064 
2833.147 55959516 56287888 56573892 56812424 57001288 57141140 57235220 
2836.522 57287952 57304100 57288144 57243988 57175420 57087064 56985084 
2839.897 56876028 56767528 56667056 56580460 56512564 56467316 56447584 
2843.272 56457052 56500036 56580912 56703976 56872664 57087668 57347128 
2846.648 57646168 57976684 58327432 58685020 59034364 59358992 59643756 
2850.023 59875656 60044928 60147860 60185688 60165100 60096676 59993496 
2853.398 59870292 59740620 59617948 59513776 59437444 59396180 59394624 
2856.773 59435388 59518756 59643456 59807280 60007268 60239772 60501352 
2860.149 60787632 61094236 61416516 61749536 62088896 62430236 62769092 
2863.524 63100664 63419760 63720016 63995100 64239324 64448356 64619728 
2866.899 64753288 64850680 64914240 64946868 64951488 64930828 64888036 
2870.274 64826988 64751668 64666876 64577096 64486064 64397468 64314628 
2873.650 64240820 64180276 64137608 64117752 64125164 64163148 64232984 
2877.025 64334452 64465880 64624652 64807712 65012404 65236056 65475776 
2880.400 65729304 65993868 66266656 66545716 66829132 67115240 67403288 
2883.775 67692176 67981304 68270424 68559272 68848000 69136576 69425456 
2887.151 69714416 70003176 70291232 70578272 70864136 71149128 71433928 
2890.526 71718704 72004032 72289032 72572784 72854008 73131528 73404208 
2893.901 73670856 73930280 74180424 74419000 74643184 74850320 75038648 
2897.276 75206848 75354416 75481264 75586616 75670224 75731168 75769312 
2900.652 75785248 75780872 75758424 75720472 75669520 75606928 75533664 
2904.027 75450400 75358680 75260712 75159688 75059600 74964024 74875832 
2907.402 74797136 74729288 74673208 74630160 74601672 74589560 74595376 
2910.777 74619888 74662584 74721064 74791984 74870040 74948672 75020768 
2914.153 75077840 75111912 75115808 75083864 75013048 74903464 74757776 
2917.528 74580664 74377240 74152800 73911312 73654960 73384352 73098752 
2920.903 72795816 72472776 72126968 71756152 71359520 70938520 70496728 
2924.278 70039496 69573488 69105376 68641152 68184816 67739344 67305744 
2927.654 66884592 66475972 66079624 65695696 65323584 64962612 64612196 
2931.029 64271628 63940584 63619496 63309148 63010512 62724448 62451356 
2934.404 62191048 61942932 61706264 61479992 61263300 61055220 60854408 
2937.779 60659552 60469052 60281152 60095116 59910724 59728304 59548856 
2941.155 59373312 59202516 59036792 58876184 58720368 58569128 58422408 
2944.530 58280060 58141740 58007168 57875632 57746144 57618240 57491516 
2947.905 57366032 57242744 57122776 57008056 56900500 56802420 56716328 
2951.280 56644708 56590088 56554872 56541208 56551248 56586992 56649768 
2954.656 56740488 56858540 57001708 57164612 57339148 57514472 57677420 
2958.031 57815408 57916524 57971916 57976724 57930608 57836908 57701752 
2961.406 57533916 57342968 57138268 56929472 56725048 56532036 56356808 
2964.781 56203744 56076108 55975724 55903360 55858516 55839224 55842800 
2968.156 55864508 55898688 55939048 55978512 56010404 56029136 56030380 
2971.532 56011080 55970180 55907244 55822644 55717684 55593808 55452760 
2974.907 55296704 55128028 54949376 54763468 54572640 54378520 54182272 
2978.282 53984312 53784000 53581016 53374932 53165952 52955356 52745304 
2981.657 52538388 52337772 52146592 51967180 51801732 51651576 51517284 
2985.033 51398928 51296036 51207264 51131220 51066180 51011064 50965416 
2988.408 50930284 50907408 50899396 50908636 50936468 50983452 51049036 
2991.783 51132708 51234480 51355740 51499080 51668144 51865876 52093016 
2995.158 52346596 52619580 52899212 53168876 53410228 53603204 53729776 
2998.534 53777064 53737728 53612840 53412324 53155280 52866392 52574064 
3001.909 52308544 52095000 51953664 51897052 51928456 52042516 52224456 
3005.284 52453660 52702360 52939220 53133976 53257716 53288052 53212696 
3008.659 53029400 52746504 52380348 51953700 51490576 51013300 50542428 
3012.035 50093184 49676396 49299196 48964824 48673332 48422448 48208172 
3015.410 48025424 47868764 47733860 47617156 47516268 47429816 47356424 
3018.785 47294648 47243180 47200000 47163764 47133660 47108880 47088864 
3022.160 47073320 47061172 47050940 47041340 47031188 47019592 47006744 
3025.536 46993232 46979684 46966872 46955356 46945128 46936304 46929108 
3028.911 46923164 46918512 46914600 46910576 46905516 46898432 46888760 
3032.286 46876392 46861628 46844800 46826016 46804980 46781100 46753500 
3035.661 46721876 46685684 46645284 46601092 46553804 46503904 46452020 
3039.037 46398924 46345504 46293048 46242552 46194784 46150272 46108520 
3042.412 46069024 46031488 45996048 45963448 45934868 45911224 45892808 
3045.787 45879112 45868612 45859888 45851860 45844828 45839816 45839008 
3049.162 45844308 45857200 45877892 45905956 45940136 45979876 46024780 
3052.538 46075144 46131732 46195520 46267132 46347492 46437380 46537796 
3055.913 46650376 46776488 46916848 47070884 47236532 47409600 47583808 
3059.288 47752316 47906608 48037492 48135948 48192548 48198104 48145388 
3062.663 48028756 47845972 47598672 47292760 46937856 46545504 46129488 
3066.039 45703448 45279296 44867908 44477936 44115344 43784320 43487052 
3069.414 43224104 42994380 42795784 42625716 42480668 42357328 42252468 
3072.789 42163188 42086740 42021800 41967160 41922128 41886404 41859404 
3076.164 41839372 41824272 41810988 41796396 41777680 41753276 41723000 
3079.540 41687844 41649836 41611364 41574388 41540740 41511424 41487584 
3082.915 41469756 41458780 41454880 41458056 41467092 41479636 41492756 
3086.290 41502128 41503152 41491008 41460968 41409172 41332604 41230140 
3089.665 41102744 40953728 40788384 40613496 40435952 40262476 40097760 
3093.041 39944580 39803620 39674580 39556064 39446980 39346336 39253808 
3096.416 39168768 39090376 39017184 38946940 38877504 38806704 38732728 
3099.791 38654848 38573364 38489328 38404112 38319776 38237524 38158184 
3103.166 38081748 38007420 37933760 37859356 37782896 37703420 37620816 
3106.542 37535368 37447488 37357528 37266284 37173800 37080540 36987228 
3109.917 36894656 36803660 36715096 36629284 36546016 36464604 36383964 
3113.292 36303408 36222796 36142236 36062268 35983500 35906188 35829860 
3116.667 35754192 35678324 35601784 35524896 35447956 35371096 35294860 
3120.042 35219072 35143188 35066744 34989412 34910912 34831776 34752552 
3123.418 34673628 34595328 34517904 34441172 34365320 34290944 34218844 
3126.793 34149836 34084712 34023252 33964704 33907808 33851100 33793260 
3130.168 33733772 33672580 33610352 33548206 33487004 33427596 33370380 
3133.543 33315494 33263050 33212722 33164620 33118806 33075184 33033456 
3136.919 32993454 32954380 32915454 32875638 32833788 32789086 32740742 
3140.294 32688760 32633606 32576028 32517388 32458972 32401774 32346550 
3143.669 32293618 32242936 32194510 32147910 32103098 32060004 32018732 
3147.044 31979178 31941622 31905926 31872158 31840138 31809404 31779316 
3150.420 31749372 31718504 31685856 31651284 31614896 31576910 31538106 
3153.795 31499132 31460300 31421862 31383752 31346072 31308818 31272818 
3157.170 31238850 31207946 31181068 31158532 31140092 31124894 31111902 
3160.545 31099798 31087626 31074456 31060042 31044562 31028190 31011678 
3163.921 30995842 30981678 30969972 30961502 30956700 30955952 30959368 
3167.296 30967196 30979900 30998298 31023564 31056696 31098946 31151128 
3170.671 31213784 31287062 31371284 31466852 31573988 31693660 31826164 
3174.046 31972438 32133282 32309536 32502390 32712802 32941762 33189904 
3177.422 33457298 33742476 34043212 34356208 34677072 35001084 35323756 
3180.797 35640520 35946572 36237528 36508320 36753496 36968072 37147020 
3184.172 37286648 37384936 37441564 37458392 37438240 37385728 37305460 
3187.547 37203004 37083968 36953784 36818336 36683076 36552076 36428388 
3190.923 36312704 36204392 36101224 36000528 35900036 35798196 35694256 
3194.298 35587900 35479596 35369116 35256156 35140528 35022380 34902044 
3197.673 34780876 34660852 34543628 34430664 34323468 34222180 34127540 
3201.048 34039952 33959508 33886420 33820692 33761600 33708280 33659760 
3204.424 33615292 33574840 33539046 33508514 33483818 33464848 33450712 
3207.799 33439976 33431496 33424590 33419438 33417504 33420186 33428452 
3211.174 33442412 33461090 33482492 33505290 33528414 33552002 33576952 
3214.549 33604696 33635736 33670104 33706736 33744052 33780544 33815680 
3217.925 33849852 33884060 33920060 33958828 34000784 34045684 34092884 
3221.300 34141628 34191596 34242828 34295716 34350724 34407960 34466964 
3224.675 34527052 34586860 34645280 34701336 34754848 34805932 34855832 
3228.050 34905776 34957596 35012864 35072668 35137440 35206748 35279440 
3231.426 35353984 35429256 35504152 35578480 35652640 35726956 35801904 
3234.801 35877216 35952868 36028032 36102232 36175220 36247144 36318320 
3238.176 36389296 36460784 36533584 36608268 36685456 36765648 36848992 
3241.551 36934880 37022156 37109012 37193832 37275420 37353844 37430440 
3244.927 37507772 37588476 37674616 37767068 37865028 37966232 38068360 
3248.302 38169140 38267448 38363496 38458228 38553268 38649816 38748300 
3251.677 38848516 38949840 39051368 39152884 39254676 39357256 39461348 
3255.052 39567208 39674396 39782052 39888644 39992860 40093724 40190868 
3258.427 40284796 40376604 40467376 40558636 40651336 40745872 40842180 
3261.803 40939712 41037480 41134688 41230316 41323780 41414640 41502932 
3265.178 41587988 41670188 41749632 41826860 41902680 41978292 42054980 
3268.553 42133796 42215076 42298268 42381548 42462764 42538916 42608060 
3271.928 42669064 42722328 42770080 42814908 42859668 42906300 42955640 
3275.304 43006708 43057816 43107180 43152956 43195080 43233836 43270808 
3278.679 43307380 43344828 43383200 43421904 43460100 43496796 43531480 
3282.054 43564008 43594776 43624488 43653284 43681532 43709052 43735728 
3285.429 43761232 43785308 43807888 43828888 43847944 43864696 43878700 
3288.805 43889916 43898240 43904324 43908796 43912096 43915100 43917848 
3292.180 43920308 43922836 43925696 43929180 43934168 43941132 43950480 
3295.555 43962176 43975596 43989856 44004012 44016952 44027956 44036388 
3298.930 44041960 44044604 44044276 44041412 44036572 44030596 44024584 
3302.306 44019156 44015304 44013692 44014500 44018200 44024840 44033820 
3305.681 44044640 44056776 44068956 44080616 44091764 44102584 44114284 
3309.056 44128296 44145900 44167724 44193916 44223008 44254004 44285300 
3312.431 44315940 44345992 44376232 44407940 44442260 44480212 44521912 
3315.807 44566668 44614032 44662764 44712192 44761888 44811956 44862656 
3319.182 44914676 44968440 45024632 45083404 45144760 45208220 45272936 
3322.557 45338144 45402920 45466744 45529552 45591116 45651696 45711104 
3325.932 45768536 45823544 45875244 45923192 45967500 46008608 46047476 
3329.308 46084608 46120276 46154620 46187008 46217008 46244208 46268716 
3332.683 46290392 46309304 46325188 46337060 46343916 46344800 46339456 
3336.058 46328212 46312212 46293160 46272112 46249848 46226404 46200680 
3339.433 46171092 46136304 46094628 46045744 45989528 45926984 45859112 
3342.809 45787348 45712432 45634948 45554536 45470460 45381948 45288492 
3346.184 45190608 45089396 44987072 44885656 44786868 44691332 44598500 
3349.559 44507012 44415248 44322108 44227080 44130752 44034116 43937868 
3352.934 43842264 43746868 43650424 43552068 43450944 43347248 43242000 
3356.310 43136340 43031108 42926780 42823428 42720392 42617564 42514796 
3359.685 42412748 42312076 42213760 42118136 42025452 41935228 41846816 
3363.060 41759444 41672412 41585328 41497788 41409612 41320940 41232032 
3366.435 41143216 41055288 40968476 40882952 40798356 40714180 40629760 
3369.811 40544776 40459296 40373804 40288868 40204788 40121596 40038528 
3373.186 39954824 39869792 39783576 39696724 39610656 39526960 39446508 
3376.561 39369736 39295992 39224104 39152736 39081388 39009424 38937736 
3379.936 38866636 38796668 38727580 38658724 38588976 38517060 38442804 
3383.312 38366248 38288544 38211148 38135716 38063696 37995920 37933144 
3386.687 37874932 37821576 37772596 37727708 37686108 37646832 37607844 
3390.062 37567484 37523088 37472916 37415992 37352252 37283252 37210908 
3393.437 37137236 37063904 36991196 36918648 36845316 36770552 36694648 
3396.813 36618756 36545332 36476676 36414768 36359896 36311044 36265948 
3400.188 36221716 36175836 36126860 36073968 36017628 35958268 35896436 
3403.563 35832520 35766496 35699044 35630552 35561864 35493580 35425840 
3406.938 35358336 35289972 35219716 35146384 35069904 34990668 34910264 
3410.313 34830668 34753308 34678976 34607204 34536916 34465956 34392288 
3413.689 34314572 34231856 34144780 34054784 33964132 33875176 33789748 
3417.064 33708384 33630332 33554006 33477054 33397142 33312884 33224240 
3420.439 33132256 33038680 32945442 32854054 32765466 32679472 32596104 
3423.814 32514748 32435194 32357190 32280446 32204110 32127682 32050018 
3427.190 31970512 31888776 31804770 31718932 31631074 31541530 31449970 
3430.565 31356540 31261780 31166364 31071930 30979580 30890522 30804790 
3433.940 30721708 30640526 30560318 30481120 30403574 30328704 30257116 
3437.315 30189340 30124238 30059856 29994276 29925228 29851648 29773502 
3440.691 29692070 29608740 29526062 29445528 29368484 29294962 29224146 
3444.066 29154016 29082054 29004934 28920918 28829026 28730742 28629438 
3447.441 28529398 28435076 28348730 28270856 28199216 28130276 28060710 
3450.816 27987516 27910164 27828658 27744484 27658628 27572226 27485206 
3454.192 27397356 27309136 27221392 27135536 27052694 26973780 26897738 
3457.567 26823154 26747912 26670428 26590246 26507684 26423940 26340564 
3460.942 26258084 26176924 26096550 26016264 25935606 25854222 25772080 
3464.317 25689148 25605596 25521324 25436716 25353178 25271904 25194578 
3467.693 25121830 25053026 24985740 24916642 24842502 24761288 24672480 
3471.068 24578326 24481630 24385590 24292618 24203728 24118328 24034762 
3474.443 23952300 23869572 23787248 23705774 23626244 23549350 23474954 
3477.818 23403192 23333330 23264634 23196018 23126610 23054590 22979230 
3481.194 22899658 22816886 22732244 22648318 22567444 22490738 22418162 
3484.569 22348110 22277720 22204064 22125154 22040648 21951524 21860466 
3487.944 21770436 21683944 21603214 21529394 21462862 21403024 21348934 
3491.319 21299064 21251672 21204698 21156862 21106666 21053832 20997596 
3494.695 20938378 20876004 20810684 20743184 20674514 20606376 20540854 
3498.070 20479752 20424078 20373166 20324554 20274420 20218840 20154486 
3501.445 20080114 19997114 19908928 19820064 19735626 19659382 19593724 
3504.820 19538648 19492660 19452426 19413860 19372492 19324198 19266074 
3508.196 19197670 19120450 19038844 18958226 18884196 18820662 18768486 
3511.571 18725900 18689058 18653846 18616528 18575442 18530868 18484154 
3514.946 18437100 18391056 18346016 18301258 18256368 18210756 18164836 
3518.321 18120064 18077746 18038680 18002174 17966224 17927790 17883488 
3521.697 17831080 17769946 17701398 17628788 17555952 17486750 17423386 
3525.072 17366306 17314168 17264276 17214666 17162992 17109292 17053598 
3528.447 16997260 16940858 16884876 16829144 16773969 16719595 16667739 
3531.822 16620331 16579503 16545562 16517786 16492626 16465610 16432712 
3535.198 16391350 16341737 16286554 16230693 16178586 16133362 16095709 
3538.573 16064696 16037431 16011853 15986035 15960116 15934611 15910551 
3541.948 15888555 15867729 15845975 15820270 15786974 15743269 15687166 
3545.323 15618260 15538204 15451193 15362963 15279899 15207901 15150907 
3548.698 15109017 15079720 15057663 15037012 15012316 14980899 14942831 
3552.074 14901131 14859607 14822750 14792752 14769887 14752850 14739207 
3555.449 14726628 14713774 14699790 14684160 14666407 14646084 14622233 
3558.824 14594579 14562986 14528895 14494601 14463153 14437461 14420369 
3562.199 14413381 14415779 14424239 14432734 14433009 14414581 14368718 
3565.575 14288859 14175189 14034717 13882216 13736436 13613407 13524592 
3568.950 13472365 13452712 13456165 13472468 13493043 13511398 13524148 
3572.325 13529856 13528693 13521072 13507364 13488394 13464983 13438496 
3575.700 13410815 13383716 13358567 13336153 13316097 13298091 13281078 
3579.076 13264852 13248351 13231237 13213783 13196773 13181710 13171190 
3582.451 13168116 13174469 13190897 13214397 13239163 13256038 13254262 
3585.826 13224235 13160466 13064813 12946137 12820942 12707554 12621244 
3589.201 12570763 12556369 12572263 12607464 12650274 12690119 12718881 
3592.577 12731846 12728128 12709260 12679032 12641404 12600983 12560871 
3595.952 12523936 12492187 12467089 12448676 12436128 12426650 12416762 
3599.327 12402783 12382396 12354918 12323352 12292095 12267485 12254738 
3602.702 12257432 12276040 12308286 12349566 12393272 12431799 12457200 
3606.078 12462009 12439913 12388499 12310569 12214148 12112264 12019362 
3609.453 11946199 11897158 11868928 11852889 11838384 11817172 11787449 
3612.828 11754256 11727737 11718750 11734409 11774444 11831473 11892288 
3616.203 11942248 11968916 11963909 11925492 11858099 11772707 11682874 
3619.579 11602722 11543955 11512855 11509929 11531467 11570972 11621781 
3622.954 11678789 11740264 11807469 11883060 11968575 12060036 12145927 
3626.329 12207163 12218340 12154889 12003216 11771993 11496694 11230275 
3629.704 11025460 10910875 10885224 10925010 10997933 11074778 11134298 
3633.080 11168226 11178459 11174515 11167307 11164485 11168158 11175433 
3636.455 11180771 11180600 11174243 11165472 11159658 11161460 11172781 
3639.830 11192058 11215212 11237755 11257409 11275976 11298590 11332157 
3643.205 11382630 11452773 11539735 11635904 11728350 11803077 11844854 
3646.581 11841279 11784725 11673581 11513501 11315186 11094933 10873604 
3649.956 10672660 10514544 10416485 10387232 10425106 10517464 10644170 
3653.331 10779031 10896198 10972922 10993346 10955081 10869663 10762999 
3656.706 10664103 10597517 10576059 10597618 10651029 10720102 10790749 
3660.082 10851386 10895756 10922155 10932418 10930752 10922427 10914001 
3663.457 10911759 10921544 10948285 10994399 11058667 11136440 11218647 
3666.832 11292843 11342768 11352495 11307976 11203720 11047382 10864975 
3670.207 10696567 10582577 10551887 10609298 10737049 10898270 11047824 
3673.583 11142388 11145788 11043814 10852609 10621623 10413296 10275155 
3676.958 10224911 10248048 10315021 10394257 10465087 10519670 10560782 
3680.333 10598025 10640400 10692798 10754032 10819793 10886039 10952295 
3683.708 11021926 11099795 11188013 11282709 11372256 11439743 11465462 
3687.083 11433620 11338279 11188149 11004390 10814222 10643524 10507484 
3690.459 10411157 10352279 10326965 10331139 10361305 10413974 10483689 
3693.834 10562208 10641011 10711544 10768637 10810927 10841534 10866470 
3697.209 10891407 10920151 10952057 10983388 11007007 11016285 11006939 
3700.584 10978903 10937378 10891815 10853764 10833142 10835996 10863004 
3703.960 10911487 10974723 11046125 11119714 11191174 11257749 11318485 
3707.335 11371508 11414639 11443452 11451616 11431273 11376644 11284409 
3710.710 11158060 11008026 10852609 10712937 10608382 10552396 10548628 
3714.085 10592016 10670384 10769588 10874148 10971087 11051767 11111998 
3717.461 11152723 11178833 11196682 11212390 11229085 11246290 11261184 
3720.836 11269786 11269310 11259551 11243263 11225242 11209194 11197022 
3724.211 11187061 11175671 11158876 11135488 11109380 11089223 11087524 
3727.586 11113766 11172373 11258633 11360862 11460462 11538510 11580637 
3730.962 11580365 11542764 11481554 11414911 11355726 11306378 11257273 
3734.337 11193418 11103058 10985801 10856108 10738646 10659043 10631911 
3737.712 10657718 10725163 10820302 10932247 11056729 11194982 11347836 
3741.087 11509113 11662179 11775908 11810089 11729507 11520171 11211132 
3744.463 10874691 10606820 10475644 10495705 10633100 10830119 11028281 
3747.838 11177234 11246596 11226058 11126207 10971596 10792142 10613101 
3751.213 10450052 10313122 10212054 10157138 10156934 10212733 10316006 
3754.588 10448219 10586007 10708080 10797237 10846391 10857331 10839393 
3757.964 10804031 10761096 10717283 10677550 10646478 10631233 10639178 
3761.339 10674493 10735317 10812624 10891508 10955660 10993482 11001060 
3764.714 10985189 10959805 10941727 10942339 10962625 10993447 11020295 
3768.089 11028792 11010202 10964732 10901939 10837831 10788168 10763304 
3771.465 10766191 10792855 10834604 10882369 10928782 10969626 11004492 
3774.840 11035181 11065022 11095885 11127227 11154389 11169687 11165097 
3778.215 11135045 11080488 11010066 10939688 10886311 10861883 10869663 
3781.590 10902924 10948184 10989675 11015163 11019241 11004662 10979447 
3784.966 10954300 10937344 10931670 10935407 10944208 10953484 10961164 
3788.341 10967485 10974552 10984374 10998103 11015571 11036439 11061045 
3791.716 11089937 11123725 11160814 11196954 11225005 11237313 11228337 
3795.091 11198926 11157755 11120224 11105165 11125867 11185123 11272303 
3798.467 11366304 11438757 11460019 11409332 11280227 11089835 10875982 
3801.842 10690861 10579284 10561698 10631504 10760044 10910059 11041163 
3805.217 11121890 11134977 11081541 10982709 10874012 10791938 10758345 
3808.592 10776686 10834196 10912914 10997117 11079026 11159862 11245406 
3811.968 11341067 11445153 11545486 11621269 11648667 11607896 11494516 
3815.343 11325899 11142558 10993346 10916039 10923889 11002045 11115703 
3818.718 11220721 11277166 11256899 11151874 10980024 10783548 10616021 
3822.093 10518244 10507348 10573003 10688247 10819826 10939315 11029064 
3825.469 11083479 11109007 11119714 11132326 11158672 11201476 11254825 
3828.844 11307908 11349706 11372630 11375284 11362971 11345319 11331987 
3832.219 11331204 11346135 11375692 11415047 11456992 11493598 11515645 
3835.594 11514625 11483493 11419095 11324912 11211472 11096056 10997355 
3838.969 10929563 10899290 10903808 10933504 10975640 11018460 11053330 
3842.345 11075865 11086164 11088136 11088373 11093880 11111386 11145924 
3845.720 11199606 11272201 11360726 11462061 11572844 11691893 11819044 
3849.095 11954101 12093832 12228905 12340192 12399272 12372578 12228359 
3852.470 11954237 11573287 11150955 10772034 10507789 10387673 10397446 
3855.846 10498998 10649161 10814968 10974756 11117742 11241529 11347359 
3859.221 11436205 11507990 11561717 11596120 11611843 11610686 11595372 
3862.596 11567263 11526840 11475464 11417054 11362392 11326307 11323586 
3865.971 11362800 11439846 11537660 11628791 11684439 11680831 11609427 
3869.347 11483221 11336306 11211370 11138989 11129096 11167171 11226908 
3872.722 11279920 11307024 11304371 11283015 11263598 11266489 11304507 
3876.097 11377495 11473593 11574239 11659694 11713610 11725558 11693731 
3879.472 11626375 11540313 11457025 11398039 11377835 11399366 11452943 
3882.848 11518707 11573219 11591696 11557668 11469273 11342972 11210928 
3886.223 11109516 11067707 11094968 11181111 11302025 11428756 11534530 
3889.598 11598230 11611400 11577438 11511970 11435593 11369808 11329912 
3892.973 11322328 11346305 11396577 11466040 11547663 11633998 11718342 
3896.349 11793305 11851528 11886499 11893786 11872708 11827420 11766579 
3899.724 11700880 11640023 11589587 11548718 11511290 11468014 11411543 
3903.099 11339707 11257716 11177234 11113255 11078924 11079876 11114717 
3906.474 11174821 11249214 11326511 11398448 11460870 11512481 11554503 
3909.850 11588124 11615110 11636721 11654521 11671777 11691655 11717218 
3913.225 11749728 11786972 11823812 11852617 11866748 11861743 11838044 
3916.600 11800114 11755788 11712725 11675895 11647714 11627600 11614327 
3919.975 11607896 11608950 11618514 11636449 11660137 11684678 11703636 
3923.351 11711874 11707176 11692438 11673547 11658640 11654589 11664256 
3926.726 11686482 11716469 11748366 11776861 11798072 11810669 11814278 
3930.101 11808933 11794564 11771652 11741184 11705917 11670654 11641214 
3933.476 11622937 11619261 11630459 11653841 11684439 11716946 11747072 
3936.852 11771993 11791603 11807161 11820645 11833549 11846079 11856635 
3940.227 11862526 11860722 11848804 11826604 11796744 11764162 11735090 
3943.602 11715448 11708606 11715108 11731516 11752758 11772810 11786427 
3946.977 11791432 11787823 11778325 11766613 11756366 11749966 11748060 
3950.353 11750239 11755652 11763652 11774001 11785985 11798888 11811043 
3953.728 11820407 11825003 11823812 11817615 11808082 11798514 11792080 
3957.103 11790717 11794939 11803281 11813426 11821972 11826910 11826365 
3960.478 11820271 11809682 11796709 11784112 11774580 11770562 11773422 
3963.854 11783193 11798412 11816525 11835014 11851221 11864229 11873866 
3967.229 11881255 11887895 11894672 11901892 11908668 11914185 11917455 
3970.604 11918510 11918340 11918442 11920486 11924947 11931725 11939864 
3973.979 11947867 11954475 11959652 11963433 11966567 11969666 11973173 
3977.354 11976920 11980531 11983494 11985504 11986559 11987036 11986662 
3980.730 11985708 11983937 11981552 11978623 11975456 11972390 11969870 
3984.105 11967622 11965749 11964012 11962853 11963229 11966294 11973242 
3987.480 11984618 12000388 12019055 12039051 12058333 12075298 12089198 
3990.855 12099692 12106949 12111004 12111889 12109572 12104495 12097443 
3994.231 12089880 12083577 12080068 12080341 12084327 12091379 12100544 
3997.606 12111004 12122315 12134751 12148381 12163033 12177822 12191521 
##END=
