
##TITLE=Z361_1_c
##JCAMP-DX=5.01  $$ Nicolet v. 1
##DATATYPE=INFRARED SPECTRUM
##ORIGIN=UniL
##OWNER=Nicolet
##LONGDATE=2011/09/14
##TIME=10:55:37
##SPECTROMETER/DATA SYSTEM=Nicolet iS5
##DATA PROCESSING=
Ratio against background
%Transmittance->Absorbance
Truncated
ElementMultiply or ElementDivide
##COMMENTS=
Number of sample scans: 32
Collection length: 51.21 sec
Sample gain: 2.0
Background collected on: Mer Sep 14 10:43:08 2011 (GMT+02:00);
Number of background scans: 32
Background gain: 2.0
Sample spacing:  1.000
Number of scan points: 12415
Resolution points: 8192
Number of FFT points: 65536
Apodization: N-B fort;
Phase correction: Mertz;
Laser frequency: 15798.0 cm-1
Number of rejected sample scans: 0
Number of rejected background scans: 0
Bench serial number: ASB1000141;
##RESOLUTION=4.000
##XUNITS=1/CM
##YUNITS=ABSORBANCE
##FIRSTX=649.893372
##LASTX=4000.122314
##FIRSTY=0.103741
##MAXX=4000.122314
##MINX=649.893372
##MAXY=0.231680
##MINY=0.008342
##XFACTOR=1.000000
##YFACTOR=1.000000E-009
##NPOINTS=6950
##DELTAX=0.482117
##ZPD=6100
##XYDATA=(X++(Y..Y))
649.893 103741360 103970224 104205560 104442928 104677000 104907152 
652.786 105141952 105399768 105703288 106075664 106529712 107065408 
655.679 107672248 108335880 109041720 109781728 110549496 111336648 
658.571 112126136 112894968 113615792 114267496 114842752 115347280 
661.464 115796976 116210256 116607008 117007648 117437792 117934136 
664.357 118541424 119306752 120272776 121462920 122866096 124414080 
667.250 125990968 127470032 128802864 130069496 131473992 133275288 
670.142 135700144 138964720 143251744 148683696 155285248 162906960 
673.035 171202848 179552640 187139056 193083728 196519088 196864608 
675.928 193978496 188227840 180397520 171476336 162466448 154106816 
678.820 146842288 140821216 135945040 131965664 128571688 125487952 
681.713 122494720 119456360 116320552 113092584 109819016 106562360 
684.606 103388968 100352784 97489544 94820688 92355768 90098256 88050664 
687.981 86214192 84588512 83169928 81949640 80914840 80048008 79329840 
691.355 78738920 78253568 77853944 77521568 77240472 76998016 76782656 
694.730 76585192 76397840 76214648 76032640 75852008 75676576 75511784 
698.105 75362816 75233240 75122232 75025456 74935752 74846544 74752624 
701.480 74652312 74547152 74439256 74330600 74220288 74104736 73978288 
704.855 73835704 73673520 73491080 73291808 73081768 72869008 72661248 
708.229 72466080 72288648 72131712 71994296 71872296 71759280 71646880 
711.604 71527984 71397408 71251792 71090584 70913168 70717840 70501872 
714.979 70261392 69993944 69700016 69383824 69052968 68714888 68375440 
718.354 68036128 67695120 67348184 66992244 66627564 66257468 65886496 
721.729 65517692 65149896 64777748 64394204 63993140 63573040 63138484 
725.104 62698648 62264124 61844084 61444148 61066892 60712712 60382956 
728.478 60079172 59803056 59554328 59330652 59126956 58938684 58764144 
731.853 58606024 58470512 58364344 58291396 58251340 58239632 58251148 
735.228 58283740 58341224 58432340 58567460 58755304 59000620 59303912 
738.603 59665048 60086900 60577304 61149848 61822348 62612952 63543968 
741.978 64643568 65949284 67518696 69431288 71786680 74720784 78400192 
745.352 83021520 88826936 96065008 104950616 115593400 127899720 141469104 
748.727 155475888 168763056 179879312 187313744 189939872 187231584 
751.620 179488080 167703296 153362256 138052976 123066640 109373800 97497544 
754.995 87579768 79529400 73115296 68073840 64145944 61118684 58822224 
758.370 57106260 55845932 54933396 54275264 53806656 53486260 53293148 
761.744 53221456 53271612 53446912 53751188 54191508 54778276 55523200 
765.119 56438716 57534296 58815892 60289488 61965132 63859976 65999612 
768.494 68412320 71117672 74114984 77370448 80810856 84313392 87724352 
771.869 90864488 93539032 95575112 96823584 97175952 96583600 95057472 
775.244 92675280 89564664 85899712 81874024 77667752 73451768 69367800 
778.619 65521120 61995860 58844272 56089756 53729404 51735660 50065820 
781.993 48667108 47490316 46493504 45642348 44911776 44280936 43730448 
785.368 43243720 42807116 42411796 42054980 41737588 41461004 41223580 
788.743 41019492 40839268 40673892 40517240 40368752 40231868 40112256 
792.118 40013280 39934008 39869464 39813500 39760772 39709940 39663000 
795.493 39622852 39591452 39567932 39548188 39527608 39503440 39475572 
798.867 39447776 39424012 39407792 39399668 39397780 39398836 39400612 
802.242 39402896 39406960 39414616 39426808 39442732 39461456 39482828 
805.617 39509284 39545176 39595772 39664560 39750932 39850576 39956276 
808.992 40061384 40162992 40262008 40362352 40468536 40582680 40702460 
812.367 40822236 40934648 41034532 41119432 41191336 41254332 41312776 
815.742 41369880 41426596 41482808 41538332 41593532 41649948 41708376 
819.116 41769324 41832040 41895564 41959644 42026180 42098748 42181372 
822.491 42276648 42384800 42502960 42626776 42753040 42881356 43014756 
825.866 43159252 43321364 43505404 43712236 43939112 44180672 44431504 
829.241 44687072 44944700 45204688 45469096 45741440 46027064 46332564 
832.616 46664100 47026980 47423016 47848856 48295560 48748876 49193536 
835.990 49613656 49997184 50336928 50629688 50876004 51078068 51240444 
839.365 51370732 51480724 51589892 51722636 51907956 52177080 52556860 
842.740 53069760 53732816 54557804 55554452 56733468 58106624 59689604 
846.115 61501216 63560964 65888964 68502512 71410920 74610680 78077320 
849.490 81760168 85566296 89360568 92968640 96166048 98717336 100399000 
852.865 101022304 100484440 98781136 96020488 92400896 88199664 83742608 
856.239 79335928 75263232 71744968 68911448 66821708 65464600 64782368 
859.614 64684636 65069592 65838920 66892208 68136512 69485024 70846424 
862.989 72133504 73263768 74158136 74755736 75013960 74913112 74459352 
866.364 73682744 72636696 71386160 70006096 68570720 67139296 65758340 
869.739 64456196 63244908 62128268 61105792 60177052 59342924 58604544 
873.113 57961580 57411184 56947608 56564192 56253224 56007688 55820724 
876.488 55684648 55591700 55533404 55502756 55495452 55510964 55551704 
879.863 55621376 55722696 55856068 56019036 56207932 56419924 56654484 
883.238 56914176 57203052 57524420 57878660 58262292 58669128 59091156 
886.613 59521984 59957772 60397808 60843124 61295580 61756224 62224656 
889.987 62699684 63179864 63663848 64150436 64637764 65123448 65603816 
893.362 66075608 66537300 66990316 67439664 67892344 68356624 68839232 
896.737 69344592 69875536 70434296 71025416 71657192 72342416 73096984 
900.112 73939904 74888664 75959936 77167448 78521584 80028368 81688296 
903.487 83494648 85429368 87460200 89542184 91611080 93586904 95382776 
906.862 96899120 98038240 98715504 98860096 98434240 97440064 95927792 
910.236 93991952 91763352 89402696 87068160 84907360 83049848 81587648 
913.611 80584312 80072672 80055056 80504616 81361296 82538296 83910480 
916.986 85322816 86614024 87615968 88190280 88254264 87788016 86844800 
920.361 85534664 84015160 82451392 80990736 79752808 78806096 78176328 
923.736 77855448 77815608 78022360 78443064 79054416 79840216 80790552 
927.110 81901224 83172664 84611464 86230112 88049280 90096424 92403064 
930.485 95007368 97951048 101277968 105037872 109280464 114052240 119392240 
933.860 125322280 131839376 138903408 146436096 154311488 162348704 
936.753 170340736 178050688 185239552 191711344 197323808 202021872 
939.646 205846592 208940896 211530032 213868544 216220640 218783072 
942.538 221632464 224687840 227686544 230209520 231680080 231491776 
945.431 229104800 224123936 216432464 206209952 193929088 180245008 
948.324 165919088 151713280 138233648 125944432 115128752 105887472 98204664 
951.698 91974680 87045576 83234544 80349352 78207424 76624752 75439480 
955.073 74523232 73776160 73139768 72589224 72122000 71747560 71476496 
958.448 71316216 71268584 71331840 71502128 71773624 72137064 72578688 
961.823 73082248 73630656 74210336 74814576 75443464 76100064 76787120 
965.198 77502992 78241904 78996944 79764200 80545704 81349664 82186952 
968.573 83065968 83990272 84959616 85974176 87039664 88170632 89385072 
971.947 90698936 92115000 93618264 95175312 96743128 98284224 99775392 
975.322 101215768 102623624 104032360 105479384 106998304 108621472 
978.215 110378448 112297016 114408136 116745024 119347224 122276088 
981.108 125620592 129507168 134094608 139524080 145860624 152997568 
984.000 160607168 168075616 174539744 179099136 180938336 179609168 
986.893 175179376 168239536 159752272 150746448 142193392 134768608 
989.786 128801184 124345952 121240208 119223120 118006088 117353824 
992.678 117095760 117109696 117316144 117653664 118071224 118535072 
995.571 119027312 119544920 120091520 120665568 121253000 121829896 
998.464 122368352 122849648 123270976 123644464 123989008 124318960 
1001.356 124639000 124944040 125227184 125488136 125738488 125997704 
1004.249 126287224 126618608 126990376 127389744 127802416 128220288 
1007.142 128647792 129098000 129585936 130118312 130689400 131282392 
1010.035 131877184 132460432 133028168 133585784 134140280 134693680 
1012.927 135240000 135769088 136273776 136758208 137240144 137748368 
1015.820 138311728 138951952 139681408 140505232 141430192 142473296 
1018.713 143662240 145033952 146626656 148470272 150588112 152998336 
1021.605 155717440 158759136 162118928 165752160 169538128 173264400 
1024.498 176645952 179330656 180991456 181400000 180472992 178308480 
1027.391 175155856 171379328 167352624 163414096 159827792 156741136 
1030.284 154207360 152198128 150634640 149409152 148408624 147540400 
1033.177 146730080 145931200 145123536 144303856 143480000 142663184 
1036.070 141867088 141107120 140402624 139781472 139276720 138924720 
1038.963 138763584 138825488 139137424 139721280 140590288 141745152 
1041.856 143162720 144788416 146521280 148211472 149688832 150771616 
1044.750 151312800 151239520 150565840 149398624 147901616 146280240 
1047.643 144728176 143393520 142377920 141720720 141412256 141406656 
1050.536 141639552 142039696 142533712 143058016 143557920 143987328 
1053.429 144312640 144507520 144551792 144431824 144139312 143673232 
1056.322 143041216 142259648 141350496 140334976 139230320 138045552 
1059.215 136781232 135433312 133998704 132478984 130883280 129225808 
1062.108 127524328 125797136 124060560 122329352 120618808 118942592 
1065.001 117314624 115746144 114244008 112810240 111443408 110140336 
1067.894 108899408 107721712 106609960 105568016 104597280 103695416 
1070.787 102856312 102072168 101335664 100640936 99984448 99363424 98774152 
1074.162 98210360 97664760 97129040 96597464 96067568 95540632 95020192 
1077.538 94510704 94016760 93543096 93095888 92684264 92319696 92015792 
1080.913 91785208 91636776 91575528 91601832 91714360 91912072 92195296 
1084.288 92565992 93025488 93572192 94199016 94892744 95635400 96406544 
1087.663 97183624 97946560 98676752 99358344 99981064 100541824 101047184 
1091.039 101514576 101973136 102461248 103019080 103690704 104519120 
1093.932 105544784 106812712 108371520 110273832 112581864 115360064 
1096.825 118670344 122566776 127078104 132190448 137818592 143794752 
1099.718 149840848 155556512 160485328 164129488 166044416 165956192 
1102.611 163801152 159769360 154240880 147743184 140830928 133974832 
1105.504 127559048 121822400 116870288 112713880 109293296 106514768 
1108.397 104266640 102442624 100946384 99688680 98596616 97609080 96674496 
1111.772 95755376 94822544 93855176 92840976 91775472 90663208 89516776 
1115.147 88356712 87207760 86093296 85034208 84045392 83134384 82304160 
1118.523 81553432 80879152 80276192 79737888 79255312 78817336 78411752 
1121.898 78026768 77651544 77277968 76899480 76510296 76105320 75679576 
1125.273 75229936 74756832 74265064 73764928 73270200 72797928 72365984 
1128.648 71990384 71687360 71471376 71355736 71353232 71474976 71729736 
1132.024 72124664 72664544 73354344 74200440 75212008 76402192 77787192 
1135.399 79383184 81205352 83265648 85571024 88123424 90919064 93947688 
1138.774 97188472 100606688 104153968 107759464 111334080 114775808 
1141.667 117960912 120757664 123033304 124651400 125499544 125503096 
1144.560 124642704 122968736 120602224 117730952 114568960 111346032 
1147.453 108282696 105552512 103293040 101595160 100504152 100034040 
1150.346 100174152 100899688 102176208 103965128 106228736 108925128 
1153.240 112008568 115424552 119092728 122901584 126700488 130279824 
1156.133 133397576 135787152 137174112 137335552 136118576 133473128 
1159.026 129468280 124292088 118234024 111620400 104801744 98096048 91738920 
1162.401 85900192 80666016 76052024 72026136 68524704 65473192 62791988 
1165.776 60410068 58268924 56317576 54518356 52843192 51271500 49791464 
1169.151 48396888 47087168 45864784 44734780 43704468 42782732 41981504 
1172.527 41315580 40800320 40449916 40270908 40256696 40381112 40596868 
1175.902 40842620 41042760 41125476 41035736 40740124 40237216 39555448 
1179.277 38750656 37892072 37053728 36306864 35706492 35292128 35085676 
1182.652 35091132 35295544 35668576 36167048 36730560 37287300 37765008 
1186.028 38091040 38207672 38081816 37707720 37109660 36334788 35449428 
1189.403 34523824 33622092 32799378 32091788 31517834 31080792 30773028 
1192.778 30579944 30484142 30469180 30519368 30620082 30759052 30924926 
1196.153 31107950 31301234 31499524 31699792 31900186 32099246 32295256 
1199.529 32486108 32669328 32842082 33002284 33147846 33277002 33388338 
1202.904 33480276 33550606 33597288 33617224 33606952 33562380 33478986 
1206.279 33352632 33180356 32961424 32698228 32396742 32066784 31720180 
1209.654 31370718 31032068 30715520 30431114 30185822 29983910 29828188 
1213.030 29719354 29656592 29637614 29659360 29718362 29811400 29935948 
1216.405 30090182 30272534 30481796 30716124 30973530 31252310 31551470 
1219.780 31871446 32213640 32580208 32973186 33393924 33842472 34318196 
1223.155 34819752 35346076 35895928 36469040 37065128 37684124 38326548 
1226.531 38993368 39686164 40407368 41159716 41946724 42772124 43640348 
1229.906 44556056 45524436 46550412 47637416 48786540 49994808 51255244 
1233.281 52555888 53880660 55211208 56525888 57802388 59019636 60157640 
1236.656 61202104 62146044 62991672 63750788 64444280 65101200 65754092 
1240.031 66438400 67191280 68046520 69036384 70188944 71525520 73061736 
1243.407 74805840 76760120 78922512 81288848 83855616 86620536 89582656 
1246.782 92741888 96096592 99643624 103378960 107296880 111391888 115656584 
1250.157 120077448 124632552 129285600 133979976 138643072 143177104 
1253.050 147454832 151328848 154614448 157097840 158567056 158812384 
1255.943 157671648 155062832 150992336 145564864 138961296 131435632 
1258.836 123275856 114775296 106235808 97918456 90033104 82740616 76131728 
1262.212 70243504 65070404 60576696 56708924 53403184 50596144 48222948 
1265.587 46221652 44538876 43125800 41941176 40953364 40134352 39461276 
1268.962 38915480 38479804 38139660 37883720 37702484 37588800 37537212 
1272.337 37542668 37600364 37705660 37853860 38041416 38265784 38525824 
1275.713 38821452 39153756 39524056 39933284 40381512 40866972 41385516 
1279.088 41929680 42489252 43052696 43607600 44144140 44657360 45148216 
1282.463 45624128 46096916 46580840 47087020 47620376 48177556 48747244 
1285.838 49312596 49855268 50362080 50828024 51258752 51669340 52082596 
1289.214 52524364 53018992 53588212 54249544 55014848 55892768 56887888 
1292.589 58000392 59225944 60554828 61972780 63459216 64990580 66541000 
1295.964 68082760 69589240 71036616 72404264 73679408 74857048 75941896 
1299.339 76946072 77888264 78790048 79671960 80554360 81455488 82391592 
1302.715 83378488 84430048 85555320 86757200 88028872 89353968 90703912 
1306.090 92040656 93318432 94480152 95463808 96203712 96630744 96687408 
1309.465 96331256 95543480 94334080 92740744 90826176 88663704 86336936 
1312.840 83930296 81517448 79167792 76941288 74887640 73055072 71488376 
1316.216 70227264 69307400 68748616 68548016 68668896 69039144 69554544 
1319.591 70079016 70473888 70608992 70377600 69720088 68623064 67122016 
1322.966 65287500 63218228 61025972 58812360 56670416 54670600 52856436 
1326.341 51251744 49862180 48681896 47698172 46895696 46258396 45768388 
1329.717 45407884 45160016 45007320 44934744 44928828 44976632 45066864 
1333.092 45188288 45330272 45484480 45644668 45808556 45977224 46154468 
1336.467 46346276 46559264 46800880 47079784 47405868 47792484 48254272 
1339.842 48805376 49458124 50218704 51084960 52044496 53072828 54133288 
1343.218 55172192 56126176 56924112 57492460 57772636 57724876 57336576 
1346.593 56623904 55631356 54427268 53089828 51706660 50360964 49118548 
1349.968 48031568 47132224 46434064 45937852 45633072 45502288 45522560 
1353.343 45669400 45919620 46250988 46645100 47085692 47555416 48036528 
1356.719 48507248 48942240 49315676 49601692 49776968 49825240 49736208 
1360.094 49507916 49146260 48666808 48095488 47466812 46825460 46218224 
1363.469 45685340 45256020 44942388 44741756 44640984 44622696 44670032 
1366.844 44768020 44905972 45075464 45269552 45482676 45709632 45945732 
1370.219 46186640 46427576 46662808 46886432 47092524 47278944 47448812 
1373.595 47613792 47792820 48007252 48278340 48620668 49041308 49543012 
1376.970 50128216 50803068 51580860 52481588 53529400 54750088 56163584 
1380.345 57780092 59592100 61569708 63651376 65740952 67723432 69464224 
1383.720 70831136 71715976 72031368 71728440 70805784 69327304 67428016 
1387.096 65296516 63157604 61207680 59581804 58349868 57520036 57066996 
1390.471 56950176 57130216 57572616 58248384 59137396 60223444 61492172 
1393.846 62929080 64512396 66211044 67986992 69798528 71605192 73371840 
1397.221 75062128 76638944 78065424 79304904 80332528 81140368 81739408 
1400.597 82153768 82412544 82544712 82573848 82516544 82380976 82161448 
1403.972 81835696 81363728 80700808 79806008 78660280 77276224 75699216 
1407.347 74001192 72265280 70587392 69065168 67790232 66855104 66336788 
1410.722 66287300 66731060 67659688 69040584 70824264 72959352 75395528 
1414.098 78079744 80960512 83978096 87062656 90147144 93161672 96040080 
1417.473 98728400 101180544 103363576 105254504 106848688 108153256 
1420.366 109180720 109945848 110458608 110721640 110728824 110469328 
1423.259 109933296 109118264 108036512 106713696 105181376 103462112 
1426.152 101559576 99455816 97120464 94525624 91667176 88577440 85334312 
1429.527 82050536 78846536 75838360 73116160 70734408 68717064 67056156 
1432.903 65719596 64658216 63818180 63154004 62637060 62268364 62080332 
1436.278 62128192 62462412 63101620 64017908 65142348 66377556 67604784 
1439.653 68701768 69532656 69966624 69909592 69314472 68202848 66654408 
1443.028 64796948 62775908 60724028 58762476 56980172 55432844 54153708 
1446.404 53154984 52436424 51988208 51791620 51815064 52012036 52329176 
1449.779 52710776 53106824 53483448 53823608 54130328 54423852 54737872 
1453.154 55112452 55585632 56194580 56975108 57963660 59192108 60673272 
1456.529 62380928 64238056 66133208 67954488 69615648 71059320 72244504 
1459.905 73132664 73692688 73896464 73716048 73124936 72090480 70581776 
1463.280 68586584 66144364 63372596 60451420 57595692 54983596 52709840 
1466.655 50789660 49181920 47827700 46674652 45689976 44856884 44167648 
1470.030 43614740 43188452 42877772 42678460 42596512 42648888 42856520 
1473.406 43235340 43793480 44532340 45453944 46564832 47874052 49390956 
1476.781 51120444 53060324 55204472 57544660 60074340 62783600 65656692 
1480.156 68669168 71779720 74937448 78087632 81173240 84143200 86947768 
1483.531 89531392 91836376 93800360 95361816 96475800 97118264 97293336 
1486.906 97027080 96364560 95359960 94065968 92541712 90854480 89080456 
1490.282 87305336 85605232 84027384 82577848 81218816 79879680 78465288 
1493.657 76874288 75011752 72802872 70213400 67263456 64033268 60640428 
1497.032 57210764 53847460 50617436 47558224 44691920 42035012 39603248 
1500.407 37408048 35450468 33723172 32209854 30886964 29727622 28698954 
1503.783 27760764 26862454 25946930 24963806 23888790 22752774 21642044 
1507.158 20661936 19880832 19303484 18886168 18570980 18307964 18065658 
1510.533 17832046 17608534 17403278 17224146 17075000 16954982 16859868 
1513.908 16784816 16725758 16679341 16642915 16615201 16597092 16593892 
1517.284 16614374 16666947 16756613 16880744 17028890 17183640 17328512 
1520.659 17454048 17566992 17688180 17845408 18057954 18328114 18644440 
1524.034 18988546 19344950 19703934 20065712 20437760 20830776 21251288 
1527.409 21698538 22164138 22636240 23103266 23555402 23985738 24387096 
1530.785 24748344 25053202 25280510 25409840 25432428 25362802 25242298 
1534.160 25122814 25050498 25047022 25107788 25211222 25328168 25431516 
1537.535 25496410 25505160 25448098 25327360 25158028 24966052 24784194 
1540.910 24640390 24550976 24517318 24527836 24563704 24604448 24637270 
1544.286 24659856 24682510 24722108 24794474 24906116 25051622 25215928 
1547.661 25382158 25539314 25685456 25830556 25991288 26185052 26421158 
1551.036 26698932 27010344 27347034 27705632 28090754 28513688 28987966 
1554.411 29524218 30125268 30786970 31500414 32259424 33060882 33910140 
1557.787 34822444 35825900 36953928 38220120 39621072 41133308 42726316 
1561.162 44384492 46102812 47886816 49744160 51683560 53707508 55800716 
1564.537 57932500 60056532 62115960 64059228 65839260 67410400 68728816 
1567.912 69743632 70403824 70674792 70554328 70083056 69330528 68376712 
1571.288 67286512 66098912 64834028 63497676 62086180 60597000 59032804 
1574.663 57415572 55811152 54335788 53142064 52379636 52136020 52424124 
1578.038 53203592 54416040 56015228 57978088 60308332 63028404 66173108 
1581.413 69781488 73891984 78536080 83732928 89480296 95744104 102455336 
1584.789 109492656 116690528 123846600 130702600 136973904 142369456 
1587.682 146616800 149549888 151160352 151639696 151332992 150684000 
1590.575 150145152 150052656 150604320 151819392 153554128 155512672 
1593.468 157286432 158435024 158490352 157053184 153877328 148896672 
1596.361 142265440 134306768 125464560 116192192 106886952 97892016 89451424 
1599.736 81728008 74813432 68715552 63371024 58656952 54428884 50544588 
1603.111 46895220 43428752 40141948 37067116 34246232 31716224 29497870 
1606.487 27594894 26000186 24699170 23672252 22890890 22319260 21916640 
1609.862 21638318 21444586 21304250 21193496 21096614 21001074 20892622 
1613.237 20754828 20567290 20307750 19957632 19506936 18963280 18355382 
1616.612 17731528 17145208 16636511 16224364 15906118 15666349 15483331 
1619.988 15333820 15195685 15047200 14871505 14659998 14415676 14152664 
1623.363 13892000 13653580 13447108 13272435 13120337 12980002 12842101 
1626.738 12701958 12558962 12415978 12276586 12144360 12023007 11916978 
1630.113 11830996 11770290 11737711 11732128 11747140 11771210 11789423 
1633.489 11785270 11745507 11663813 11545519 11407631 11274887 11169789 
1636.864 11104044 11076952 11079808 11101664 11131034 11159318 11181757 
1640.239 11197838 11211676 11230445 11262034 11311717 11379978 11461210 
1643.614 11544431 11615926 11660648 11666535 11628723 11552155 11452093 
1646.990 11350659 11271487 11231159 11237585 11289714 11379569 11492917 
1650.365 11608678 11699177 11727090 11653193 11455426 11155885 10828659 
1653.740 10560068 10401214 10348648 10368465 10421305 10478088 10523438 
1657.115 10552634 10569778 10582340 10597720 10619077 10644883 10669637 
1660.490 10686141 10688213 10671539 10636190 10586108 10529107 10474795 
1663.866 10433115 10411428 10412718 10435253 10472012 10512779 10543535 
1667.241 10550562 10523099 10456976 10356995 10237294 10118066 10018062 
1670.616 9950660 9921166 9926828 9959474 10006296 10052886 10083169 10083576 
1674.474 10047257 9980223 9901301 9834358 9799382 9803482 9840527 9896556 
1678.331 9956287 10009925 10055497 10099278 10151338 10218907 10300363 
1681.706 10382073 10438512 10440853 10366191 10215040 10018774 9831680 
1685.082 9701450 9644836 9649578 9687795 9733233 9765526 9774439 9758919 
1688.939 9723609 9677055 9627999 9585689 9557981 9550699 9566551 9602491 
1692.796 9649104 9689253 9702059 9668247 9579693 9449234 9312212 9212867 
1696.654 9179904 9215541 9295964 9385373 9443410 9438804 9362350 9237033 
1700.511 9114223 9043408 9049870 9125118 9242720 9372033 9489702 9581184 
1704.369 9641550 9675090 9693217 9710395 9737977 9782030 9842492 9916352 
1708.226 9999176 10087001 10177930 10271186 10366734 10465326 10566587 
1711.601 10669637 10772373 10871838 10964902 11048810 11120598 11176997 
1714.977 11213070 11220958 11191310 11116315 10995418 10839597 10671879 
1718.352 10521062 10409291 10346103 10326524 10336262 10356962 10371011 
1721.727 10366667 10338095 10286317 10216939 10138178 10057091 9978053 
1725.102 9903539 9834459 9771219 9714461 9664046 9618615 9575968 9534441 
1728.960 9494206 9458580 9432642 9420282 9420384 9424210 9414391 9367294 
1732.817 9263130 9094598 8880845 8663514 8491971 8396833 8379301 8418454 
1736.675 8484605 8550394 8594429 8605244 8582330 8534681 8476834 8423386 
1740.532 8383388 8358763 8346536 8342213 8342652 8347043 8355858 8370113 
1744.389 8389942 8414433 8441629 8469705 8497039 8522449 8545191 8564419 
1748.247 8578545 8585845 8583986 8571989 8550462 8523091 8496802 8480584 
1752.104 8482814 8508561 8557931 8626063 8703672 8778793 8840603 8881183 
1755.962 8899818 8903166 8904519 8917878 8951363 9005248 9070948 9134931 
1759.819 9182950 9203865 9194355 9159803 9111956 9065500 9033394 9021959 
1763.677 9030857 9055012 9086917 9118452 9142173 9152730 9148027 9130430 
1767.534 9106745 9086511 9078594 9086004 9105324 9125186 9131378 9110162 
1771.391 9055486 8973112 8881082 8802427 8754483 8743497 8763747 8803103 
1775.249 8849192 8894339 8936582 8978423 9023482 9073147 9124273 9171444 
1779.106 9208637 9233040 9246815 9256969 9271524 9295287 9327616 9362486 
1782.964 9391197 9406061 9404233 9387912 9364484 9342714 9329308 9327514 
1786.821 9337535 9357069 9384289 9417167 9453095 9487128 9511919 9518286 
1790.678 9497492 9446186 9369426 9281578 9201293 9146132 9125491 9138789 
1794.536 9178517 9234224 9297115 9361098 9423601 9484453 9543688 9601068 
1798.393 9655643 9706262 9752751 9796569 9840153 9886623 9937811 9994565 
1802.251 10057091 10125188 10199232 10280957 10371723 10472488 10582679 
1805.626 10699895 10820676 10941286 11058292 11169551 11273902 11370522 
1809.001 11458692 11537728 11607044 11666399 11716572 11759260 11796267 
1812.376 11829225 11858712 11884694 11905910 11921337 11930056 11931793 
1815.752 11926821 11915684 11898963 11876964 11849859 11818091 11782479 
1819.127 11744349 11705849 11668816 11634645 11603335 11573151 11540858 
1822.502 11501526 11450595 11384400 11302603 11209058 11112167 11022572 
1825.877 10949407 10897047 10863242 10839564 10812931 10769995 10701763 
1829.253 10607295 10494856 10379833 10279193 10204354 10158190 10134821 
1832.628 10124442 10116845 10105077 10087103 10064687 10041866 10021589 
1836.003 10004668 9989208 9972696 9953745 9933845 9916658 9907166 9909369 
1839.861 9923777 9946965 9971646 9988835 9988496 9962661 9907471 9825444 
1843.718 9726219 9624679 9537930 9478594 9451909 9454585 9477951 9510327 
1847.575 9540978 9563706 9577390 9585554 9594157 9608283 9630065 9657472 
1851.433 9685729 9710361 9729506 9744822 9760308 9780370 9806939 9838696 
1855.290 9871133 9899504 9920658 9935099 9946558 9959441 9977104 10000159 
1859.148 10025997 10050920 10072521 10090596 10107756 10127258 10151236 
1862.523 10179796 10210460 10240686 10268607 10294697 10320722 10348173 
1865.898 10376067 10399482 10410885 10403012 10372469 10323165 10265486 
1869.273 10213310 10179219 10169078 10181051 10208052 10241840 10275596 
1872.649 10306132 10333480 10359269 10384957 10410784 10436000 10459793 
1876.024 10482975 10507585 10536610 10571849 10612897 10657209 10700846 
1879.399 10740480 10774921 10805322 10834536 10864907 10896944 10929019 
1882.774 10957902 10981180 10998987 11013668 11029845 11051699 11081201 
1886.150 11117063 11154898 11189814 11217626 11236940 11249861 11260877 
1889.525 11275670 11298692 11333415 11380760 11440356 11510338 11588056 
1892.900 11670143 11752485 11831541 11905161 11972697 12036088 12098363 
1896.275 12162862 12231189 12303479 12377998 12452700 12526221 12598356 
1899.651 12670401 12743754 12819441 12897530 12978227 13061773 13150117 
1903.026 13246643 13354911 13478346 13618056 13773303 13942225 14122952 
1906.401 14315089 14520912 14742532 14981345 15235045 15496585 15754813 
1909.776 15995111 16202489 16363205 16466195 16503537 16471496 16370602 
1913.152 16205618 15985209 15722379 15430902 15123666 14812020 14503473 
1916.527 14202782 13914956 13646297 13405518 13202408 13043847 12930810 
1919.902 12856674 12809578 12774703 12739523 12697796 12650410 12604700 
1923.277 12570047 12554153 12559371 12582837 12618822 12661122 12706565 
1926.653 12754468 12805995 12862272 12922379 12983758 13042994 13097526 
1930.028 13146156 13189326 13227412 13260000 13284393 13297101 13295496 
1933.403 13279472 13252417 13220273 13189839 13166101 13150834 13142877 
1936.778 13140111 13141545 13147385 13159646 13178977 13203399 13228095 
1940.154 13246370 13251426 13241281 13218496 13190556 13166033 13151074 
1943.529 13147282 13150425 13154216 13152747 13144346 13131266 13118835 
1946.904 13112312 13115420 13128328 13149435 13176074 13206268 13239504 
1950.279 13274997 13311143 13344900 13372098 13389594 13396530 13395505 
1953.655 13391097 13388603 13391234 13398478 13406680 13411430 13409243 
1957.030 13400187 13387509 13376027 13369842 13370765 13377258 13385801 
1960.405 13393318 13398068 13400152 13401349 13402066 13402647 13402066 
1963.780 13399640 13395812 13392259 13390448 13391541 13393831 13394651 
1967.156 13391063 13382623 13371893 13365332 13369467 13388397 13422844 
1970.531 13468742 13520182 13573099 13626022 13681755 13744883 13818452 
1973.906 13902024 13992284 14083248 14171115 14254994 14337656 14423041 
1977.281 14512792 14603762 14689439 14761591 14814316 14846510 14861939 
1980.656 14867082 14868454 14869963 14872397 14876751 14883232 14895200 
1984.032 14917557 14953771 15004667 15066409 15131146 15190023 15238648 
1987.407 15276914 15310961 15348821 15397017 15457476 15526288 15596107 
1990.782 15659720 15714237 15761925 15807830 15857521 15912544 15969122 
1994.157 16020551 16058506 16077520 16077898 16063355 16039254 16010271 
1997.533 15977751 15939526 15893092 15837109 15773812 15708089 15647011 
2000.908 15594836 15552765 15519146 15489409 15461390 15434541 15410990 
2004.283 15393722 15383972 15380024 15378342 15374978 15368456 15360904 
2007.658 15357815 15363649 15380470 15405977 15432584 15451879 15456996 
2011.034 15445460 15419332 15383114 15342951 15302277 15264181 15228113 
2014.409 15195857 15169161 15150839 15144218 15149432 15164392 15184499 
2017.784 15205122 15223172 15237687 15250796 15263976 15279076 15295412 
2021.159 15311785 15327745 15344015 15364405 15393618 15434679 15487726 
2024.535 15548953 15611528 15667312 15711626 15742170 15760448 15770033 
2027.910 15774328 15776219 15776664 15776081 15776286 15778864 15786527 
2031.285 15800340 15818620 15836248 15845940 15840098 15813328 15764158 
2034.660 15695754 15613933 15526460 15440859 15362208 15294280 15238545 
2038.036 15194793 15161269 15135091 15112311 15090011 15066273 15040374 
2041.411 15015300 14993829 14978533 14970679 14969444 14972153 14977606 
2044.786 14984569 14994584 15009469 15030324 15056907 15085312 15110492 
2048.161 15126823 15130288 15120029 15096941 15064728 15027030 14987278 
2051.537 14948284 14912516 14881895 14857756 14840304 14826864 14813185 
2054.912 14793986 14764573 14724091 14675215 14624117 14578645 14544656 
2058.287 14524407 14515259 14511970 14508270 14500836 14489257 14476718 
2061.662 14467537 14464043 14465859 14469387 14469558 14462057 14444586 
2065.038 14418588 14387385 14354985 14324575 14298378 14277114 14261260 
2068.413 14251160 14247393 14249585 14256227 14264170 14269991 14270607 
2071.788 14265471 14255645 14244072 14233082 14223186 14213703 14202302 
2075.163 14186555 14166527 14144449 14124629 14111075 14106316 14109432 
2078.539 14116927 14124527 14128462 14127196 14122233 14116722 14113881 
2081.914 14116379 14124868 14139108 14157765 14179844 14204083 14229212 
2085.289 14253043 14272970 14286222 14291119 14288618 14281154 14273005 
2088.664 14268416 14269786 14276873 14287694 14298686 14307829 14314918 
2092.040 14322245 14333890 14353684 14384405 14426123 14477232 14534377 
2095.415 14593996 14653795 14712231 14769201 14825733 14883850 14945643 
2098.790 15013791 15090594 15177088 15273653 15379749 15494078 15615547 
2102.165 15744127 15880650 16026292 16181372 16344283 16511211 16676966 
2105.541 16835550 16981994 17113532 17228662 17326926 17408038 17470468 
2108.916 17512276 17530940 17525626 17497580 17450736 17390760 17323616 
2112.291 17253452 17182330 17109568 17033026 16950368 16860420 16763534 
2115.666 16661335 16555406 16446957 16336506 16224192 16110461 15997002 
2119.042 15886011 15780101 15681429 15590990 15507951 15431246 15359084 
2122.417 15289956 15222589 15155848 15087816 15017359 14943209 14865608 
2125.792 14786273 14708804 14637482 14575904 14525915 14486859 14456713 
2129.167 14432768 14413142 14397831 14388002 14385946 14393071 14409922 
2132.542 14435132 14467811 14506455 14550274 14599034 14652356 14709010 
2135.918 14767110 14824088 14878329 14928943 14975445 15017975 15055433 
2139.293 15086649 15109017 15121848 15125965 15125073 15124764 15130974 
2142.668 15147237 15174171 15209000 15246987 15284190 15319061 15352287 
2146.043 15386307 15423246 15462386 15500500 15533019 15556062 15568872 
2149.419 15573714 15576599 15583537 15598957 15622966 15653295 15685586 
2152.794 15715336 15740657 15762303 15783399 15808964 15842950 15890272 
2156.169 15954822 16039597 16144987 16268117 16401054 16531451 16645256 
2159.544 16731543 16785300 16808960 16811370 16804862 16799558 16802174 
2162.920 16814128 16833380 16855632 16877160 16895210 16907680 16912712 
2166.295 16907096 16887322 16851912 16801144 16739910 16676415 16620262 
2169.670 16579365 16558710 16557196 16570622 16592756 16618025 16642399 
2173.045 16664261 16682923 16696557 16703203 16699864 16683646 16654482 
2176.421 16614787 16569003 16522914 16481545 16447509 16422525 16406249 
2179.796 16398095 16397543 16403841 16414301 16426276 16434535 16434088 
2183.171 16422182 16398266 16365200 16327046 16289031 16253738 16222471 
2186.546 16194200 16167099 16140584 16115207 16092993 16076284 16067067 
2189.922 16065108 16069923 16079171 16091514 16105579 16121224 16137181 
2193.297 16153172 16168062 16180925 16191896 16201319 16210847 16221371 
2196.672 16232962 16243935 16252190 16255699 16253497 16247891 16241733 
2200.047 16239876 16245654 16260240 16282531 16309431 16338089 16366199 
2203.423 16393380 16420806 16449815 16481269 16514929 16549625 16585113 
2206.798 16621638 16661851 16708713 16765393 16833070 16911058 16996192 
2210.173 17083236 17168300 17247554 17320444 17387792 17452288 17517038 
2213.548 17584038 17654084 17726144 17797802 17865744 17927168 17980038 
2216.924 18023898 18060164 18090838 18118060 18143244 18165804 18182940 
2220.299 18190612 18184634 18161036 18117784 18055122 17975238 17881486 
2223.674 17777642 17666852 17552434 17436940 17322824 17213114 17110602 
2227.049 17016900 16933346 16858664 16790844 16726997 16664399 16601672 
2230.425 16537955 16474145 16411273 16350990 16294949 16244451 16200975 
2233.800 16165448 16138280 16119024 16106198 16097980 16092993 16090689 
2237.175 16091241 16095642 16104857 16117373 16130611 16140413 16142270 
2240.550 16133294 16112972 16084053 16051251 16020309 15994871 15977545 
2243.926 15967783 15964413 15965067 15968608 15974244 15982598 15993599 
2247.301 16007040 16022202 16037844 16053522 16068993 16084775 16101589 
2250.676 16119333 16137592 16155476 16171983 16187219 16201802 16217312 
2254.051 16235026 16255630 16278712 16302688 16325772 16346416 16363997 
2257.427 16378723 16391350 16402086 16410997 16416883 16418362 16413854 
2260.802 16403085 16386326 16365029 16341185 16317070 16294880 16276853 
2264.177 16264573 16259380 16262200 16272554 16289514 16310945 16334271 
2267.552 16356943 16377278 16394001 16406972 16415816 16420633 16421391 
2270.927 16417639 16409174 16396305 16379651 16359765 16337711 16313698 
2274.303 16287792 16260412 16231518 16202111 16173221 16146224 16121844 
2277.678 16100626 16081853 16064798 16048364 16031999 16015360 15998343 
2281.053 15981257 15964137 15946882 15929455 15912099 15895257 15879791 
2284.428 15865907 15853809 15843019 15832812 15822675 15812917 15804498 
2287.804 15798861 15797522 15801061 15809067 15820166 15832366 15844531 
2291.179 15856147 15867865 15880994 15896494 15914263 15933271 15952347 
2294.554 15969535 15984042 15996417 16008174 16021239 16037259 16056787 
2297.929 16079411 16103446 16127415 16150214 16171707 16192721 16215008 
2301.305 16240530 16271247 16308434 16352745 16403943 16461033 16522398 
2304.680 16586008 16650248 16713602 16775623 16836860 16898104 16960496 
2308.055 17024308 17089164 17153342 17214940 17271688 17321718 17364410 
2311.430 17399760 17428696 17452012 17470986 17486680 17500824 17515554 
2314.806 17533836 17558712 17593456 17640246 17699708 17770670 17850966 
2318.181 17937492 18026524 18115572 18202290 18285050 18362088 18431604 
2321.556 18491310 18538856 18572190 18590728 18595638 18590624 18580870 
2324.931 18572570 18572502 18585574 18614936 18661110 18721574 18791494 
2328.307 18864610 18934170 18994778 19043276 19078764 19103172 19120450 
2331.682 19134508 19149710 19168478 19191818 19219420 19249656 19280760 
2335.057 19311382 19340966 19369754 19398824 19429244 19462024 19497476 
2338.432 19534282 19570570 19603396 19630574 19650264 19662052 19666940 
2341.808 19665656 19657960 19640766 19607418 19548526 19454888 19320180 
2345.183 19145900 18943272 18733164 18541692 18395238 18315914 18316500 
2348.558 18399834 18560156 18784782 19055982 19353230 19657960 19954164 
2351.933 20230608 20482114 20707944 20910424 21091814 21254140 21398742 
2355.309 21526678 21639886 21741314 21834228 21920854 22002618 22078158 
2358.684 22145378 22201868 22246086 22277790 22297776 22307508 22307856 
2362.059 22300146 22284660 22262338 22234892 22203716 22170170 22134152 
2365.434 22093988 22046610 21988956 21918068 21833148 21735008 21625782 
2368.810 21508120 21383948 21254594 21120162 20980730 20836616 20688656 
2372.185 20538562 20388134 20238488 20090456 19943930 19798042 19652276 
2375.560 19506176 19359292 19211974 19064636 18917628 18772154 18629428 
2378.935 18491140 18359358 18236290 18123172 18021066 17930242 17850208 
2382.311 17781130 17723174 17677204 17644492 17625960 17621612 17630412 
2385.686 17650114 17677654 17710026 17745300 17781958 17820136 17860426 
2389.061 17903826 17951306 18003798 18061822 18125416 18194896 18269500 
2392.436 18348160 18429220 18510708 18590140 18665676 18736106 18801010 
2395.812 18860596 18915620 18966776 19014716 19059790 19102410 19142714 
2399.187 19181082 19217654 19252426 19285542 19316612 19345398 19372112 
2402.562 19396918 19420064 19442274 19463792 19484932 19505688 19526172 
2405.937 19546552 19567694 19590120 19614766 19642638 19674186 19709480 
2409.313 19748974 19792078 19838620 19888184 19940218 19994130 20049784 
2412.688 20106662 20165662 20227240 20292854 20363410 20439218 20520080 
2416.063 20604602 20691578 20779956 20869086 20959692 21052962 21149906 
2419.438 21251460 21357914 21468536 21582600 21699478 21818514 21939918 
2422.813 22063796 22189906 22318216 22448168 22579486 22712796 22849328 
2426.189 22990724 23139330 23296480 23462888 23637964 23820636 24009864 
2429.564 24205446 24408020 24619596 24842888 25080512 25334842 25607142 
2432.939 25898006 26207120 26534100 26877962 27238150 27613818 28003702 
2436.314 28406102 28818084 29235630 29652656 30062234 30456562 30826702 
2439.690 31164264 31461902 31713478 31914770 32063786 32160114 32205396 
2443.065 32202326 32154978 32067068 31942978 31787020 31603244 31396146 
2446.440 31170886 30932114 30685116 30435024 30185540 29940386 29701828 
2449.815 29472088 29252856 29045706 28852678 28675558 28516412 28376460 
2453.191 28256462 28156790 28076580 28015080 27971366 27944898 27935110 
2456.566 27941790 27964686 28003632 28058130 28127342 28210708 28307386 
2459.941 28416822 28538032 28670672 28814012 28967280 29129850 29301486 
2463.316 29482478 29673622 29876564 30092810 30324512 30573436 30840718 
2466.692 31127314 31433332 31758178 32100852 32459650 32833148 33219878 
2470.067 33618620 34028736 34449744 34881720 35324260 35777220 36240696 
2473.442 36714660 37200148 37698580 38212304 38744028 39296244 39870628 
2476.817 40468720 41090360 41735184 42401132 43085332 43782816 44486528 
2480.193 45187736 45875020 46535472 47155304 47719252 48211320 48615592 
2483.568 48915016 49093024 49136060 49033220 48778532 48371776 47818228 
2486.943 47127792 46313612 45392248 44381592 43300828 42171184 41012720 
2490.318 39845928 38690420 37562684 36477184 35445796 34476540 33575232 
2493.694 32744818 31986240 31298778 30680208 30127682 29636976 29203840 
2497.069 28823820 28492282 28205050 27958396 27748402 27571556 27423544 
2500.444 27299928 27196276 27108238 27032064 26965672 26907326 26856356 
2503.819 26812050 26773286 26738362 26704958 26670710 26633610 26592358 
2507.195 26546674 26496624 26442886 26385664 26324934 26260550 26192232 
2510.570 26120126 26044902 25968036 25891148 25815576 25742548 25672028 
2513.945 25603628 25536678 25470444 25404816 25340076 25277418 25218140 
2517.320 25163610 25114458 25071210 25033544 25000622 24971492 24945066 
2520.696 24920396 24896850 24873624 24850116 24825942 24800614 24773496 
2524.071 24744100 24712568 24678722 24643162 24606342 24569490 24533586 
2527.446 24500070 24469956 24444578 24425160 24412368 24406652 24408336 
2530.821 24417098 24432522 24453832 24480264 24510588 24543402 24577308 
2534.197 24610268 24640952 24668342 24692084 24713200 24733298 24754378 
2537.572 24777986 24805490 24836642 24870150 24904008 24936224 24964860 
2540.947 24989110 25008660 25023892 25035474 25044074 25049868 25053622 
2544.322 25055694 25056570 25057624 25059380 25062678 25068190 25076088 
2547.698 25086234 25099328 25115616 25136084 25161820 25193490 25231308 
2551.073 25274434 25321740 25371304 25421538 25471182 25519250 25565776 
2554.448 25611008 25655436 25699482 25743532 25788042 25833332 25880456 
2557.823 25929940 25982844 26039658 26100282 26163798 26228872 26293990 
2561.198 26357888 26419784 26480108 26540122 26601836 26666658 26736000 
2564.574 26810148 26888080 26968176 27048356 27126754 27202378 27275228 
2567.949 27346010 27416132 27487218 27560294 27636242 27715134 27796582 
2571.324 27879850 27964510 28049858 28135862 28222446 28309862 28398284 
2574.699 28488072 28579256 28672158 28767170 28864682 28965614 29070646 
2578.075 29180948 29297196 29420000 29549506 29685366 29827548 29975674 
2581.450 30129494 30289124 30454464 30625378 30801732 30983566 31170956 
2584.825 31364698 31566400 31778284 32002792 32242436 32498856 32772720 
2588.200 33063386 33369486 33688692 34018488 34356244 34698572 35042284 
2591.576 35383496 35717748 36040956 36348728 36636928 36902052 37140448 
2594.951 37349184 37525508 37667320 37773648 37844424 37881188 37886212 
2598.326 37862428 37812936 37740396 37647228 37535840 37408300 37267116 
2601.701 37114572 36952700 36783280 36607728 36427060 36242572 36055820 
2605.077 35868544 35682928 35501092 35324332 35153968 34990024 34832424 
2608.452 34680876 34535052 34394548 34259572 34130016 34005980 33887608 
2611.827 33775028 33668744 33569616 33478164 33394854 33319860 33252642 
2615.202 33192944 33140048 33094100 33055696 33026166 33006928 32999244 
2618.578 33004072 33021766 33052158 33094812 33149454 33216014 33294532 
2621.953 33385478 33489150 33605876 33735636 33878504 34034148 34201996 
2625.328 34380808 34568884 34764004 34963772 35165856 35368760 35571360 
2628.703 35773048 35973060 36170468 36363248 36548724 36723748 36885712 
2632.079 37032296 37162032 37274156 37367708 37441308 37493216 37520740 
2635.454 37521280 37492780 37434232 37345572 37228452 37085520 36920236 
2638.829 36736512 36538448 36330460 36116456 35900360 35685448 35474596 
2642.204 35270316 35074788 34890480 34719424 34563500 34424240 34302564 
2645.580 34198768 34111844 34040812 33984412 33941592 33911896 33895524 
2648.955 33892976 33905052 33931924 33973520 34029128 34097508 34176724 
2652.330 34264768 34359328 34458032 34558624 34659128 34758080 34854756 
2655.705 34948796 35040556 35130432 35219180 35307116 35394964 35483260 
2659.081 35572904 35664656 35759484 35858144 35960932 36068136 36179904 
2662.456 36296204 36417580 36544396 36677272 36816460 36961720 37112372 
2665.831 37267296 37425416 37585876 37748560 37913476 38081348 38252616 
2669.206 38427712 38606428 38788768 38974448 39163728 39356676 39554212 
2672.582 39756996 39965684 40180508 40401512 40628196 40859984 41095972 
2675.957 41335116 41576360 41818576 42061152 42303380 42544948 42785764 
2679.332 43025732 43264548 43502032 43737412 43970132 44200004 44426844 
2682.707 44651192 44873492 45094692 45315484 45535988 45756792 45978036 
2686.083 46200168 46424104 46650632 46880896 47115712 47356056 47602292 
2689.458 47854996 48114660 48381668 48656764 48940756 49234356 49538148 
2692.833 49852628 50178276 50514884 50862256 51219716 51586052 51959900 
2696.208 52340092 52724992 53113868 53506200 53901812 54300828 54703256 
2699.583 55108804 55517140 55927328 56338812 56750456 57161552 57571064 
2702.959 57978088 58381552 58780304 59173504 59560140 59939744 60311644 
2706.334 60675368 61030132 61375220 61710120 62034196 62347340 62649736 
2709.709 62941104 63221716 63491048 63748108 63991724 64221152 64434940 
2713.084 64632416 64812748 64975464 65119632 65244564 65349624 65434320 
2716.460 65498276 65541504 65563544 65563664 65540852 65493068 65418376 
2719.835 65314768 65180420 65014444 64816564 64586936 64326920 64037912 
2723.210 63721516 63379616 63014464 62628180 62223012 61802216 61369112 
2726.585 60928212 60484632 60043448 59610196 59189260 58784476 58398568 
2729.961 58033452 57690664 57371744 57078484 56812616 56575476 56368048 
2733.336 56190244 56040936 55918852 55821740 55747708 55694820 55661676 
2736.711 55646604 55648116 55664424 55693876 55734824 55785760 55845480 
2740.086 55913272 55988724 56071396 56161736 56260316 56368160 56487468 
2743.462 56620284 56769112 56935896 57121980 57327956 57553248 57797164 
2746.837 58057956 58334292 58624148 58925740 59237184 59556228 59880712 
2750.212 60208904 60539364 60871216 61204244 61538476 61873808 62210280 
2753.587 62547052 62883124 63216924 63546844 63870376 64185000 64488256 
2756.963 64777596 65050660 65305912 65542428 65759644 65957688 66136836 
2760.338 66297652 66440992 66568620 66683152 66788092 66887528 66985516 
2763.713 67085080 67187792 67293168 67398840 67500424 67592976 67670960 
2767.088 67728688 67761072 67764048 67734152 67669368 67568704 67432816 
2770.464 67262216 67058900 66824876 66562092 66273064 65961004 65629400 
2773.839 65282224 64924164 64559212 64190880 63822396 63455916 63093960 
2777.214 62738964 62393548 62060800 61743656 61444344 61164800 60905680 
2780.589 60667556 60450240 60253324 60075784 59915820 59771380 59639348 
2783.965 59516132 59398576 59283480 59168036 59050192 58927944 58798404 
2787.340 58659268 58507400 58339520 58153824 57948324 57722452 57476344 
2790.715 57210344 56925320 56622096 56301996 55966792 55618396 55259636 
2794.090 54893052 54521288 54146992 53772152 53398836 53028912 52663792 
2797.466 52304696 51952204 51606348 51266656 50932928 50604896 50283428 
2800.841 49969936 49665992 49373732 49094580 48829212 48577980 48340668 
2804.216 48117328 47907980 47713596 47535008 47373128 47228852 47102272 
2807.591 46993748 46902932 46829484 46772800 46732096 46706452 46694428 
2810.967 46695052 46707228 46730364 46764348 46809444 46865616 46932688 
2814.342 47009256 47093780 47183932 47277576 47372940 47468808 47564360 
2817.717 47659644 47754204 47848528 47942316 48035788 48129136 48222912 
2821.092 48317740 48414596 48514692 48619444 48730932 48851236 48982592 
2824.468 49126892 49285684 49459940 49650204 49857200 50081844 50326252 
2827.843 50592796 50884496 51203272 51549932 51922856 52318412 52730680 
2831.218 53151648 53573028 53985512 54379200 54745424 55075588 55362532 
2834.593 55601452 55789976 55928008 56018016 56063628 56069396 56039992 
2837.969 55980172 55895032 55790092 55672596 55549180 55427460 55314016 
2841.344 55214332 55132652 55072656 55037228 55030304 55056520 55120692 
2844.719 55227616 55381012 55581984 55829276 56118224 56441052 56786408 
2848.094 57140424 57487692 57810564 58093180 58321444 58484956 58579368 
2851.469 58605720 58571136 58486476 58365936 58225084 58078332 57939920 
2854.845 57821920 57733956 57683512 57675680 57713144 57796256 57923792 
2858.220 58092916 58299768 58539592 58807848 59099048 59408300 59730964 
2861.595 60062392 60398912 60736796 61072004 61400564 61717456 62016804 
2864.970 62293036 62540656 62755504 62934748 63077100 63182896 63252992 
2868.346 63288832 63292900 63267716 63217192 63146220 63059860 62963860 
2871.721 62863208 62762432 62665464 62576056 62497880 62435248 62392672 
2875.096 62374424 62384176 62424304 62495472 62597068 62727632 62885112 
2878.471 63066908 63270776 63493884 63733028 63985348 64247660 64517236 
2881.847 64792292 65071636 65354316 65639772 65927148 66215476 66503852 
2885.222 66791720 67078972 67365784 67653152 67941352 68230792 68521280 
2888.597 68812240 69103168 69393696 69683800 69973312 70262368 70550200 
2891.972 70836048 71118800 71397520 71671184 71938608 72198448 72448896 
2895.348 72687768 72912552 73120896 73311272 73482448 73633912 73765128 
2898.723 73875208 73963280 74028416 74070112 74089088 74087088 74066848 
2902.098 74031128 73982808 73923952 73856040 73780440 73699008 73614008 
2905.473 73528288 73445016 73366896 73295888 73233376 73180544 73138816 
2908.849 73110120 73097104 73102352 73128384 73176072 73244896 73331824 
2912.224 73433008 73542416 73653112 73757816 73848032 73915744 73953856 
2915.599 73956360 73919712 73843312 73728928 73579936 73401144 73196976 
2918.974 72971104 72726000 72462480 72180096 71877888 71553768 71206080 
2922.350 70833984 70437216 70017616 69578664 69125152 68663040 68198192 
2925.725 67736016 67280744 66835584 66402532 65982492 65575680 65181500 
2929.100 64799020 64426488 64062372 63705316 63354844 63011088 62675296 
2932.475 62348988 62033776 61730668 61440256 61162204 60896416 60642600 
2935.851 60400548 60170236 59951232 59742336 59541936 59347748 59157216 
2939.226 58968736 58781216 58594648 58410052 58228528 58051668 57880288 
2942.601 57715264 57556688 57404528 57258544 57118240 56982932 56852004 
2945.976 56724520 56599748 56477316 56357184 56239460 56125236 56015376 
2949.352 55911352 55814696 55727440 55651768 55589776 55543912 55516160 
2952.727 55508592 55523200 55561796 55626232 55717572 55836020 55979568 
2956.102 56143596 56320516 56499808 56668944 56815524 56927736 56996452 
2959.477 57016440 56986328 56908624 56788672 56634552 56455696 56261560 
2962.853 56062084 55865748 55679680 55509836 55360384 55234424 55134048 
2966.228 55060204 55013684 54993188 54996944 55020940 55059868 55107448 
2969.603 55156692 55200524 55233296 55250040 55247068 55222420 55174940 
2972.978 55104480 55011988 54899216 54768428 54622316 54463776 54295948 
2976.354 54121204 53941428 53757904 53571380 53381676 53188164 52990428 
2979.729 52788256 52581768 52372760 52163476 51957212 51757388 51567244 
2983.104 51388744 51223480 51071732 50933300 50807988 50695816 50596816 
2986.479 50511456 50440224 50383252 50340760 50312820 50299796 50301808 
2989.854 50319368 50352516 50401636 50466644 50548384 50648268 50769028 
2993.230 50914224 51087832 51292644 51529040 51793484 52078188 52369920 
2996.605 52651600 52904224 53107204 53242168 53295548 53259588 53135096 
2999.980 52931888 52669104 52372424 52070940 51796248 51574968 51428168 
3003.355 51369016 51400604 51516652 51701548 51933496 52184032 52421208 
3006.731 52615016 52736664 52763864 52684516 52495984 52206300 51831752 
3010.106 51394936 50920708 50431852 49949752 49489872 49063084 48675816 
3013.481 48330484 48026684 47761712 47532016 47333256 47161252 47012540 
3016.856 46884184 46774128 46680332 46600872 46533560 46476320 46426944 
3020.232 46384028 46346904 46315200 46289140 46268716 46253200 46241480 
3023.607 46231972 46223052 46213652 46203444 46192944 46182772 46174220 
3026.982 46167736 46163608 46161360 46159996 46157972 46153916 46146216 
3030.357 46134128 46117252 46096436 46072672 46047876 46023304 45999768 
3033.733 45976856 45953172 45926728 45895904 45859628 45817836 45771924 
3037.108 45723400 45674112 45625196 45577204 45529772 45482384 45434332 
3040.483 45385480 45335752 45285736 45235796 45187112 45140644 45097484 
3043.858 45059220 45026872 45001440 44982956 44970496 44962300 44956604 
3047.234 44951792 44947420 44944224 44943816 44948376 44959840 44979244 
3050.609 45006620 45041100 45081528 45127004 45177296 45233036 45295556 
3053.984 45366756 45448608 45542688 45650188 45771812 45907576 46057052 
3057.359 46218520 46389596 46566676 46744240 46915780 47073244 47207128 
3060.735 47307616 47364736 47368764 47312604 47190988 47002316 46748556 
3064.110 46436052 46074332 45675216 45252304 44819228 44387648 43968336 
3067.485 43569356 43196356 42853340 42542532 42264740 42019828 41806248 
3070.860 41622012 41463960 41328704 41213052 41114256 41030088 40959480 
3074.236 40901484 40855468 40820268 40793988 40774228 40757812 40741508 
3077.611 40722656 40699220 40670144 40635432 40595996 40553216 40508836 
3080.986 40465260 40424312 40388060 40358496 40336572 40322972 40317484 
3084.361 40319156 40326316 40336388 40346604 40352896 40350712 40335116 
3087.737 40300940 40243940 40161136 40051756 39917736 39762516 39592068 
3091.112 39412656 39230196 39049920 38875836 38710088 38554392 38409468 
3094.487 38275592 38153008 38041560 37940520 37848832 37764900 37686616 
3097.862 37611492 37537428 37462404 37384680 37303580 37218776 37130924 
3101.238 37041060 36950212 36859708 36770152 36681672 36593596 36505508 
3104.613 36416248 36325420 36232920 36138780 36043656 35947828 35851736 
3107.988 35755560 35659440 35563376 35467476 35372068 35276892 35181808 
3111.363 35086604 34990960 34894900 34798680 34703344 34609860 34519300 
3114.739 34432028 34347888 34265884 34184644 34103100 34020456 33936508 
3118.114 33851924 33767400 33683068 33598860 33513990 33427380 33338320 
3121.489 33246562 33152566 33057592 32963388 32870852 32780938 32693692 
3124.864 32608568 32525212 32443192 32362756 32284550 32209214 32137208 
3128.240 32068424 32001968 31936490 31870556 31802740 31732582 31660192 
3131.615 31586818 31513668 31442490 31374420 31310030 31249460 31191818 
3134.990 31136284 31082144 31028474 30974776 30921048 30866972 30812404 
3138.365 30757132 30700584 30642482 30582538 30520896 30457770 30393694 
3141.740 30329236 30264790 30200990 30137768 30075444 30014158 29954052 
3145.116 29895374 29838692 29784218 29732340 29683306 29637224 29593878 
3148.491 29552982 29513968 29475742 29437408 29397840 29356076 29311518 
3151.866 29263842 29213266 29160110 29105120 29049000 28992642 28936784 
3155.241 28882104 28829414 28779350 28732300 28688796 28648728 28611956 
3158.617 28578090 28546382 28516376 28487364 28458814 28430476 28401930 
3161.992 28373382 28344910 28316936 28289986 28264842 28242248 28222906 
3165.367 28207738 28197342 28192182 28192640 28198614 28210176 28226936 
3168.742 28249072 28276442 28309756 28349652 28397614 28454992 28523452 
3172.118 28604560 28699628 28809480 28934872 29076528 29234886 29410460 
3175.493 29603668 29814878 30044196 30291184 30555306 30835098 31128702 
3178.868 31433512 31746450 32063250 32379784 32690906 32991272 33275750 
3182.243 33538900 33775600 33981292 34151596 34283376 34374460 34424496 
3185.619 34434716 34407816 34347996 34260180 34149588 34021964 33882556 
3188.994 33736924 33590376 33447314 33311096 33183146 33063706 32950732 
3192.369 32841436 32732670 32621604 32506284 32385640 32259460 32128040 
3195.744 31991806 31851620 31708416 31563870 31420082 31279088 31143012 
3199.120 31013172 30890238 30774344 30665166 30562344 30465802 30375322 
3202.495 30291078 30212640 30139792 30071714 30008228 29949686 29896688 
3205.870 29850156 29810620 29777618 29749762 29724888 29701188 29677310 
3209.245 29653188 29630520 29611188 29597248 29589514 29587670 29589976 
3212.621 29594906 29600864 29607604 29615764 29626476 29640700 29658474 
3215.996 29678980 29700906 29722796 29743908 29764276 29784680 29806006 
3219.371 29828826 29853138 29878622 29904996 29932148 29960762 29991968 
3222.746 30026976 30066460 30110528 30157870 30206496 30254522 30299676 
3226.122 30340926 30378058 30411570 30442984 30474440 30508134 30546206 
3229.497 30589968 30640028 30695748 30755600 30817312 30878568 30937628 
3232.872 30993670 31046874 31098090 31148850 31199936 31252272 31305794 
3236.247 31360426 31415700 31471520 31528130 31585674 31644940 31706170 
3239.623 31769476 31834684 31901148 31968086 32034714 32099784 32162506 
3242.998 32222666 32280662 32337554 32395064 32455474 32520212 32590422 
3246.373 32665540 32744530 32825462 32906696 32986804 33065672 33143804 
3249.748 33221844 33300862 33381150 33462346 33543840 33624420 33703728 
3253.124 33781440 33857908 33933856 34010248 34087400 34165572 34244516 
3256.499 34323720 34402616 34481096 34558624 34635552 34711996 34788160 
3259.874 34864308 34940788 35017536 35094728 35172144 35249332 35325732 
3263.249 35400320 35472400 35540896 35605524 35666024 35723216 35778408 
3266.625 35832812 35888048 35945236 36004628 36066336 36129272 36192580 
3270.000 36255032 36315696 36373552 36427992 36478732 36525332 36568620 
3273.375 36608992 36647960 36686428 36725692 36766044 36807156 36848052 
3276.750 36887120 36922940 36954432 36981456 37004476 37024320 37042360 
3280.125 37059648 37076860 37094724 37113740 37134172 37156296 37180152 
3283.501 37205204 37230364 37254372 37275960 37294156 37308960 37321204 
3286.876 37332032 37343012 37355108 37368612 37383380 37397972 37411044 
3290.251 37421664 37428884 37432680 37433692 37432532 37430260 37428016 
3293.626 37426576 37426684 37428560 37432392 37437916 37444600 37452000 
3297.002 37459440 37466484 37472480 37476780 37479056 37478476 37475084 
3300.377 37469016 37460884 37451932 37443476 37436760 37432680 37431448 
3303.752 37432716 37436216 37441416 37447992 37455864 37465256 37475804 
3307.127 37487360 37499320 37511204 37522692 37533924 37545452 37557840 
3310.503 37571712 37586708 37602640 37618720 37634400 37649868 37665728 
3313.878 37683548 37704504 37729984 37760272 37794936 37833144 37873816 
3317.253 37915972 37959036 38002828 38047676 38093720 38141104 38190020 
3320.628 38240348 38291912 38344676 38398064 38451748 38504964 38556856 
3324.004 38606504 38653292 38696684 38736820 38773916 38808512 38841416 
3327.379 38873376 38904680 38935560 38965644 38994312 39020300 39042848 
3330.754 39060832 39074096 39083088 39088708 39092300 39095416 39098752 
3334.129 39102376 39106004 39108360 39108580 39106004 39099948 39090736 
3337.505 39078012 39061736 39041436 39016568 38986372 38950636 38909356 
3340.880 38863120 38812792 38759640 38704652 38648476 38591324 38532844 
3344.255 38472308 38408416 38339972 38266036 38186580 38102148 38014508 
3347.630 37925876 37838492 37754092 37673356 37595920 37520524 37445248 
3351.006 37368832 37290256 37209680 37127564 37044888 36962404 36880552 
3354.381 36799332 36718408 36637256 36555676 36473328 36390124 36305968 
3357.756 36221176 36135684 36049956 35964784 35880852 35798736 35719260 
3361.131 35642320 35568052 35495988 35425840 35357076 35289400 35222124 
3364.507 35154648 35085852 35015416 34943052 34868508 34792612 34716300 
3367.882 34640288 34565224 34491248 34418216 34345664 34273808 34202676 
3371.257 34132704 34064176 33997060 33930776 33864500 33797020 33727900 
3374.632 33657360 33586292 33516172 33448386 33384080 33323080 33264946 
3378.008 33208538 33152818 33096816 33040110 32982334 32923356 32862630 
3381.383 32799556 32733884 32665506 32595530 32525390 32457650 32394386 
3384.758 32337304 32287334 32243722 32205504 32170854 32137956 32105702 
3388.133 32073274 32040312 32006644 31971722 31934742 31894696 31850550 
3391.509 31801954 31749122 31693090 31635496 31578228 31522646 31469028 
3394.884 31416732 31364628 31311028 31255014 31196624 31136960 31078194 
3398.259 31022388 30971074 30924322 30881308 30839720 30796860 30750976 
3401.634 30700550 30645788 30587444 30527188 30466264 30405350 30344870 
3405.010 30284576 30224326 30163872 30103320 30043130 29983838 29925548 
3408.385 29868186 29811686 29755440 29699166 29642794 29586180 29529714 
3411.760 29473046 29416028 29357778 29297552 29234744 29168828 29100230 
3415.135 29029906 28959170 28889292 28821058 28754178 28687416 28619176 
3418.510 28547586 28471374 28390186 28305334 28219016 28133634 28051520 
3421.886 27974334 27902496 27835334 27772102 27711212 27651530 27592526 
3425.261 27533250 27473100 27411968 27349046 27284296 27217300 27148128 
3428.636 27076674 27002834 26926714 26848250 26767786 26686318 26604442 
3432.011 26524026 26445984 26371194 26299870 26231546 26165204 26100456 
3435.387 26036844 25974260 25913234 25853554 25795182 25737204 25678460 
3438.762 25617580 25553546 25486116 25415602 25343062 25269972 25198160 
3442.137 25129028 25064082 25003290 24946506 24891658 24836468 24777566 
3445.512 24712638 24640076 24560512 24476478 24391828 24310770 24236066 
3448.888 24168874 24107716 24049892 23992148 23931922 23868314 23801490 
3452.263 23732720 23663226 23593778 23524200 23453654 23381546 23308018 
3455.638 23233836 23160822 23090266 23023320 22959668 22898014 22836336 
3459.013 22773200 22707106 22638230 22567234 22495484 22424372 22355052 
3462.389 22288044 22223070 22159640 22096566 22032910 21967660 21900574 
3465.764 21831580 21761726 21692060 21623796 21557354 21492802 21428956 
3469.139 21364494 21298022 21228532 21156202 21081588 21005734 20929580 
3472.514 20853686 20777558 20700856 20622914 20544014 20464540 20386190 
3475.890 20310214 20238660 20172604 20111728 20055824 20003046 19951284 
3479.265 19898138 19841534 19779454 19712082 19640002 19565614 19491828 
3482.640 19421034 19354892 19293368 19234348 19175612 19114044 19047604 
3486.015 18975636 18899076 18819556 18739702 18661282 18586300 18515516 
3489.391 18450032 18390226 18336270 18287710 18244170 18203774 18164698 
3492.766 18124866 18082892 18037888 17989466 17938286 17884974 17830044 
3496.141 17774502 17719552 17666370 17616920 17572340 17533804 17500512 
3499.516 17470468 17440390 17405932 17363928 17311754 17249244 17178192 
3502.892 17101640 17024170 16949540 16881018 16820534 16768286 16722899 
3506.267 16681613 16640918 16596921 16546905 16489323 16425245 16357837 
3509.642 16291268 16230108 16177658 16134670 16099870 16070437 16043104 
3513.017 16014878 15984522 15951695 15916910 15880616 15843121 15803672 
3516.393 15761616 15716780 15670197 15623756 15580034 15541398 15509049 
3519.768 15482130 15457579 15431383 15399421 15358192 15306979 15246918 
3523.143 15181788 15116187 15054438 14999008 14950410 14906824 14865162 
3526.518 14822613 14776743 14727073 14674358 14620005 14565385 14511559 
3529.894 14458528 14406599 14355739 14307589 14263622 14225857 14194976 
3533.269 14170362 14149309 14128189 14103202 14071953 14034102 13991257 
3536.644 13946947 13904521 13865795 13831724 13801624 13774022 13748029 
3540.019 13723543 13701384 13682576 13667497 13655666 13644861 13632142 
3543.395 13613611 13585885 13546366 13494239 13429645 13355492 13275749 
3546.770 13195952 13121737 13057983 13007451 12970034 12942757 12920638 
3550.145 12898280 12871112 12836948 12796747 12754230 12714002 12680363 
3553.520 12655971 12640825 12633353 12630762 12630044 12628953 12626054 
3556.896 12620084 12610056 12595389 12575367 12550129 12520628 12488879 
3560.271 12457746 12430571 12410284 12399067 12398283 12406943 12422149 
3563.646 12438618 12448915 12443425 12413387 12351271 12254909 12129027 
3567.021 11985538 11841550 11713372 11614191 11548820 11515748 11507276 
3570.396 11513468 11525513 11536061 11540825 11538204 11528779 11513944 
3573.772 11495605 11475396 11454304 11433756 11414196 11395998 11379467 
3577.147 11364638 11350964 11338516 11326953 11316649 11307534 11300121 
3580.522 11294577 11291686 11292503 11298420 11310765 11330592 11357189 
3583.897 11387597 11416135 11434709 11433688 11404740 11342904 11249622 
3587.273 11133311 11009250 10895518 10807020 10753455 10736099 10749685 
3590.648 10783887 10826315 10866402 10894907 10907171 10902211 10882540 
3594.023 10852914 10819079 10786436 10758515 10737559 10724347 10718031 
3597.398 10716910 10718132 10717827 10712155 10698299 10675207 10644577 
3600.774 10611200 10580574 10559220 10550902 10557115 10575889 10603323 
3604.149 10634459 10663593 10685734 10695582 10688689 10660877 10610249 
3607.524 10538443 10451885 10360898 10278276 10214124 10172435 10150185 
3610.899 10138755 10126986 10105654 10071944 10030269 9991989 9969442 
3614.275 9973307 10006499 10064620 10136109 10206085 10260566 10287980 
3617.650 10281703 10241908 10175149 10092970 10009619 9939608 9893166 
3621.025 9875743 9886827 9921844 9973816 10035931 10104094 10177455 10257547 
3624.883 10346103 10441057 10533996 10608279 10640163 10604511 10484300 
3628.258 10281974 10026607 9766204 9552969 9418318 9365973 9377045 9422483 
3632.115 9474734 9512867 9528650 9524382 9510022 9497356 9494578 9503486 
3635.973 9520250 9537524 9549005 9552257 9549242 9545110 9545009 9552698 
3639.830 9568143 9589382 9612924 9636942 9662521 9693827 9735977 9793960 
3643.688 9869336 9958695 10054718 10145233 10216906 10256258 10252458 
3647.063 10199029 10095479 9947304 9763900 9559574 9352025 9159905 9003624 
3650.920 8900291 8859472 8882130 8958533 9071319 9196622 9310080 9389605 
3654.778 9418995 9394617 9326126 9236627 9152832 9097237 9081436 9103124 
3658.635 9151275 9210363 9267868 9313939 9344509 9360455 9365431 9364145 
3662.492 9361538 9362385 9370002 9387980 9418995 9464574 9524687 9596460 
3666.350 9673735 9747431 9803584 9827850 9806058 9730184 9604184 9448353 
3670.207 9297825 9190023 9153542 9196183 9303411 9442969 9572444 9650494 
3674.065 9641889 9532375 9337366 9105492 8898566 8763849 8718648 8747892 
3677.922 8821261 8905838 8979370 9032277 9067057 9093346 9121599 9158822 
3681.780 9205727 9259745 9317731 9379854 9449098 9530242 9624476 9727337 
3685.637 9826426 9904251 9940353 9918454 9832832 9692539 9519505 9341360 
3689.494 9183695 9060358 8974398 8921125 8894677 8890078 8904621 8936041 
3693.352 8981704 9036134 9093007 9145929 9190971 9227286 9258154 9288753 
3697.209 9323790 9365059 9410294 9453670 9486586 9501487 9493461 9462779 
3701.067 9415372 9361505 9313499 9282424 9275079 9293154 9334894 9395056 
3704.924 9467215 9545855 9625628 9702297 9772507 9832765 9879133 9907267 
3708.781 9911945 9887437 9829951 9737875 9614719 9469891 9319051 9180852 
3712.639 9073654 9010289 8995776 9026933 9093921 9184473 9285030 9383579 
3716.496 9472193 9546702 9607064 9656321 9698299 9735910 9769424 9796467 
3720.354 9813480 9817276 9807583 9787181 9761596 9737604 9719476 9708362 
3724.211 9700908 9691624 9674718 9648190 9615567 9586434 9574307 9589923 
3728.069 9639754 9720153 9821139 9925369 10014536 10074216 10097039 10085950 
3731.926 10052581 10013112 9978799 9951440 9920759 9870659 9787486 9668077 
3735.783 9525534 9384798 9275349 9217030 9216015 9265736 9353379 9466640 
3739.641 9597816 9743941 9902555 10066247 10219450 10334091 10374065 
3743.016 10306064 10115488 9826257 9503418 9236458 9092635 9090064 9202003 
3746.874 9377993 9564552 9714359 9797416 9801551 9733233 9612145 9463490 
3750.731 9308997 9162341 9032480 8928904 8861705 8840536 8868333 8939356 
3754.588 9038469 9145658 9242076 9312788 9351110 9358423 9341902 9310046 
3758.446 9269798 9224781 9178314 9134965 9103497 9093684 9112801 9161461 
3762.303 9231584 9308353 9374268 9415745 9427325 9414763 9391705 9375826 
3766.161 9379651 9404842 9442224 9476020 9489973 9473345 9424921 9354124 
3770.018 9278395 9215744 9178754 9172494 9193949 9234631 9284556 9334827 
3773.875 9379719 9416388 9445374 9468469 9487738 9503655 9514052 9514526 
3777.733 9499997 9466741 9416016 9354801 9295829 9252502 9234867 9245461 
3781.590 9278802 9323350 9365431 9393702 9402743 9393567 9372338 9348300 
3785.448 9329038 9318509 9316850 9321827 9330798 9342207 9355851 9372101 
3789.305 9390587 9409718 9427664 9442834 9456142 9469755 9487196 9510327 
3793.163 9537760 9564044 9581557 9583013 9565772 9534610 9501928 9484961 
3797.020 9498237 9547684 9626677 9717782 9794874 9829037 9798297 9693149 
3800.877 9526651 9333269 9162544 9058632 9043544 9112497 9238726 9386491 
3804.735 9515305 9593547 9602863 9543688 9437043 9318712 9226575 9184101 
3808.592 9195574 9248575 9324400 9405553 9482353 9554560 9627761 9708701 
3812.450 9798060 9888081 9961407 9996803 9975137 9889335 9752005 9597037 
3816.307 9467960 9400271 9409346 9484284 9595580 9702907 9768001 9761731 
3820.165 9672380 9512900 9320913 9147925 9035288 9004165 9048144 9143797 
3824.022 9259440 9366447 9446017 9490617 9505551 9504332 9504637 9519640 
3827.879 9553950 9603033 9656456 9702466 9731911 9741908 9735876 9722560 
3831.737 9712089 9713716 9732488 9769220 9820055 9878116 9934319 9978020 
3835.594 9998193 9985682 9935404 9849610 9738113 9618954 9511749 9432201 
3839.452 9387912 9377383 9391671 9418724 9447304 9469281 9480084 9479915 
3843.309 9471957 9462034 9456887 9463016 9486010 9529158 9593276 9676784 
3847.167 9776913 9890284 10014739 10149540 10293646 10443772 10591711 
3850.542 10719729 10801381 10804269 10695786 10460370 10114742 9717070 
3853.917 9346878 9074432 8933098 8913921 8984410 9104850 9244581 9382428 
3857.774 9507956 9618344 9714291 9796026 9863405 9914827 9948795 9965848 
3861.632 9967781 9957000 9934455 9899979 9853677 9799009 9746144 9710158 
3865.489 9707379 9748041 9830460 9938794 10045731 10121017 10138077 10084423 
3869.347 9969137 9823682 9690777 9603743 9576340 9597511 9643380 9685491 
3873.204 9704127 9693556 9663537 9633690 9624815 9650629 9712123 9798772 
3877.062 9892521 9973951 10026268 10038407 10008195 9942998 9859846 9780403 
3880.919 9727100 9715375 9749362 9819479 9905708 9983071 10024912 10012027 
3884.776 9940049 9823105 9692878 9586332 9534475 9548802 9620580 9725880 
3888.634 9835917 9923335 9967577 9961101 9909403 9830460 9746144 9678580 
3892.491 9641584 9639754 9669737 9724694 9797077 9879912 9967171 10053972 
3896.349 10134346 10201946 10251000 10276580 10277123 10254562 10215175 
3899.724 10167110 10118236 10073164 10031659 9988869 9937777 9872828 9792705 
3903.581 9702907 9613771 9539014 9490311 9473379 9487738 9526550 9580947 
3907.439 9641482 9700603 9754310 9800703 9839645 9871777 9898419 9920861 
3911.296 9941473 9963780 9991582 10027454 10071910 10121864 10170671 
3914.671 10209749 10231459 10230849 10207985 10167279 10117015 10066009 
3918.047 10020537 9984427 9958695 9942930 9936896 9940591 9953711 9974663 
3921.904 9999448 10022707 10038136 10041527 10032032 10013451 9993006 
3925.279 9978901 9977918 9992328 10020639 10057667 10097548 10135125 
3928.655 10166635 10190379 10205372 10210834 10205643 10188716 10160462 
3932.030 10123255 10082321 10044341 10016061 10002058 10003482 10017892 
3935.405 10040408 10065366 10088086 10105619 10117998 10126783 10134515 
3938.780 10143062 10152796 10162191 10168264 10167585 10157511 10137635 
3942.156 10110334 10080490 10054107 10036983 10032541 10041289 10060143 
3945.531 10084288 10107756 10125663 10135125 10135635 10129258 10118507 
3948.906 10106908 10096734 10089274 10085102 10084119 10086221 10091410 
3952.281 10099006 10108332 10117930 10125901 10130852 10131869 10129564 
3955.656 10124917 10120067 10116879 10116166 10117829 10121288 10124713 
3959.032 10126986 10126918 10124238 10119185 10112979 10106976 10102906 
3962.407 10102601 10107383 10117693 10132718 10150625 10168671 10184205 
3965.782 10195162 10200894 10202218 10200962 10199402 10198961 10200419 
3969.157 10203100 10206254 10209070 10211207 10213140 10215820 10220060 
3972.533 10225997 10233223 10241093 10248625 10255545 10261856 10267793 
3975.908 10273730 10279532 10284417 10287810 10289303 10288760 10286724 
3979.283 10284044 10281601 10279396 10277225 10274511 10270813 10266503 
3982.658 10261958 10258599 10257513 10259176 10264027 10271321 10280346 
3986.034 10290457 10301144 10311968 10322860 10333107 10341997 10348852 
3989.409 10353093 10354688 10354179 10352449 10350073 10347494 10344407 
3992.784 10340504 10335482 10329612 10323911 10319670 10318652 10321706 
3996.159 10329341 10341182 10356283 10373793 10392865 10412956 10433828 
3999.535 10454769 10474931 10493226 
##END=
