
##TITLE=Z361_3_e
##JCAMP-DX=5.01  $$ Nicolet v. 1
##DATATYPE=INFRARED SPECTRUM
##ORIGIN=UniL
##OWNER=Nicolet
##LONGDATE=2011/09/14
##TIME=13:40:54
##SPECTROMETER/DATA SYSTEM=Nicolet iS5
##DATA PROCESSING=
Ratio against background
%Transmittance->Absorbance
Truncated
ElementMultiply or ElementDivide
##COMMENTS=
Number of sample scans: 32
Collection length: 51.22 sec
Sample gain: 2.0
Background collected on: Mer Sep 14 13:30:21 2011 (GMT+02:00);
Number of background scans: 32
Background gain: 2.0
Sample spacing:  1.000
Number of scan points: 12415
Resolution points: 8192
Number of FFT points: 65536
Apodization: N-B fort;
Phase correction: Mertz;
Laser frequency: 15798.0 cm-1
Number of rejected sample scans: 0
Number of rejected background scans: 0
Bench serial number: ASB1000141;
##RESOLUTION=4.000
##XUNITS=1/CM
##YUNITS=ABSORBANCE
##FIRSTX=649.893372
##LASTX=4000.122314
##FIRSTY=0.094497
##MAXX=4000.122314
##MINX=649.893372
##MAXY=0.177217
##MINY=0.003390
##XFACTOR=1.000000
##YFACTOR=1.000000E-009
##NPOINTS=6950
##DELTAX=0.482117
##ZPD=6100
##XYDATA=(X++(Y..Y))
649.893 94496784 94746416 95057880 95423520 95821768 96230056 96636368 
653.268 97047504 97484272 97970936 98520496 99128696 99774184 100430824 
656.643 101076160 101699968 102303584 102890784 103463128 104013704 
659.536 104533712 105016776 105465192 105889120 106301104 106709976 
662.428 107119768 107535384 107970392 108457216 109044872 109790264 
665.321 110745496 111934784 113331720 114831272 116267712 117465112 
668.214 118351624 119020248 119704920 120680616 122165984 124336992 
671.107 127315816 131163656 135860944 141259936 147077456 152843024 
673.999 157962192 161817216 163816608 163583168 161051936 156511040 
676.892 150532336 143822288 137091184 130857664 125427272 120893456 
679.785 117176648 114096576 111433936 108998328 106638552 104259352 
682.677 101820712 99321856 96792024 94274552 91818856 89468288 87252592 
686.052 85191808 83296112 81571224 80022472 78652936 77462672 76444352 
689.427 75583104 74857048 74240688 73710272 73246784 72836720 72472464 
692.802 72148448 71858880 71597016 71354568 71123440 70898576 70677720 
696.177 70462200 70255584 70061136 69882504 69721032 69577456 69451936 
699.551 69343664 69250504 69168712 69092680 69015328 68930552 68833912 
702.926 68724048 68603120 68474344 68341384 68204936 68063768 67914080 
706.301 67751968 67574824 67382736 67178432 66966920 66753276 66541276 
709.676 66332928 66127888 65924368 65719172 65508948 65290160 65058856 
713.051 64811252 64542412 64247540 63922732 63565908 63177840 62763192 
716.425 62330324 61890468 61454872 61032988 60629764 60244644 59872688 
719.800 59506176 59138532 58765968 58387732 58006640 57625356 57245652 
723.175 56866396 56484640 56096204 55698400 55290604 54874552 54453748 
726.550 54033164 53617452 53212356 52824068 52458632 52122120 51818536 
729.925 51548924 51310616 51098604 50907072 50731344 50569376 50421616 
733.300 50290684 50179724 50091700 50029160 49994436 49989712 50016892 
736.674 50077120 50170760 50298460 50461848 50666252 50921680 51241412 
740.049 51641464 52137548 52742836 53469100 54331244 55349996 56561288 
743.424 58019060 59794652 61988600 64725676 68150584 72436760 77752944 
746.799 84231600 91915968 100694536 110237784 119929376 128954528 136335760 
750.174 141093872 142524688 140315072 134673760 126249464 116024144 
753.066 105073872 94301600 84412376 75806392 68609984 62772616 58132192 
756.441 54496116 51670948 49497300 47849600 46618872 45716592 45066424 
759.816 44602464 44277968 44061876 43936988 43897068 43940908 44070860 
763.191 44291872 44612860 45046168 45604844 46300380 47139244 48122436 
766.566 49248904 50519688 51943284 53536556 55320448 57311736 59511916 
769.940 61896240 64409576 66958496 69427672 71684944 73590216 75021472 
773.315 75876232 76081160 75604208 74454240 72686008 70389248 67686872 
776.690 64717284 61610108 58489736 55460136 52600280 49974472 47624888 
780.065 45572164 43816500 42337860 41102272 40065708 39185844 38426736 
783.440 37760668 37170008 36642912 36170252 35743616 35355244 34998892 
786.815 34671584 34373172 34105176 33869052 33663520 33484210 33325550 
790.189 33180926 33045936 32918852 32799556 32688438 32585352 32488574 
793.564 32395956 32306000 32218028 32133638 32054010 31980712 31913630 
796.939 31852368 31796538 31747126 31706418 31677478 31662188 31660658 
800.314 31669852 31685460 31702500 31717896 31730660 31741850 31752936 
803.689 31764664 31776748 31788014 31798388 31810262 31827766 31856290 
807.063 31899970 31959846 32033504 32115764 32201148 32286122 32369930 
810.438 32454294 32541852 32633644 32728382 32822356 32910988 32990806 
813.813 33060238 33119916 33171340 33215906 33254002 33285410 33310342 
817.188 33330702 33349950 33372742 33402082 33438760 33480238 33522364 
820.563 33561096 33594996 33626176 33660188 33703800 33762064 33837672 
823.938 33929664 34035148 34150912 34274808 34406848 34548252 34700400 
827.312 34864128 35039048 35224212 35418580 35621492 35832380 36050712 
830.687 36275204 36504424 36737196 36974708 37220148 37478948 37757164 
834.062 38058160 38380980 38718888 39060756 39392192 39699048 39970952 
837.437 40201556 40389656 40538264 40654100 40746712 40828348 40915828 
840.812 41027980 41185216 41408332 41714428 42116860 42625424 43246796 
844.186 43987256 44854972 45859700 47014904 48336224 49839400 51540344 
847.561 53451932 55581416 57926856 60470732 63176340 65975584 68768496 
850.936 71425448 73779696 75657016 76892400 77347240 76946152 75686048 
854.311 73646280 70973008 67871032 64582632 61336600 58345772 55775700 
857.686 53723892 52233092 51291788 50853688 50848292 51197644 51828200 
861.060 52666184 53643880 54697884 55760668 56766924 57654604 58364724 
864.435 58851444 59083828 59047080 58744988 58198600 57445184 56531020 
867.810 55511076 54441768 53370396 52335904 51363832 50466720 49649388 
871.185 48911904 48253348 47672952 47170192 46743428 46388932 46101152 
874.560 45873400 45699104 45573012 45491028 45449344 45444376 45471196 
877.935 45524256 45598808 45691556 45801412 45929492 46077572 46248080 
881.309 46441584 46658012 46896808 47157412 47440088 47745436 48073724 
884.684 48424004 48793884 49180252 49579856 49990680 50412276 50845312 
888.059 51289996 51745368 52208128 52673256 53135060 53588960 54032712 
891.434 54466596 54892676 55313264 55729740 56142012 56549096 56950064 
894.809 57345196 57736112 58126016 58518244 58916252 59323628 59744352 
898.183 60184204 60651516 61156100 61709204 62322176 63004576 63765100 
901.558 64611696 65551832 66592604 67740000 68995640 70353400 71794856 
904.933 73289536 74789816 76234040 77553736 78670728 79508032 79998888 
908.308 80087608 79743816 78967488 77796112 76301504 74584248 72768856 
911.683 70977616 69324888 67909736 66801496 66046560 65667480 65663972 
915.058 66013852 66670672 67568280 68611696 69683920 70663760 71425136 
918.432 71865688 71925080 71590608 70904112 69949648 68846520 67719280 
921.807 66679208 65816284 65182388 64796596 64652072 64726368 64991504 
925.182 65420532 65993832 66697172 67522256 68465848 69528728 70716672 
928.557 72040328 73516120 75165168 77011144 79081888 81406536 84015000 
931.932 86940072 90214360 93866944 97921576 102388968 107261200 112502400 
935.306 118048392 123800112 129619912 135353856 140831312 145884976 
938.199 150383904 154238784 157424528 159982608 162025072 163718832 
941.092 165247184 166797872 168507936 170428400 172498864 174532816 
943.985 176238272 177217024 177053312 175376224 171908624 166555472 
946.877 159417680 150796432 141126000 130929184 120746944 111024888 
949.770 102117352 94251664 87521600 81931592 77414880 73866920 71157176 
953.145 69145784 67698760 66679524 65966792 65463564 65093496 64811288 
956.520 64597660 64450660 64377448 64386636 64483376 64668068 64937784 
959.894 65287808 65712616 66204636 66753624 67347952 67975376 68626480 
963.269 69296600 69986120 70698496 71436424 72199472 72983296 73782096 
966.644 74591440 75411376 76247432 77108528 78002576 78935184 79908464 
970.019 80924304 81987336 83107856 84299064 85572632 86932264 88368688 
973.394 89860168 91376904 92893544 94394152 95879232 97363976 98873744 
976.768 100436712 102076608 103814072 105665712 107646056 109771192 
979.661 112059096 114533848 117234544 120219328 123571576 127394048 
982.554 131773904 136740192 142196096 147888944 153367248 158014864 
985.447 161204656 162382016 161257040 157898848 152741424 146480624 
988.339 139861392 133593752 128175896 123853736 120668192 118497808 
991.232 117148136 116404752 116093568 116089024 116299800 116664576 
994.125 117133600 117664912 118229840 118813464 119412520 120028912 
997.017 120659712 121290712 121900176 122463488 122964112 123399632 
999.910 123779928 124120392 124432480 124719800 124978768 125205576 
1002.803 125403080 125584704 125770272 125980528 126227040 126510008 
1005.695 126820224 127147672 127488304 127848264 128240808 128679064 
1008.588 129168480 129702536 130265832 130839664 131412000 131978240 
1011.481 132541432 133104816 133666408 134217128 134745376 135243984 
1014.374 135717536 136183856 136671104 137207056 137812256 138497472 
1017.266 139265696 140120752 141074064 142146192 143365072 144759232 
1020.159 146350000 148152352 150177552 152436096 154937456 157677584 
1023.052 160621856 163676080 166675840 169402496 171589408 172993744 
1025.945 173451200 172909280 171450336 169266016 166628944 163813968 
1028.838 161065440 158570400 156429984 154675056 153276560 152168544 
1031.731 151263552 150470432 149714128 148936352 148103424 147204800 
1034.624 146245632 145240608 144206448 143161856 142126464 141123360 
1037.517 140183808 139343840 138641120 138113584 137792224 137701648 
1040.410 137861328 138283248 138970656 139908672 141057872 142342352 
1043.303 143647488 144842256 145786560 146367600 146529552 146282992 
1046.196 145706608 144920512 144072640 143298752 142699904 142341168 
1049.089 142243136 142392576 142750352 143264880 143878624 144532032 
1051.982 145172464 145754992 146242752 146610480 146839760 146917088 
1054.875 146832720 146579472 146155120 145563152 144814224 143922656 
1057.768 142901760 141760528 140500624 139118560 137610016 135975456 
1060.661 134223856 132373632 130448608 128473104 126470192 124458288 
1063.554 122452816 120469800 118524888 116634624 114813704 113071784 
1066.448 111412656 109834768 108334232 106907680 105554280 104275824 
1069.341 103074912 101952480 100905792 99928632 99012816 98150664 97335832 
1072.716 96563776 95829368 95125152 94441264 93765696 93086864 92397488 
1076.091 91695624 90985072 90273288 89569064 88881264 88217480 87586008 
1079.466 86996752 86461128 85991912 85600352 85294104 85076240 84946000 
1082.842 84900672 84938184 85058064 85261360 85548256 85916024 86357264 
1086.217 86858800 87405128 87979368 88564968 89148352 89717688 90262640 
1089.592 90776760 91257552 91710152 92147728 92593464 93077544 93631504 
1092.967 94288712 95079664 96031688 97173888 98537336 100156328 102071288 
1096.343 104322664 106947440 109973584 113408720 117229984 121364672 
1099.236 125687064 130000072 134029776 137471360 139997664 141321456 
1102.129 141269472 139806768 137064208 133296552 128857744 124122416 
1105.022 119410256 114986160 111017272 107580296 104687032 102299136 
1107.915 100352832 98768456 97467104 96374448 95419392 94543088 93696008 
1111.290 92836952 91937096 90974824 89936176 88816048 87617144 86352496 
1114.665 85042152 83712840 82393792 81109968 79882864 78726528 77648928 
1118.041 76654168 75743392 74915992 74168520 73494816 72884176 72322768 
1121.416 71794816 71284552 70777856 70263688 69733632 69180832 68600752 
1124.791 67990368 67350312 66684848 66003472 65319732 64648604 64006544 
1128.166 63408488 62867000 62393932 61999376 61692512 61481828 61373504 
1131.542 61371596 61478008 61693356 62019100 62459196 63021048 63715868 
1134.917 64557368 65558688 66731788 68085504 69624592 71351088 73262552 
1138.292 75351904 77604088 79993112 82482728 85020224 87540128 89969512 
1141.667 92221512 94205064 95828992 96999688 97639736 97697288 97158800 
1145.042 96059304 94483896 92565864 90457616 88322968 86319712 84571560 
1148.418 83175912 82196008 81661712 81579776 81938680 82716488 83884064 
1151.793 85409688 87263488 89413200 91824920 94458856 97255944 100135048 
1155.168 102986320 105658864 107980896 109766328 110825592 111007304 
1158.061 110207800 108393296 105609768 101983360 97710904 93015888 88141448 
1161.437 83310040 78688000 74395088 70491424 66987032 63858516 61061628 
1164.812 58546264 56260428 54159488 52207308 50373800 48637012 46981640 
1168.187 45397804 43881192 42431784 41052520 39747844 38523760 37387212 
1171.562 36346240 35411140 34594108 33907200 33360862 32958704 32694190 
1174.938 32546174 32478466 32445084 32391172 32265280 32028080 31656060 
1178.313 31148388 30524592 29824000 29095058 28389478 27757340 27237268 
1181.688 26856672 26630864 26562136 26641080 26845992 27145270 27495654 
1185.063 27844944 28140918 28331400 28375578 28251194 27956136 27510374 
1188.438 26949560 26322682 25680288 25067416 24522158 24068734 23718898 
1191.814 23473834 23327106 23267360 23280820 23354308 23475198 23632156 
1195.189 23816192 24019566 24236138 24461300 24690752 24920782 25148056 
1198.564 25369442 25582400 25785126 25976232 26154824 26319582 26468874 
1201.939 26600216 26710630 26796966 26856462 26886316 26883814 26845782 
1205.315 26768668 26648304 26481130 26264738 25999660 25689322 25341096 
1208.690 24965526 24574924 24183060 23803452 23447358 23124232 22841086 
1212.065 22601788 22408324 22260630 22157024 22094892 22071362 22083806 
1215.440 22130106 22208876 22319088 22459368 22628210 22823240 23041836 
1218.816 23282112 23542772 23823472 24124842 24447874 24793212 25161186 
1222.191 25551264 25962724 26394856 26847226 27319334 27810852 28321462 
1225.566 28850448 29397698 29963460 30548658 31155044 31785094 32441300 
1228.941 33126782 33844868 34598916 35392556 36228308 37107136 38027604 
1232.317 38984344 39969752 40972592 41979972 42978540 43953888 44891860 
1235.692 45779584 46605408 47361484 48045412 48661400 49220512 49739624 
1239.067 50241136 50748360 51285972 51878832 52549120 53317836 54203856 
1242.442 55221404 56381176 57688320 59143356 60742544 62479972 64349860 
1245.818 66346980 68467480 70708480 73067152 75540288 78124488 80815968 
1249.193 83610680 86502936 89481968 92530560 95621064 98712344 101753368 
1252.568 104677800 107401248 109827888 111838488 113295640 114063352 
1255.461 114007432 113023936 111060312 108121120 104274304 99637408 94377648 
1258.836 88685976 82759536 76803608 70998296 65490836 60395560 55778524 
1262.212 51667996 48061476 44934264 42248560 39958964 38020660 36388176 
1265.587 35018180 33873884 32921422 32132250 31484488 30958906 30539984 
1268.962 30215340 29973222 29803452 29697604 29647618 29646980 29690332 
1272.337 29772580 29889836 30038268 30214700 30416686 30642410 30891164 
1275.713 31163410 31460658 31784844 32137744 32519784 32928896 33360432 
1279.088 33806116 34254944 34695196 35115416 35507352 35867464 36197944 
1282.463 36506480 36804016 37103492 37414800 37743032 38086848 38439044 
1285.838 38788840 39124928 39440268 39734012 40013204 40290616 40583008 
1289.214 40908216 41281036 41713664 42215148 42791064 43445560 44181296 
1292.589 44998868 45896492 46868420 47905832 48995020 50119740 51262144 
1295.964 52402816 53523892 54609312 55645816 56625532 57546552 58413352 
1299.339 59234640 60023244 60792968 61556080 62324472 63108748 63919088 
1302.715 64766056 65659584 66606784 67609896 68664312 69757136 70866704 
1306.090 71964456 73016656 73981664 74814968 75469600 75896360 76054072 
1309.465 75912776 75459584 74702328 73668304 72402072 70955064 69384720 
1312.840 67748096 66094936 64472072 62920920 61476784 60174500 59046624 
1316.216 58121360 57423700 56966532 56746644 56737320 56887396 57123720 
1319.591 57351588 57475024 57404640 57068772 56429016 55480728 54253224 
1322.966 52800568 51196080 49521472 47850412 46250180 44771656 43446000 
1326.341 42290088 41307236 40491304 39830784 39311404 38918924 38637900 
1329.717 38454176 38354488 38325788 38356184 38434264 38548056 38686616 
1333.092 38838772 38994528 39146140 39288664 39419696 39540352 39653924 
1336.467 39765856 39881960 40009024 40154160 40324352 40528188 40774916 
1339.842 41073388 41432644 41858636 42352656 42908968 43512804 44139296 
1343.218 44750424 45300888 45739340 46014352 46085896 45928752 45538088 
1346.593 44929452 44138236 43216196 42220916 41215528 40258660 39395788 
1349.968 38661116 38074004 37640616 37357776 37215272 37198924 37290692 
1353.343 37472192 37725320 38032340 38377976 38748520 39130804 39512804 
1356.719 39881232 40221000 40516912 40752640 40912588 40984572 40959588 
1360.094 40833952 40609456 40294796 39906224 39466644 39007724 38564784 
1363.469 38170116 37850712 37621176 37484544 37433724 37455684 37535008 
1366.844 37655612 37804440 37970680 38146568 38326580 38506744 38683316 
1370.219 38852248 39008448 39145812 39258632 39342132 39394916 39420640 
1373.595 39429564 39438236 39465304 39530080 39646808 39823124 40062184 
1376.970 40364604 40732264 41171592 41694004 42315836 43056024 43930428 
1380.345 44947492 46101520 47369024 48702580 50030348 51269156 52325140 
1383.720 53109412 53551588 53597356 53218572 52419004 51246184 49795624 
1387.096 48198660 46611088 45169096 43966284 43051156 42428896 42081188 
1390.471 41978916 42093200 42398684 42873272 43501264 44268904 45164248 
1393.846 46175364 47286220 48475684 49718932 50988892 52259024 53505148 
1397.221 54700964 55818236 56828552 57704060 58426084 58990032 59406252 
1400.597 59695192 59880520 59985088 60026208 60014492 59951992 59830132 
1403.972 59627412 59310748 58845332 58201408 57367772 56357184 55206996 
1407.347 53973656 52720352 51518368 50438848 49546652 48906708 48571940 
1410.722 48577608 48939640 49651468 50689932 52020180 53605792 55410372 
1414.098 57394848 59520236 61741748 64006968 66266768 68470464 70571216 
1417.473 72531192 74318296 75909104 77287072 78448344 79398224 80146544 
1420.848 80706432 81087968 81296008 81328888 81179712 80840592 80306688 
1424.223 79582128 78681088 77623136 76423848 75088000 73606392 71960424 
1427.599 70132280 68119576 65943532 63656360 61334808 59061164 56915500 
1430.974 54960732 53235764 51759516 50529660 49527564 48723744 48084348 
1434.349 47580256 47191800 46917000 46772984 46791140 47000764 47412336 
1437.724 48007328 48740276 49544904 50338304 51033200 51532656 51744284 
1441.100 51603660 51081460 50198656 49016676 47630800 46147248 44662136 
1444.475 43261912 42009096 40941132 40077588 39421908 38967092 38699184 
1447.850 38599440 38643076 38798332 39031540 39308320 39597296 39876656 
1451.225 40134172 40370388 40598288 40841088 41127840 41487436 41947236 
1454.601 42531972 43263156 44154448 45203472 46381228 47629064 48872560 
1457.976 50042396 51086380 51968676 52661996 53139328 53379840 53366276 
1461.351 53083164 52515540 51643740 50447776 48919656 47086316 45029408 
1464.726 42875396 40775936 38858228 37191488 35788192 34620160 33645616 
1468.102 32827002 32139632 31570320 31111332 30755068 30491642 30309766 
1471.477 30202412 30170622 30224648 30379124 30647458 31038154 31554106 
1474.852 32197688 32974004 33889540 34951528 36164308 37527208 39035708 
1478.227 40682336 42458892 44353076 46347824 48420300 50537628 52662784 
1481.603 54759256 56792068 58731180 60547932 62208368 63676008 64909660 
1484.978 65868488 66522816 66857688 66878372 66605508 66072560 65318272 
1488.353 64377604 63287488 62087288 60821896 59543608 58302268 57132220 
1491.728 56043348 55016652 54009336 52960444 51802556 50470516 48911200 
1495.104 47098176 45040952 42789276 40419768 38016428 35650448 33370092 
1498.479 31205026 29174144 27291460 25569642 24017218 22635054 21418166 
1501.854 20355840 19433160 18633372 17936042 17315478 16737534 16161837 
1505.229 15549709 14875140 14147358 13414335 12743038 12183547 11748877 
1508.604 11418381 11159284 10940606 10741941 10554772 10379290 10220535 
1511.980 10083270 9970594 9882013 9815649 9768882 9739197 9724016 9719849 
1515.837 9723373 9733063 9750752 9782640 9836120 9916691 10023860 10149778 
1519.695 10279329 10396259 10489323 10560883 10627837 10716367 10848328 
1523.070 11031069 11258735 11516156 11787891 12060615 12328261 12592421 
1526.445 12859132 13134886 13422536 13720466 14023972 14327760 14627373 
1529.820 14919546 15200146 15460223 15685862 15857108 15952658 15960082 
1533.196 15885290 15758729 15622966 15520313 15475022 15489443 15550327 
1536.571 15636500 15726537 15799446 15838724 15833465 15780650 15687201 
1539.946 15569627 15451502 15355205 15295619 15276125 15289681 15321876 
1543.321 15355755 15379407 15388813 15391010 15400416 15433030 15498714 
1546.697 15597549 15720559 15854256 15986688 16110944 16228698 16348515 
1550.072 16482817 16641503 16829214 17045158 17286826 17553434 17847858 
1553.447 18176928 18549436 18972070 19447090 19972862 20543770 21155644 
1556.822 21804508 22488924 23210732 23976740 24798438 25681694 26632274 
1560.198 27648176 28720300 29844796 31019720 32247360 33530456 34870948 
1563.573 36266880 37703744 39157960 40597340 41984680 43287648 44478048 
1566.948 45527636 46408032 47084212 47519556 47687412 47582996 47232324 
1570.323 46683060 45992696 45209872 44365336 43475920 42547464 41578692 
1573.698 40568456 39519228 38446136 37393204 36436824 35676812 35210628 
1577.074 35095804 35341512 35922960 36803584 37954120 39360268 41023824 
1580.449 42957796 45181636 47717180 50585236 53802304 57376620 61302180 
1583.824 65551676 70075080 74788872 79583040 84326584 88856416 92995976 
1587.199 96567624 99406872 101415720 102593160 103060880 103034920 102793072 
1590.575 102618800 102722720 103226424 104136664 105354952 106684512 
1593.468 107856632 108583472 108559392 107522992 105310232 101872160 
1596.361 97302912 91809232 85683568 79231408 72727376 66414968 60472900 
1599.736 55023796 50139744 45831236 42056476 38729140 35746528 33006608 
1603.111 30431044 27982816 25659726 23486914 21496282 19717178 18166356 
1606.487 16847400 15754571 14875415 14192477 13682576 13317464 13067612 
1609.862 12901694 12793334 12722634 12674768 12640757 12612511 12581302 
1613.237 12535634 12461225 12341385 12160886 11908771 11584210 11201034 
1616.612 10788372 10383227 10017892 9712767 9473412 9294339 9163153 9064417 
1620.470 8981332 8896910 8796780 8672269 8523462 8359473 8195445 8047206 
1624.327 7923517 7825636 7746970 7678098 7609169 7533070 7446401 7349571 
1628.185 7246699 7143885 7049076 6970651 6915637 6889513 6894428 6928229 
1632.042 6984658 7053319 7121384 7173763 7196063 7178108 7117882 7024122 
1635.899 6915671 6814887 6738052 6691480 6672436 6673109 6683842 6696494 
1639.757 6706791 6714631 6724592 6743504 6777966 6831346 6902306 6983984 
1643.614 7066150 7137181 7185115 7201150 7182083 7131321 7059482 6982637 
1647.472 6918903 6883117 6884699 6926478 7005164 7111718 7229955 7337676 
1651.329 7402449 7387350 7265297 7041566 6766691 6510052 6322379 6213228 
1655.187 6164763 6151085 6151723 6155387 6158613 6163284 6173400 6191583 
1659.044 6217093 6245665 6270573 6284759 6282137 6259077 6215245 6154446 
1662.901 6084784 6017015 5962929 5932058 5929002 5953153 5997866 6052696 
1666.759 6103433 6135626 6137777 6103467 6034620 5940825 5837782 5741747 
1670.616 5665673 5617437 5598305 5604783 5628345 5657113 5676046 5669701 
1674.474 5628916 5554842 5463097 5376001 5315252 5291236 5301634 5334841 
1678.331 5377309 5419379 5458030 5498732 5550848 5622538 5713444 5811790 
1682.188 5893398 5928095 5887958 5764075 5578032 5378349 5215878 5117198 
1686.046 5080890 5087259 5113007 5137214 5146199 5134229 5101172 5051926 
1689.903 4994071 4938001 4894302 4872555 4879122 4913771 4969571 5031042 
1693.761 5078443 5091584 5058932 4986128 4899864 4837607 4826685 4873392 
1697.618 4960522 5057960 5128027 5137080 5069726 4940045 4793215 4681234 
1701.476 4638029 4665793 4745109 4848664 4951406 5035098 5089170 5112135 
1705.333 5111397 5100099 5091249 5094433 5113644 5148177 5194349 5247905 
1709.190 5305726 5366104 5429310 5496383 5569072 5648251 5733555 5822872 
1713.048 5913148 6000519 6080584 6148732 6199649 6226404 6221194 6177534 
1716.905 6093722 5976903 5843928 5717238 5615121 5547492 5512792 5501517 
1720.763 5499806 5493900 5474304 5435651 5379054 5309416 5234389 5160986 
1724.620 5093796 5034797 4984217 4941318 4904757 4873158 4844878 4818409 
1728.478 4793684 4773182 4761926 4766080 4790100 4832783 4885254 4929756 
1732.335 4941955 4898859 4787822 4620247 4431580 4269664 4170362 4142730 
1736.192 4174176 4239583 4313099 4371432 4399112 4391012 4352054 4295363 
1740.050 4236773 4189130 4157850 4142027 4136407 4135605 4135772 4135170 
1743.907 4134702 4136240 4142228 4154472 4174075 4200940 4233895 4270199 
1747.765 4305636 4335956 4356070 4362127 4352020 4327188 4292954 4258053 
1751.622 4233394 4228207 4247580 4291113 4353459 4425086 4494081 4550027 
1755.479 4585085 4597944 4594194 4585788 4585721 4602532 4637895 4685688 
1759.337 4735429 4773751 4790368 4779681 4743435 4690444 4633039 4584583 
1763.194 4553710 4544000 4553610 4577551 4608626 4638699 4661406 4673228 
1767.052 4675606 4674535 4679827 4700593 4740453 4795627 4853858 4899328 
1770.909 4914978 4891052 4829734 4746985 4666363 4608157 4582808 4587998 
1774.767 4613247 4645766 4676343 4701330 4722633 4743971 4768827 4796766 
1778.624 4824071 4845146 4856069 4856739 4851546 4847324 4849535 4859621 
1782.481 4874833 4889209 4896614 4893967 4882306 4866423 4852987 4847022 
1786.339 4851412 4866691 4891688 4925936 4969035 5020182 5076431 5132016 
1790.196 5177315 5201760 5196730 5160583 5099630 5027824 4961494 4913872 
1794.054 4890716 4891118 4910521 4942592 4982307 5026115 5072106 5118069 
1797.911 5162025 5201056 5233249 5257597 5275707 5290901 5307437 5328870 
1801.769 5357316 5393043 5435047 5482692 5536149 5596593 5665941 5745306 
1805.626 5834592 5932193 6035258 6139793 6242135 6338516 6426041 6502047 
1809.483 6565014 6614365 6650296 6674454 6689596 6699051 6705579 6711434 
1813.341 6717323 6723010 6727486 6730077 6730447 6728865 6726106 6722303 
1817.198 6717020 6708978 6696258 6677113 6650969 6618974 6583717 6548767 
1821.056 6517552 6491991 6471811 6454121 6434717 6408488 6372240 6326211 
1824.913 6274439 6224488 6183987 6157974 6146649 6144834 6142919 6129544 
1828.771 6096007 6038148 5959905 5871198 5785229 5712806 5658657 5621699 
1832.628 5596459 5576791 5557761 5537726 5517658 5499840 5485813 5475243 
1836.485 5465748 5454440 5439744 5422700 5407368 5399652 5405221 5427062 
1840.343 5464573 5512457 5562594 5604313 5626701 5621599 5585081 5520846 
1844.200 5438872 5354632 5281845 5229359 5199145 5186805 5184625 5184022 
1848.058 5180065 5171481 5161455 5155319 5157935 5171246 5193277 5218863 
1851.915 5241901 5258502 5267692 5271817 5274668 5280336 5290029 5303311 
1855.772 5317834 5331956 5345139 5358959 5375128 5394586 5416561 5438234 
1859.630 5456352 5468834 5475881 5480075 5486082 5497759 5517557 5546116 
1863.487 5582262 5624721 5672756 5726034 5783282 5841544 5894876 5935081 
1867.345 5954295 5947577 5914928 5863507 5803664 5747052 5701593 5669265 
1871.202 5648083 5634253 5624083 5616598 5613208 5616362 5627942 5648587 
1875.060 5675979 5707133 5738389 5766728 5790635 5809339 5822771 5831200 
1878.917 5835935 5839529 5845607 5858335 5880938 5914223 5955908 6000587 
1882.774 6042246 6076283 6101081 6119093 6135727 6156933 6186609 6225429 
1886.632 6270237 6315621 6356369 6388278 6410673 6425469 6436768 6448740 
1890.489 6465892 6490275 6523136 6563567 6610328 6660659 6711737 6760802 
1894.347 6805934 6846762 6884733 6922303 6962065 7005905 7054094 7105723 
1898.204 7159278 7213750 7268869 7325410 7384688 7447547 7513652 7582026 
1902.062 7651388 7721436 7792508 7866560 7945282 8030465 8123328 8223842 
1905.919 8332452 8449974 8577903 8717803 8870767 9034950 9206133 9377045 
1909.776 9537489 9677022 9785825 9855643 9880454 9857710 9787757 9674718 
1913.634 9525364 9349350 9156757 8955726 8753707 8554349 8359845 8172383 
1917.491 7996140 7837309 7704134 7602290 7533880 7493729 7472896 7458536 
1921.349 7439592 7409392 7367534 7319479 7273889 7239085 7219882 7216512 
1925.206 7225777 7243565 7266881 7293903 7324769 7359344 7397191 7436626 
1929.063 7476469 7515574 7554412 7593895 7634561 7674894 7711757 7740595 
1932.921 7757831 7762789 7758539 7750208 7743799 7743091 7747813 7754559 
1936.778 7759180 7758640 7753547 7747577 7745486 7749769 7759383 7768220 
1940.636 7767815 7751051 7714354 7661337 7599897 7541027 7494335 7464940 
1944.493 7453850 7458839 7477211 7506370 7544027 7588061 7633988 7676378 
1948.351 7710306 7731488 7739414 7737356 7731454 7728182 7731926 7744811 
1952.208 7764544 7787313 7808498 7825906 7837579 7843551 7843314 7836837 
1956.065 7823342 7802898 7776788 7747341 7717794 7690070 7665046 7641676 
1959.923 7618139 7594838 7572652 7556030 7550130 7558053 7580576 7614632 
1963.780 7653445 7689396 7715736 7727744 7723258 7703257 7669802 7626535 
1967.638 7578216 7530913 7490492 7462952 7451457 7457120 7476738 7505730 
1971.495 7538667 7573225 7608461 7647240 7693173 7749364 7816156 7892608 
1975.353 7974305 8057805 8138891 8214623 8281925 8339477 8385651 8420244 
1979.210 8444940 8462711 8476867 8490889 8505824 8520219 8531775 8538804 
1983.067 8541575 8544245 8553402 8575639 8615451 8672539 8740014 8808480 
1986.925 8866710 8907698 8928397 8932049 8925658 8917777 8915037 8921328 
1990.782 8937461 8962593 8994118 9029301 9065839 9100350 9130059 9151918 
1994.640 9163255 9163491 9152460 9131988 9103767 9069628 9030857 8988334 
1998.497 8943043 8897721 8855719 8820822 8796071 8781194 8773552 8767805 
2002.354 8758879 8742448 8717837 8686669 8653576 8623528 8600039 8585642 
2006.212 8581046 8584763 8594902 8610009 8627111 8643301 8656585 8664697 
2010.069 8667131 8663818 8655909 8643944 8628463 8608218 8582972 8553673 
2013.927 8523699 8498830 8486531 8491937 8516333 8556072 8602067 8643538 
2017.784 8671863 8682376 8676528 8660302 8642220 8629072 8626875 8635696 
2021.642 8655199 8681531 8711413 8740453 8765269 8781227 8786231 8779064 
2025.499 8761888 8739878 8719865 8708134 8707729 8718885 8738256 8761279 
2029.356 8784135 8805944 8827855 8851763 8878816 8906684 8931305 8946762 
2033.214 8949435 8938239 8916052 8887609 8858019 8830222 8804422 8778861 
2037.071 8752083 8724463 8697757 8674973 8658816 8649859 8646512 8645735 
2040.929 8644924 8643200 8641747 8643436 8650264 8663210 8680179 8697689 
2044.786 8712461 8722400 8728892 8735687 8746606 8765912 8794617 8831575 
2048.644 8872526 8911993 8943752 8962728 8965535 8951194 8920888 8879120 
2052.501 8831169 8784270 8745220 8718378 8705329 8704280 8710434 8719189 
2056.358 8725578 8728181 8726187 8721421 8715031 8707796 8699447 8690150 
2060.216 8680145 8671322 8666488 8667942 8676866 8692787 8711988 8731190 
2064.073 8745288 8751880 8749547 8739372 8723178 8704010 8684269 8666590 
2067.931 8652394 8643133 8638366 8637353 8637690 8636980 8633026 8625185 
2071.788 8615079 8605650 8600106 8600681 8606968 8616938 8626401 8631911 
2075.646 8631404 8625320 8616329 8608049 8603250 8604162 8610584 8621839 
2079.503 8637318 8656720 8679942 8706782 8736058 8765539 8792521 8814735 
2083.360 8831507 8843849 8853994 8864072 8875029 8886459 8896132 8901170 
2087.218 8900123 8893122 8882705 8871783 8864072 8861637 8864748 8872425 
2091.075 8883246 8896369 8912095 8931272 8955354 8985527 9021926 9064214 
2094.933 9111109 9161596 9214221 9267632 9320675 9371932 9420519 9466267 
2098.790 9509955 9553714 9599307 9649139 9704804 9766543 9834561 9909030 
2102.647 9990530 10079846 10178134 10284824 10398057 10514137 10627565 
2106.023 10732940 10825873 10903434 10964325 11009114 11039192 11056254 
2109.398 11062405 11059007 11048742 11033550 11016285 10997865 10979243 
2112.773 10958785 10934150 10902687 10862460 10812591 10754303 10689266 
2116.148 10619110 10545504 10468821 10389199 10307116 10223758 10140823 
2119.524 10060618 9984936 9914522 9848830 9786741 9727100 9669432 9614584 
2123.381 9563435 9517270 9475986 9438736 9403623 9369088 9333811 9298096 
2127.239 9262622 9229045 9198721 9172459 9151072 9134119 9122005 9114494 
2131.096 9111414 9113139 9119264 9129821 9145150 9165962 9193272 9227591 
2134.953 9269053 9315631 9364111 9410835 9452789 9487806 9516118 9538912 
2138.811 9558252 9575629 9591583 9605742 9617125 9625086 9630065 9633521 
2142.668 9637755 9645784 9660962 9684746 9718798 9763053 9815480 9872184 
2146.526 9927573 9975647 10010128 10028913 10032507 10025183 10014265 
2149.901 10005279 10002329 10005143 10009450 10008907 9998702 9975612 
2153.276 9941541 9900691 9859337 9823478 9797891 9784809 9786809 9806634 
2157.134 9847915 9912658 10001414 10107925 10222774 10332632 10426532 
2160.509 10497096 10544248 10572290 10588417 10600097 10611811 10625019 
2163.884 10638431 10648448 10651946 10646886 10632896 10610146 10580914 
2167.259 10547508 10511693 10475677 10441702 10409291 10378747 10347867 
2170.635 10315632 10281058 10245605 10212157 10185936 10170706 10168433 
2174.010 10177455 10193500 10210223 10220773 10222198 10213140 10195807 
2177.385 10173792 10150083 10127087 10104975 10084084 10063975 10045833 
2180.760 10030370 10018944 10010433 10003008 9993243 9977714 9954016 9921132 
2184.618 9880150 9833748 9784775 9736418 9691048 9650765 9616549 9589144 
2188.475 9567770 9550292 9534780 9517981 9498237 9475715 9452045 9430102 
2192.333 9413138 9402405 9398544 9400000 9405452 9413679 9425294 9440497 
2196.190 9459156 9479339 9496950 9506805 9505483 9491327 9466809 9437958 
2200.047 9411681 9394582 9390113 9397834 9414221 9435385 9457462 9478391 
2203.905 9499523 9521808 9547210 9576407 9609638 9646157 9686508 9730726 
2207.762 9779421 9832765 9889437 9947711 10005753 10061771 10115658 10168942 
2211.620 10223893 10282449 10345594 10411700 10478189 10540853 10596599 
2214.995 10641929 10676022 10697789 10707842 10707469 10698707 10684580 
2218.370 10669264 10656666 10649195 10647464 10648753 10648788 10641317 
2221.745 10622337 10589029 10542110 10485250 10422288 10357233 10291746 
2225.121 10225692 10158054 10087476 10014162 9939506 9865846 9796264 9733470 
2228.978 9679054 9633826 9597816 9570175 9549005 9531765 9515238 9496272 
2232.835 9472160 9442901 9410632 9379177 9353074 9336689 9330831 9334454 
2236.693 9344170 9355512 9364416 9369257 9369426 9366515 9362757 9360014 
2240.550 9359574 9362385 9368039 9376198 9386017 9395497 9402540 9404808 
2244.408 9400610 9389673 9373387 9355072 9338821 9328665 9326600 9332897 
2248.265 9345965 9362892 9380430 9396615 9409582 9419131 9425158 9428815 
2252.123 9431084 9434335 9441581 9455600 9478729 9511377 9551546 9595105 
2255.980 9636164 9669602 9691929 9702737 9704059 9699722 9693793 9688575 
2259.837 9684780 9681832 9678139 9673363 9667569 9662453 9659844 9661268 
2263.695 9666620 9674989 9684475 9693488 9701213 9707753 9714562 9723000 
2267.552 9734080 9747431 9762240 9777150 9790536 9801415 9809413 9814903 
2271.410 9818259 9819886 9819818 9817750 9813683 9807176 9798805 9789079 
2275.267 9778675 9768678 9759326 9750820 9742924 9735470 9728082 9720459 
2279.125 9712699 9705075 9697655 9690811 9684442 9678716 9674006 9671194 
2282.982 9670855 9674176 9681867 9693624 9708735 9725507 9742585 9758445 
2286.839 9773084 9786774 9800873 9816293 9833748 9852660 9872590 9892318 
2290.697 9911166 9929505 9948524 9969781 9994463 10022742 10053972 10086323 
2294.554 10117862 10146962 10173928 10199504 10225997 10255240 10289099 
2297.929 10328220 10372368 10420490 10471401 10523812 10576840 10629671 
2301.305 10681896 10733450 10784227 10835113 10887397 10942951 11004152 
2304.680 11072942 11150411 11236837 11331340 11431817 11536197 11641690 
2308.055 11745711 11846114 11941022 12028764 12108584 12180241 12244139 
2311.430 12301672 12354884 12405749 12456587 12509170 12565033 12625713 
2314.806 12693054 12769004 12855924 12955662 13069456 13197148 13337212 
2318.181 13486857 13642468 13800256 13956458 14107686 14250782 14382179 
2321.556 14498507 14596395 14673776 14730089 14767351 14790352 14804854 
2324.931 14817985 14836225 14864511 14906069 14962344 15032553 15114540 
2328.307 15204470 15297369 15387474 15469047 15537174 15588620 15622932 
2331.682 15642373 15651338 15656147 15662124 15674319 15695686 15726948 
2335.057 15767526 15815802 15869034 15924782 15980225 16033443 16082713 
2338.432 16127551 16167788 16203932 16236711 16266396 16292471 16313732 
2341.808 16326942 16327355 16308159 16260240 16172223 16034337 15839444 
2345.183 15588070 15291534 14973285 14664694 14400297 14213292 14126922 
2348.558 14153793 14294748 14539756 14869859 15258553 15679369 16105544 
2351.933 16515996 16897346 17244038 17555470 17834326 18083722 18306372 
2355.309 18504036 18679684 18836198 18976814 19104002 19218588 19318900 
2358.684 19401560 19463828 19503402 19520938 19518582 19499764 19467880 
2362.059 19425260 19372838 19310758 19238540 19155664 19061762 18956356 
2365.434 18838932 18708672 18565344 18408926 18240056 18060096 17870886 
2368.810 17674100 17471606 17264724 17054806 16843128 16630590 16417639 
2372.185 16203968 15988648 15769655 15544901 15312952 15073339 14827036 
2375.560 14576658 14324814 14074794 13829091 13589269 13356380 13131129 
2378.935 12913913 12705814 12508112 12322056 12149232 11991056 11848361 
2382.311 11722086 11613136 11521531 11447670 11390862 11349944 11322702 
2385.686 11307024 11300495 11301140 11307704 11319437 11335966 11356611 
2389.061 11380726 11407053 11434981 11463761 11493769 11525955 11561853 
2392.436 11602790 11649654 11702275 11759158 11818330 11877338 11933563 
2395.812 11985231 12031421 12071687 12106813 12138431 12167872 12196871 
2399.187 12226247 12256272 12286266 12314762 12340362 12361906 12378884 
2402.562 12391839 12402136 12411035 12420069 12429923 12440766 12452120 
2405.937 12463372 12474387 12485367 12497132 12510773 12527176 12547093 
2409.313 12570797 12598118 12628783 12662145 12698172 12736418 12777057 
2412.688 12820021 12865446 12913299 12963479 13015509 13069081 13123376 
2416.063 13177816 13231921 13285724 13339775 13395061 13453363 13516046 
2419.438 13584414 13659529 13740950 13828167 13919951 14014630 14110732 
2422.813 14206788 14302179 14396256 14489702 14582826 14676929 14772732 
2426.189 14870477 14969890 15071006 15173450 15277840 15385619 15499538 
2429.564 15622657 15758350 15908558 16074253 16254427 16447062 16649490 
2432.939 16859662 17076448 17299962 17531354 17772050 18023070 18284566 
2436.314 18555420 18832842 19113628 19392934 19666074 19928042 20173644 
2439.690 20398170 20597516 20768140 20906738 21011508 21080890 21114388 
2443.065 21112614 21077100 21010184 20915570 20797476 20660546 20509730 
2446.440 20349832 20184544 20017342 19850272 19684968 19522394 19363934 
2449.815 19210554 19063806 18925554 18797306 18680688 18576860 18486748 
2453.191 18410586 18348470 18299670 18263174 18237810 18222608 18216766 
2456.566 18220604 18235012 18260928 18299634 18351306 18415044 18488650 
2459.941 18569390 18653986 18740706 18828932 18919634 19015410 19119204 
2463.316 19233446 19359916 19498932 19649606 19810874 19981814 20161844 
2466.692 20351638 20552248 20764908 20990466 21229020 21480408 21743682 
2470.067 22018130 22302380 22595540 22896478 23204196 23518010 23837508 
2473.442 24162812 24494530 24834152 25183062 25542724 25914748 26299622 
2476.817 26698158 27110778 27537804 27978540 28432032 28894924 29362068 
2480.193 29826378 30279532 30711502 31113040 31474158 31784736 32035072 
2483.568 32214388 32311782 32317996 32225024 32028720 31728696 31329154 
2486.943 30837730 30264930 29623708 28927080 28188856 27422944 26641784 
2490.318 25857562 25081774 24324014 23593846 22900006 22249016 21646816 
2493.694 21096718 20599496 20153862 19756428 19402738 19088042 18808172 
2497.069 18560018 18341870 18152504 17991502 17857664 17749406 17663608 
2500.444 17596528 17543600 17500824 17464258 17431250 17399828 17369446 
2503.819 17340030 17311858 17285274 17260724 17237488 17214700 17191050 
2507.195 17164716 17134004 17097608 17055012 17006390 16953296 16897760 
2510.570 16842060 16788744 16739670 16695766 16657135 16622603 16590828 
2513.945 16559571 16527629 16494107 16458934 16423145 16387841 16354328 
2517.320 16323399 16294982 16268633 16243590 16218722 16193582 16168304 
2520.696 16142923 16118439 16095331 16073773 16053831 16035128 16017215 
2524.071 15999340 15981395 15962867 15943205 15922375 15900137 15876664 
2527.446 15852744 15829377 15807556 15788794 15773986 15763333 15756771 
2530.821 15753748 15753472 15755363 15759485 15765566 15774295 15785495 
2534.197 15799206 15815390 15833465 15853053 15873984 15895806 15918182 
2537.572 15940661 15963312 15985588 16007898 16030693 16054003 16078139 
2540.947 16102415 16125660 16145572 16160255 16167855 16167788 16161116 
2544.322 16150076 16137833 16127827 16122462 16122945 16129339 16140275 
2547.698 16154168 16169231 16184501 16199600 16215008 16231587 16250230 
2551.073 16271763 16296221 16322849 16350888 16378723 16405046 16429236 
2554.448 16451156 16471565 16491972 16514344 16540227 16570965 16607007 
2557.823 16647736 16692081 16738568 16785196 16830590 16873406 16913090 
2561.198 16949264 16983028 17015280 17047672 17082066 17119046 17159340 
2564.574 17202358 17246658 17290996 17334238 17375860 17416384 17457084 
2567.949 17498788 17542394 17588004 17635208 17682898 17730838 17778608 
2571.324 17826766 17876204 17927754 17981970 18039198 18098818 18160482 
2574.699 18223748 18288368 18354484 18422166 18491796 18563406 18637280 
2578.075 18713758 18793364 18876998 18965044 19057956 19155248 19256654 
2581.450 19360920 19467708 19577088 19689406 19805984 19928248 20057038 
2584.825 20193292 20336950 20487636 20645118 20809468 20981008 21160760 
2588.200 21349840 21548718 21757860 21976234 22202216 22432990 22665494 
2591.576 22896094 23121262 23338086 23543964 23736674 23914348 24075144 
2594.951 24216798 24337366 24434660 24507328 24554974 24578220 24578850 
2598.326 24559460 24522578 24470764 24406198 24330498 24245002 24150834 
2601.701 24049540 23942112 23829878 23714138 23595736 23475828 23355288 
2605.077 23234992 23115742 22998444 22883694 22771910 22663538 22558648 
2608.452 22457832 22361574 22270186 22184328 22104270 22029948 21961178 
2611.827 21897472 21838478 21783918 21733754 21688054 21646572 21609274 
2615.202 21575880 21546142 21520584 21499800 21485352 21478736 21481488 
2618.578 21494682 21518496 21552202 21594300 21643194 21697770 21757130 
2621.953 21821476 21891582 21968740 22054104 22148900 22253550 22368168 
2625.328 22492028 22623848 22762132 22905246 23051200 23198848 23346896 
2628.703 23494260 23639994 23783082 23922086 24055636 24182114 24299800 
2632.079 24407460 24503332 24586388 24654946 24707306 24741576 24756028 
2635.454 24749642 24721828 24673006 24604974 24519702 24420358 24309892 
2638.829 24191258 24067368 23940852 23813566 23687510 23563762 23443234 
2642.204 23326584 23214332 23106724 23004454 22908564 22820062 22740378 
2645.580 22670590 22611422 22563500 22526856 22501138 22485924 22481072 
2648.955 22486516 22501764 22527204 22562138 22605942 22657430 22715172 
2652.330 22777392 22842588 22909472 22977134 23045192 23113154 23180988 
2655.705 23248414 23315326 23381266 23445856 23509474 23572438 23635550 
2659.081 23699932 23766142 23834918 23906332 23980242 24055914 24133214 
2662.456 24212104 24292864 24376126 24462806 24553290 24647930 24746766 
2665.831 24849308 24955628 25065346 25178602 25295434 25415740 25539420 
2669.206 25665982 25795040 25926004 26058518 26192586 26328030 26465282 
2672.582 26604406 26745622 26889348 27035908 27185342 27338248 27494632 
2675.957 27654390 27817282 27982392 28149330 28317254 28485806 28654532 
2679.332 28823040 28991048 29157702 29322186 29483684 29641658 29796178 
2682.707 29947556 30096750 30244930 30393338 30542864 30694254 30847654 
2686.083 31003172 31160562 31319644 31480178 31642232 31806198 31972688 
2689.458 32142666 32317064 32497038 32683116 32875710 33074718 33279900 
2692.833 33491120 33708280 33931884 34162348 34399960 34645024 34896728 
2696.208 35154400 35416820 35682712 35951140 36221284 36492820 36765684 
2699.583 37039404 37313872 37588548 37862644 38135536 38406424 38674480 
2702.959 38939292 39200280 39457320 39710668 39960416 40206860 40449880 
2706.334 40689104 40923548 41151812 41372580 41584528 41786800 41978952 
2709.709 42161328 42334320 42498680 42654920 42803500 42944996 43079552 
2713.084 43206716 43326268 43436956 43537160 43625440 43699780 43758740 
2716.460 43801616 43827712 43836952 43829180 43804368 43762112 43702088 
2719.835 43623572 43526168 43409712 43274100 43119580 42946788 42756512 
2723.210 42549732 42327744 42092032 41844044 41584892 41316348 41039776 
2726.585 40757556 40472428 40187636 39907204 39634828 39373800 39126812 
2729.961 38895804 38681576 38484876 38306168 38145484 38003008 37879056 
2733.336 37773356 37685748 37615720 37562356 37524604 37500980 37490000 
2736.711 37489708 37498380 37514380 37536236 37563800 37596932 37635880 
2740.086 37681340 37733524 37792148 37857296 37928772 38006844 38092776 
2743.462 38188136 38294660 38413560 38545664 38690128 38845724 39010620 
2746.837 39183016 39361792 39546772 39737788 39935136 40138604 40347588 
2750.212 40561144 40778156 40997680 41218952 41441760 41665956 41890780 
2753.587 42115796 42339284 42559748 42775268 42984280 43185016 43376648 
2756.963 43558292 43729132 43888928 44037236 44173408 44297928 44410400 
2760.338 44511120 44600776 44680348 44751640 44817172 44879188 44940180 
2763.713 45002064 45065428 45129724 45193620 45254440 45309084 45354252 
2767.088 45386324 45402072 45398540 45373344 45324460 45251312 45154136 
2770.464 45034116 44893036 44733420 44556976 44365884 44161892 43946556 
2773.839 43721872 43489764 43252504 43012416 42771980 42533284 42298452 
2777.214 42069180 41846892 41633100 41429368 41236404 41055692 40887760 
2780.589 40733136 40592212 40464900 40350460 40248044 40156192 40073120 
2783.965 39996748 39925148 39856172 39787716 39717856 39644628 39565972 
2787.340 39479856 39384464 39278000 39159232 39027188 38881784 38722544 
2790.715 38550228 38365088 38168380 37961348 37745308 37522076 37293688 
2794.090 37061448 36827244 36592372 36358060 36125240 35894884 35667208 
2797.466 35442560 35220584 35001228 34784572 34571180 34362020 34158872 
2800.841 33963520 33777176 33600612 33433930 33276144 33126642 32984838 
2804.216 32850872 32725346 32609534 32504748 32411844 32331344 32263138 
2807.591 32207072 32162576 32129322 32107026 32095286 32093718 32101244 
2810.967 32117408 32141526 32173030 32212068 32258820 32313212 32375180 
2814.342 32443974 32518246 32596782 32677792 32759856 32841724 32922462 
2817.717 33001248 33077936 33152494 33225458 33297784 33370700 33445164 
2821.092 33522076 33601760 33684108 33768904 33856224 33946824 34041992 
2824.468 34143420 34253404 34373960 34506784 34653316 34814904 34992608 
2827.843 35187524 35400644 35632856 35883332 36150664 36432212 36723928 
2831.218 37020928 37317736 37608424 37886468 38145880 38380544 38585348 
2834.593 38756888 38893452 38995436 39064856 39105208 39120108 39112964 
2837.969 39087260 39045460 38990724 38926172 38855620 38783552 38714720 
2841.344 38653328 38603496 38568696 38551132 38553160 38576480 38622436 
2844.719 38692044 38786340 38905480 39048648 39213916 39397816 39594976 
2848.094 39798536 40000344 40191088 40362604 40507820 40621860 40703040 
2851.469 40752280 40773280 40771568 40753880 40728040 40701404 40681532 
2854.845 40675060 40687284 40722328 40782340 40868284 40979728 41115496 
2858.220 41273932 41453244 41651296 41865864 42094184 42333040 42579296 
2861.595 42829644 43081600 43332528 43579868 43821228 44053220 44272168 
2864.970 44474708 44657216 44817536 44954072 45066460 45154576 45218768 
2868.346 45259476 45277348 45273744 45250908 45212592 45162848 45106748 
2871.721 45048448 44991556 44938968 44892856 44855268 44828448 44814860 
2875.096 44816804 44836532 44875584 44934852 45014156 45113436 45231604 
2878.471 45367344 45519028 45684232 45860404 46044748 46234808 46429084 
2881.847 46626876 46827972 47032516 47240372 47450656 47662008 47873312 
2885.222 48083276 48291636 48498948 48705876 48913236 49121332 49329556 
2888.597 49537108 49743120 49947000 50148744 50348908 50548084 50746572 
2891.972 50944364 51140984 51335452 51526500 51712780 51892424 52063244 
2895.348 52222816 52369132 52500248 52615388 52714552 52798848 52869124 
2898.723 52926308 52970068 52999972 53014572 53012628 52993724 52958196 
2902.098 52907072 52842140 52765396 52678640 52584012 52483308 52378404 
2905.473 52271508 52164712 52059436 51957436 51859716 51767352 51681320 
2908.849 51602840 51532620 51471440 51419104 51374836 51336868 51302936 
2912.224 51270460 51236716 51198984 51153992 51098864 51029956 50944180 
2915.599 50839088 50713428 50567552 50403420 50223952 50032692 49833120 
2918.974 49627992 49418656 49205372 48987672 48763740 48531624 48289228 
2922.350 48035084 47768444 47489948 47201628 46906368 46607880 46310076 
2925.725 46016048 45728444 45448716 45177480 44914752 44660156 44412788 
2929.100 44172164 43937500 43708136 43484088 43265648 43053316 42847820 
2932.475 42650240 42460648 42279348 42105976 41939828 41780600 41627920 
2935.851 41481604 41341276 41206672 41076888 40950960 40827912 40706824 
2939.226 40587520 40470284 40355516 40243864 40135588 40030572 39928488 
2942.601 39829080 39731728 39636388 39542852 39450900 39359400 39267444 
2945.976 39173296 39075440 38973144 38866344 38755908 38643984 38532736 
2949.352 38425032 38323288 38229784 38146136 38073932 38014440 37968656 
2952.727 37937808 37923200 37926168 37947896 37989052 38049520 38127396 
2956.102 38218996 38318688 38419348 38512568 38590132 38644924 38671476 
2959.477 38666876 38630804 38565072 38473324 38360928 38233760 38097844 
2962.853 37959396 37824104 37696628 37581216 37481152 37398984 37336224 
2966.228 37293760 37271048 37266428 37276720 37297732 37324236 37351172 
2969.603 37373812 37387896 37391004 37380996 37356840 37317628 37263072 
2972.978 37192784 37107104 37006928 36893828 36770012 36638048 36500428 
2976.354 36359248 36216208 36071628 35926232 35779736 35631960 35482864 
2979.729 35332992 35182852 35033444 34886172 34742104 34602612 34468936 
2983.104 34342112 34223468 34114496 34016588 33931096 33858984 33799992 
2986.479 33753292 33716976 33688800 33666848 33650200 33639100 33634984 
2989.854 33640356 33657324 33687976 33733448 33794084 33869728 33960904 
2993.230 34068188 34192996 34336484 34498852 34678112 34869368 35064120 
2996.605 35250368 35415056 35543236 35621924 35642460 35600380 35498396 
2999.980 35345324 35156444 34949944 34746128 34565152 34423488 34333652 
3003.355 34303208 34333616 34421088 34555464 34722332 34902368 35073496 
3006.731 35214220 35304204 35328252 35278220 35153644 34961220 34712820 
3010.106 34424420 34112416 33791396 33474476 33171698 32889936 32634142 
3013.481 32407060 32209322 32040100 31897332 31777822 31678156 31595118 
3016.856 31525888 31468172 31420260 31380762 31348172 31321354 31298742 
3020.232 31279266 31262170 31247004 31233332 31221084 31210190 31200362 
3023.607 31191534 31183702 31176688 31170814 31166328 31163124 31161488 
3026.982 31161346 31162270 31164086 31166398 31168250 31169320 31169034 
3030.357 31167184 31164014 31160206 31156362 31153086 31150524 31148352 
3033.733 31145254 31140554 31133010 31122542 31109410 31094210 31077304 
3037.108 31058974 31038618 31015236 30988334 30957448 30923290 30887178 
3040.483 30850570 30814644 30780248 30747456 30715910 30685756 30657272 
3043.858 30631352 30609060 30591568 30579196 30571872 30569064 30570060 
3047.234 30574538 30582574 30594268 30609914 30629290 30651370 30675408 
3050.609 30700584 30726794 30755102 30787576 30825956 30872200 30926990 
3053.984 30990006 31060150 31136034 31216598 31301770 31392194 31488906 
3057.359 31592838 31704318 31821922 31942658 32062038 32174100 32271490 
3060.735 32346762 32392278 32401062 32367576 32288368 32162256 31990732 
3064.110 31778176 31531446 31258934 30970684 30676972 30386870 30108612 
3067.485 29848170 29609094 29393232 29200120 29028914 28878068 28746034 
3070.860 28631668 28533962 28451738 28383746 28328218 28283692 28248470 
3074.236 28221456 28201656 28188680 28181538 28179346 28180302 28182316 
3077.611 28183376 28181254 28174928 28163862 28148092 28129146 28108182 
3080.986 28087222 28067920 28051874 28040634 28035050 28035228 28040918 
3084.361 28050884 28063714 28077536 28091038 28102102 28108676 28108430 
3087.737 28098566 28075732 28037382 27981580 27907654 27817248 27713578 
3091.112 27600896 27484146 27367958 27256072 27151020 27054176 26966024 
3094.487 26886352 26814764 26750450 26692872 26641258 26594474 26551710 
3097.862 26512052 26474086 26436758 26398940 26359296 26317294 26272342 
3101.238 26224508 26174320 26122836 26071148 26019924 25970146 25921886 
3104.613 25875394 25830098 25786110 25742936 25700044 25656878 25612942 
3107.988 25567394 25519848 25469986 25418130 25364840 25310608 25256102 
3111.363 25201916 25148266 25095500 25043724 24992936 24943382 24894956 
3114.739 24847272 24800192 24753360 24706360 24659468 24613354 24568472 
3118.114 24525698 24485138 24446576 24408898 24371220 24332146 24290900 
3121.489 24247594 24202750 24157278 24112442 24068698 24026430 23985284 
3124.864 23944702 23903810 23862082 23819062 23775276 23731006 23687264 
3128.240 23644996 23605288 23568728 23535462 23505208 23476948 23449352 
3131.615 23421620 23392630 23362280 23331092 23299732 23269178 23240304 
3134.990 23213248 23188224 23165018 23143522 23123918 23106444 23091278 
3138.365 23078490 23067520 23057212 23045890 23032158 23014620 22992472 
3141.740 22966130 22936612 22905210 22874056 22844580 22817864 22794710 
3145.116 22775156 22758676 22744710 22732350 22720688 22709236 22697400 
3148.491 22684938 22671882 22658232 22644232 22629852 22615158 22599834 
3151.866 22583884 22567200 22550064 22532790 22516456 22501764 22489796 
3155.241 22481002 22475488 22472872 22472036 22471790 22470708 22468232 
3158.617 22463764 22457764 22451028 22444818 22439688 22436794 22436060 
3161.992 22437422 22440492 22445516 22452286 22461496 22473570 22489236 
3165.367 22508430 22531044 22556102 22582558 22609886 22637426 22665702 
3168.742 22695830 22729382 22768522 22815174 22870806 22936684 23013362 
3172.118 23100644 23198394 23305850 23422566 23547986 23682086 23825082 
3175.493 23977404 24140220 24314238 24500316 24699028 24909694 25131380 
3178.868 25361678 25597862 25836568 26074138 26306734 26530542 26742062 
3182.243 26937678 27113528 27266796 27394640 27495548 27568802 27615408 
3185.619 27637124 27636912 27617526 27582078 27533144 27473064 27404168 
3188.994 27329002 27250392 27171268 27094132 27021312 26953580 26891394 
3192.369 26833868 26779980 26728178 26677300 26626178 26573690 26519590 
3195.744 26463134 26404432 26343452 26280894 26217468 26154084 26091942 
3199.120 26031954 25975598 25924032 25878698 25840718 25810582 25788184 
3202.495 25772714 25762412 25755520 25750458 25746274 25742936 25740930 
3205.870 25741422 25745078 25752498 25763538 25777988 25795674 25816490 
3209.245 25840402 25867374 25896986 25928182 25959734 25990618 26020098 
3212.621 26048630 26077410 26108162 26142788 26182238 26226866 26275792 
3215.996 26327644 26380982 26434434 26487152 26538854 26589540 26639388 
3219.371 26689032 26739032 26790764 26844970 26902568 26964014 27028928 
3222.746 27096494 27165446 27234340 27302078 27367888 27432014 27494030 
3226.122 27554432 27613326 27670918 27727916 27785386 27844556 27906630 
3229.497 27972178 28041024 28112318 28184578 28256462 28327298 28397260 
3232.872 28467020 28538066 28611072 28686424 28764092 28843224 28923008 
3236.247 29003056 29082798 29162592 29242328 29321974 29401704 29481662 
3239.623 29562912 29646094 29732376 29822404 29915820 30011390 30106870 
3242.998 30200704 30291434 30379160 30465198 30551644 30640526 30733408 
3246.373 30830224 30929944 31031216 31132474 31232796 31332288 31431410 
3249.748 31530734 31630684 31731370 31832650 31934564 32037210 32141310 
3253.124 32247860 32357402 32470576 32587104 32705802 32825750 32945442 
3256.499 33063564 33179068 33291560 33400792 33507046 33610964 33713576 
3259.874 33815964 33919704 34025368 34133564 34243832 34355060 34465564 
3263.249 34573656 34677716 34776996 34871668 34962300 35050076 35136328 
3266.625 35221836 35306612 35390364 35471896 35550536 35625592 35696992 
3270.000 35765596 35832056 35897696 35962692 36027092 36090028 36150412 
3273.375 36207312 36260508 36310220 36357264 36402736 36446948 36490372 
3276.750 36532720 36573268 36611944 36648896 36684516 36719672 36755188 
3280.125 36791144 36827568 36863744 36898808 36932284 36963812 36993688 
3283.501 37022084 37049468 37075776 37101360 37126228 37150484 37174088 
3286.876 37197440 37220400 37242604 37263216 37281664 37297080 37308924 
3290.251 37317480 37323404 37327628 37331636 37336508 37343516 37353084 
3293.626 37365508 37380496 37397612 37415740 37433872 37451100 37466556 
3297.002 37479632 37490684 37499428 37506396 37511604 37514528 37515212 
3300.377 37513080 37507988 37500328 37490576 37480208 37470276 37462404 
3303.752 37457524 37456444 37459440 37466416 37476636 37489204 37502968 
3307.127 37517128 37531000 37545052 37559824 37576556 37596100 37619260 
3310.503 37645784 37675484 37707216 37740396 37774332 37809320 37845400 
3313.878 37883176 37922548 37963592 38005544 38048468 38091620 38135932 
3317.253 38181660 38230036 38281636 38337148 38396692 38460216 38527016 
3320.628 38596072 38665932 38735152 38802248 38866272 38926864 38985068 
3324.004 39042236 39100420 39161224 39225156 39291456 39358672 39424448 
3327.379 39487076 39546084 39601760 39655376 39707868 39759500 39809248 
3330.754 39855408 39896052 39929760 39956132 39976004 39991008 40002304 
3334.129 40010880 40016548 40018404 40015168 40006196 39991120 39970012 
3337.505 39943128 39910728 39872732 39829148 39779980 39725952 39667864 
3340.880 39607132 39544920 39481776 39417808 39352432 39285000 39214496 
3344.255 39140628 39063008 38981300 38895336 38804672 38709036 38608348 
3347.630 38503336 38395060 38285072 38175292 38067060 37961748 37859572 
3351.006 37760668 37664136 37569076 37474032 37377424 37278056 37174524 
3354.381 37066684 36954580 36839076 36721548 36603256 36485108 36368108 
3357.756 36252800 36139716 36029724 35923248 35820828 35722136 35626312 
3361.131 35531836 35436916 35340184 35241312 35141176 35041384 34943840 
3364.507 34849876 34759948 34672944 34587360 34501756 34414560 34325688 
3367.882 34235732 34145392 34055504 33966244 33877144 33787348 33696352 
3371.257 33603764 33510230 33416502 33324010 33233612 33145916 33060736 
3374.632 32977544 32895834 32814958 32734524 32654468 32575100 32496430 
3378.008 32418806 32342088 32266312 32191050 32116052 32041312 31966622 
3381.383 31891912 31817608 31743564 31670064 31596936 31524140 31451430 
3384.758 31379334 31308108 31238814 31171954 31107914 31046660 30987692 
3388.133 30929870 30872058 30813256 30752650 30690306 30626090 30560498 
3391.509 30493740 30426672 30359794 30293992 30230294 30169342 30111132 
3394.884 30055310 30000312 29944610 29886608 29825704 29762324 29698032 
3398.259 29634882 29574724 29518296 29465278 29414396 29362990 29309460 
3401.634 29252146 29190622 29125032 29056086 28984742 28911356 28836744 
3405.010 28761364 28686000 28611390 28538668 28468082 28399912 28333310 
3408.385 28267708 28201514 28133952 28064316 27992110 27917656 27841234 
3411.760 27763416 27684442 27604814 27524778 27444438 27363832 27282956 
3415.135 27201426 27119170 27035874 26951394 26865484 26778394 26689946 
3418.510 26599864 26508282 26415208 26321168 26227146 26134238 26043634 
3421.886 25955936 25871664 25790224 25711188 25633364 25555726 25477332 
3425.261 25397438 25315244 25230394 25142684 25052254 24959840 24866746 
3428.636 24774198 24683632 24595610 24510236 24426668 24343676 24260066 
3432.011 24175460 24089748 24003772 23918864 23836214 23756518 23679706 
3435.387 23604798 23530706 23455962 23379520 23300712 23219576 23136464 
3438.762 23052250 22967666 22883450 22800368 22719082 22639870 22563326 
3442.137 22489516 22418230 22348738 22279500 22208250 22132792 22051108 
3445.512 21962536 21867468 21768486 21668410 21571142 21478946 21393242 
3448.888 21313020 21236360 21160968 21084684 21006674 20926972 20846488 
3452.263 20765880 20685634 20605578 20524944 20443560 20361568 20279904 
3455.638 20199402 20121028 20044718 19969948 19894880 19817950 19738330 
3459.013 19655984 19571540 19486628 19402704 19320560 19240790 19163456 
3462.389 19088076 19014716 18942892 18872428 18802428 18731676 18658792 
3465.764 18582946 18503516 18421232 18336752 18251044 18164802 18078230 
3469.139 17991088 17902858 17813922 17724556 17635726 17547948 17461532 
3472.514 17375792 17289652 17202462 17113980 17025168 16937790 16853806 
3475.890 16774727 16700896 16631795 16565975 16502263 16439594 16377760 
3479.265 16316140 16254392 16191380 16125316 16054347 15977716 15895704 
3482.640 15810167 15723856 15639247 15558123 15480618 15405702 15331452 
3486.015 15256288 15179558 15101641 15023498 14946740 14872294 14800192 
3489.391 14730330 14661815 14594304 14527867 14463084 14400400 14340122 
3492.766 14281839 14224419 14166357 14106556 14044060 13979179 13912972 
3496.141 13847254 13783975 13724535 13669753 13619834 13573270 13528557 
3499.516 13483541 13436070 13384605 13327884 13265432 13196943 13123445 
3502.892 13046408 12968122 12891863 12820567 12757505 12704415 12661190 
3506.267 12625508 12593376 12559234 12517798 12465862 12402306 12329658 
3509.642 12252183 12175641 12104939 12042935 11990136 11944938 11904786 
3513.017 11866612 11828374 11788811 11747617 11705033 11661328 11616607 
3516.393 11570768 11524288 11477642 11431783 11387834 11346679 11308827 
3519.768 11273834 11239965 11205556 11168463 11126853 11080352 11029404 
3523.143 10976218 10923107 10872822 10826824 10785077 10745676 10705397 
3526.518 10661046 10609332 10549171 10481041 10407390 10331478 10256427 
3529.894 10184748 10117930 10056210 9999753 9948253 9901640 9860015 9822834 
3533.751 9789214 9757902 9727439 9696435 9664113 9630641 9596528 9562486 
3537.608 9529158 9496408 9464032 9431795 9399933 9368851 9339194 9311603 
3541.466 9285842 9260862 9235037 9206268 9172527 9132597 9085462 9031567 
3545.323 8971353 8906887 8840704 8775750 8715302 8662162 8617986 8581857 
3549.181 8551510 8523159 8492072 8454873 8410279 8359135 8305060 8252376 
3553.038 8205304 8166846 8137439 8116239 8101115 8089637 8079712 8069586 
3556.896 8057772 8042987 8024120 8000122 7970525 7935867 7897704 7859003 
3560.753 7823072 7792980 7772133 7761946 7762857 7772336 7786335 7797433 
3564.610 7796725 7775271 7725788 7644779 7535970 7408954 7278539 7159514 
3568.468 7063624 6995803 6954658 6933716 6924357 6918701 6910654 6897188 
3572.325 6877664 6853090 6825725 6796947 6768239 6739836 6712444 6685861 
3576.183 6660424 6636233 6613490 6591959 6571876 6552837 6535581 6520714 
3580.040 6509413 6502652 6501677 6507328 6520142 6540055 6566662 6598620 
3583.897 6632936 6665336 6689630 6698008 6683001 6638857 6564173 6463571 
3587.755 6347863 6232454 6132064 6058273 6016410 6004652 6015806 6039223 
3591.612 6065128 6083272 6088077 6077392 6053032 6019736 5983353 5949828 
3595.470 5923090 5905221 5896824 5896421 5901728 5909050 5914625 5914088 
3599.327 5903709 5881374 5847521 5805242 5759408 5715929 5680712 5657213 
3603.185 5647277 5650198 5663927 5684069 5705555 5722073 5726773 5713612 
3607.042 5678698 5622102 5549002 5469069 5393714 5332795 5290230 5263969 
3610.899 5246965 5230365 5206556 5173996 5136174 5102245 5082164 5083136 
3614.757 5106771 5148479 5198172 5243846 5274098 5280101 5257362 5207025 
3618.614 5135705 5053971 4974498 4908946 4865954 4848195 4853858 4877648 
3622.472 4913034 4954724 5000607 5051926 5111733 5182245 5261051 5338698 
3626.329 5398612 5417936 5374256 5254344 5064429 4834458 4609497 4435865 
3630.187 4338566 4317383 4351652 4413237 4475367 4518454 4533989 4523242 
3634.044 4494650 4459063 4425522 4398108 4376586 4357777 4338801 4319056 
3637.901 4300249 4285860 4279033 4281175 4291548 4308046 4327790 4349176 
3641.759 4372503 4400116 4435028 4480154 4536701 4603201 4675305 4746115 
3645.616 4806951 4848061 4859989 4835496 4770502 4665626 4526355 4364136 
3649.474 4195553 4039343 3915051 3838260 3816632 3848656 3923510 4024194 
3653.331 4128379 4214456 4263608 4262938 4210809 4117976 4006168 3900474 
3657.188 3821713 3780165 3774283 3794204 3826861 3861292 3889374 3907628 
3661.046 3916121 3917157 3913981 3909668 3907662 3911607 3925081 3951931 
3664.903 3994899 4054995 4130019 4214490 4299379 4371800 4417923 4424752 
3668.761 4384720 4300583 4189564 4081150 4006871 3991221 4040915 4143566 
3672.618 4271404 4387698 4456419 4445874 4342850 4160092 3939592 3735614 
3676.476 3591229 3523213 3520708 3557687 3606130 3646692 3671452 3683314 
3680.333 3690666 3703231 3726524 3760346 3801524 3846182 3893888 3946848 
3684.190 4008977 4082053 4162400 4240152 4301587 4330903 4317014 4257652 
3688.048 4162500 4049544 3940228 3850729 3788020 3750085 3730835 3725387 
3691.905 3730868 3747411 3774985 3811886 3853436 3893453 3925984 3947717 
3695.763 3959353 3965974 3974601 3990518 4015766 4046902 4076534 4094997 
3699.620 4093994 4068775 4020649 3956511 3887402 3825958 3783274 3765660 
3703.478 3774784 3808710 3862195 3928491 4001420 4075063 4144570 4206862 
3707.335 4260228 4303093 4334350 4351485 4350614 4326652 4275185 4195119 
3711.192 4090615 3973197 3858785 3764657 3704534 3683916 3700892 3746676 
3715.050 3809312 3876470 3937820 3986973 4022053 4044560 4058507 4068608 
3718.907 4077504 4086301 4093926 4098175 4097974 4093926 4088876 4086769 
3722.765 4091485 4104630 4124700 4147346 4167016 4178892 4181669 4179194 
3726.622 4179093 4192107 4225832 4283317 4359350 4443933 4521936 4578522 
3730.479 4603971 4595231 4558900 4507941 4456887 4414743 4379565 4340173 
3734.337 4281142 4191438 4071317 3935480 3807874 3714326 3669848 3676464 
3738.194 3724752 3801457 3895091 3998577 4109614 4225966 4340708 4439681 
3742.052 4499236 4491034 4392987 4202445 3950727 3699455 3522011 3464727 
3745.909 3529293 3681042 3870753 4051250 4183944 4247848 4237341 4163437 
3749.767 4046701 3910270 3772846 3645355 3535205 3450465 3399503 3389919 
3753.624 3423113 3491480 3580438 3671418 3748280 3799184 3820142 3814092 
3757.481 3788923 3752859 3712220 3670683 3631622 3600149 3584681 3593634 
3761.339 3632458 3699054 3783508 3870151 3941699 3985602 3997674 3984466 
3765.196 3960290 3942301 3942836 3963533 3996270 4026735 4040647 4028307 
3769.054 3988913 3930498 3867611 3814693 3781937 3772879 3784678 3810649 
3772.911 3843241 3876269 3905957 3931000 3952499 3971859 3990719 4008309 
3776.769 4021919 4026100 4015599 3986372 3939191 3879679 3819941 3772846 
3780.626 3748514 3750820 3775820 3813925 3852801 3881986 3895225 3892250 
3784.483 3877439 3857983 3840834 3829502 3824554 3824287 3826493 3829568 
3788.341 3833379 3838393 3845313 3854439 3866006 3880649 3900039 3926385 
3792.198 3960725 4002222 4046032 4083825 4106135 4105299 4079076 4033357 
3796.056 3981623 3942167 3930665 3954037 4007707 4076735 4138515 4167987 
3799.913 4146242 4065229 3935780 3785814 3655680 3581006 3578901 3644386 
3803.771 3754931 3879713 3985135 4043691 4040547 3976842 3871722 3757805 
3807.628 3669514 3628148 3638305 3688895 3762886 3843541 3920634 3991689 
3811.485 4059845 4129316 4200036 4264979 4310054 4319223 4278899 4187792 
3815.343 4061049 3932069 3839463 3811785 3858551 3965573 4103527 4234732 
3819.200 4325180 4349410 4297940 4182706 4035932 3901544 3814760 3792700 
3823.058 3830003 3906592 3995601 4072721 4122593 4139619 4128948 4103794 
3826.915 4080147 4070146 4078207 4100282 4126941 4147815 4154906 4146176 
3830.772 4125670 4102924 4088040 4090381 4114698 4159824 4220345 4286696 
3834.630 4348138 4393589 4413304 4401288 4356806 4286194 4201475 4119281 
3838.487 4054995 4017873 4008877 4022220 4047671 4074059 4093358 4101118 
3842.345 4096469 4082220 4062186 4041383 4024662 4016335 4020047 4038641 
3846.202 4073959 4126105 4194349 4276825 4372169 4478614 4593356 4711010 
3850.060 4822061 4909247 4949730 4917558 4790837 4564124 4261232 3939057 
3853.917 3665804 3495422 3445890 3499698 3621031 3771876 3924246 4060447 
3857.774 4173841 4264444 4335822 4391380 4432417 4458628 4469039 4463850 
3861.632 4444367 4412534 4369825 4317383 4256681 4191773 4132561 4091819 
3865.489 4082622 4111989 4176350 4260328 4339738 4389673 4389372 4332442 
3869.347 4231486 4117007 4026334 3984967 3999949 4056099 4128647 4190368 
3873.204 4223456 4223523 4200605 4173406 4161430 4177588 4223456 4289775 
3877.062 4360789 4419697 4451900 4447749 4404903 4329832 4237074 4145941 
3880.919 4077103 4045430 4055330 4099446 4160493 4215828 4242227 4223657 
3884.776 4157649 4059243 3958083 3887435 3873227 3922407 4023826 4152431 
3888.634 4280071 4380603 4435631 4438677 4395497 4323373 4243130 4175112 
3892.491 4132661 4120351 4136307 4174844 4230014 4295463 4365541 4435262 
3896.349 4498500 4549123 4581938 4592653 4580230 4547181 4499370 4444702 
3900.206 4390577 4341813 4299379 4260161 4218906 4171298 4115334 4054527 
3904.063 3995468 3947517 3918662 3912711 3928759 3961794 4005065 4052119 
3907.921 4098208 4141124 4180164 4216263 4249186 4279268 4305871 4329497 
3911.778 4351384 4373942 4399179 4427831 4457959 4484740 4502216 4504760 
3915.636 4489293 4457122 4412769 4363768 4317717 4279401 4250959 4232624 
3919.493 4224192 4225865 4238814 4263708 4299312 4341344 4382979 4415446 
3923.351 4431982 4429873 4411697 4384552 4358178 4341645 4339705 4352623 
3927.208 4376419 4405405 4433723 4457189 4473191 4480488 4478513 4466529 
3931.065 4444702 4414141 4378059 4341311 4309886 4288470 4279703 4283049 
3934.923 4295196 4311593 4328560 4343754 4357342 4370830 4386360 4405237 
3938.780 4427262 4450025 4470278 4484171 4489126 4483769 4469675 4449623 
3942.638 4428333 4410526 4400317 4399982 4409522 4426961 4448151 4468905 
3946.495 4485109 4494013 4494583 4487854 4475534 4460168 4443731 4426928 
3950.353 4410425 4394727 4380703 4369658 4363500 4363299 4369457 4380837 
3954.210 4394895 4408785 4419831 4426325 4428434 4427028 4424116 4421471 
3958.067 4420568 4421505 4424082 4427363 4430308 4432015 4432484 4431781 
3961.925 4430610 4429974 4430978 4434292 4440284 4448485 4457892 4467198 
3965.782 4475199 4481292 4485477 4488456 4491168 4494449 4499036 4504359 
3969.640 4510084 4515307 4519726 4523375 4526590 4530440 4535328 4541422 
3973.497 4548487 4555753 4562516 4568209 4572495 4575910 4578623 4580933 
3977.354 4583344 4585655 4587664 4589271 4590075 4589706 4588166 4585085 
3981.212 4580464 4574705 4567807 4560005 4551534 4542493 4533052 4523644 
3985.069 4514737 4507405 4503053 4502584 4506970 4516077 4529134 4544770 
3988.927 4561478 4577752 4592385 4605311 4616395 4625270 4632068 4636321 
3992.784 4637661 4635987 4632403 4627413 4622758 4619878 4619208 4621051 
3996.642 4624466 4628720 4633006 4637259 4641412 4646536 4652765 4660301 
4000.499 4668674 
##END=
