
##TITLE=Z361_2_e
##JCAMP-DX=5.01  $$ Nicolet v. 1
##DATATYPE=INFRARED SPECTRUM
##ORIGIN=UniL
##OWNER=Nicolet
##LONGDATE=2011/09/14
##TIME=11:41:26
##SPECTROMETER/DATA SYSTEM=Nicolet iS5
##DATA PROCESSING=
Ratio against background
%Transmittance->Absorbance
Truncated
ElementMultiply or ElementDivide
##COMMENTS=
Number of sample scans: 32
Collection length: 51.25 sec
Sample gain: 2.0
Background collected on: Mer Sep 14 11:27:19 2011 (GMT+02:00);
Number of background scans: 32
Background gain: 2.0
Sample spacing:  1.000
Number of scan points: 12415
Resolution points: 8192
Number of FFT points: 65536
Apodization: N-B fort;
Phase correction: Mertz;
Laser frequency: 15798.0 cm-1
Number of rejected sample scans: 0
Number of rejected background scans: 0
Bench serial number: ASB1000141;
##RESOLUTION=4.000
##XUNITS=1/CM
##YUNITS=ABSORBANCE
##FIRSTX=649.893372
##LASTX=4000.122314
##FIRSTY=0.087239
##MAXX=4000.122314
##MINX=649.893372
##MAXY=0.211553
##MINY=0.000749
##XFACTOR=1.000000
##YFACTOR=1.000000E-009
##NPOINTS=6950
##DELTAX=0.482117
##ZPD=6100
##XYDATA=(X++(Y..Y))
649.893 87238904 87397272 87608272 87881304 88213464 88592960 89007976 
653.268 89451872 89922928 90424320 90957712 91519272 92100704 92693576 
656.643 93291040 93892488 94500488 95115464 95732080 96339448 96921608 
660.018 97467888 97977496 98460880 98936944 99425112 99939936 100488608 
663.393 101072064 101688160 102337216 103022104 103742872 104494976 
666.285 105264040 106027192 106769792 107512640 108337672 109362296 
669.178 110722024 112547952 114948336 118049048 121979112 126844632 
672.071 132683024 139391104 146694400 154076464 160839792 166223312 
674.963 169463680 170035120 167785200 163000512 156340032 148655232 
677.856 140825168 133509848 127115920 121790864 117462240 113924984 
680.749 110916224 108202984 105598352 102985944 100317600 97590912 94835448 
684.124 92092512 89407336 86816440 84345256 82012552 79831296 77813792 
687.498 75974936 74328088 72883552 71644848 70605128 69749080 69052624 
690.873 68488112 68026752 67641144 67309808 67016372 66750488 66505976 
694.248 66279544 66069088 65872304 65686828 65509908 65338992 65172032 
697.623 65007440 64843492 64679488 64516388 64355312 64200556 64057380 
700.998 63930332 63822748 63734100 63658892 63588084 63511520 63419992 
704.373 63308112 63175388 63024648 62860756 62688008 62508784 62324052 
707.747 62135148 61944116 61755000 61573412 61403728 61247584 61103124 
711.122 60964240 60823420 60673764 60509388 60326680 60122476 59893260 
714.497 59634828 59343644 59018876 58664388 58289120 57905504 57524800 
717.872 57154444 56795772 56443772 56090320 55729364 55358652 54981228 
721.247 54603264 54230400 53864528 53503392 53142028 52775200 52401580 
724.621 52022568 51642992 51267548 50898616 50536808 50181508 49834456 
727.996 49500268 49186152 48899592 48645500 48423484 48229388 48057256 
731.371 47903464 47768444 47655352 47567912 47507176 47468920 47447184 
734.746 47436208 47435508 47451212 47494604 47576560 47704756 47880304 
738.121 48101040 48365000 48677260 49049508 49500492 50050948 50717452 
741.496 51514228 52457208 53569804 54895872 56504864 58489848 60981132 
744.870 64139492 68152680 73253416 79683704 87661016 97317256 108602704 
748.245 121188040 134347232 147032320 157896032 165499200 168725824 
751.138 166990320 160472096 150027712 137014336 122929680 109022088 96249368 
754.513 85144248 75865976 68341624 62355336 57655472 53993016 51164356 
757.888 49008740 47386208 46181336 45295332 44643076 44165672 43825552 
761.262 43603496 43493392 43494308 43608072 43838308 44192556 44682480 
764.637 45321224 46120016 47085284 48217392 49515456 50982968 52633568 
768.012 54493980 56598312 58976328 61641532 64575592 67720176 70967280 
771.387 74175600 77175288 79779448 81819248 83148264 83658760 83301088 
774.762 82083672 80078328 77403352 74218472 70698736 67002952 63279404 
778.136 59648204 56199448 53007348 50122524 47572680 45364296 43480572 
781.511 41888156 40542120 39398032 38417936 37571028 36836480 36197552 
784.886 35638612 35144624 34700904 34296108 33923932 33583076 33275322 
788.261 33001784 32761286 32549244 32359582 32186660 32028296 31885174 
791.636 31759568 31653028 31563654 31486806 31416058 31345610 31272642 
795.010 31197338 31122330 31050824 30984882 30925176 30871702 30825316 
798.385 30787468 30760652 30746496 30744362 30750870 30761434 30771464 
801.760 30778684 30783842 30790208 30801092 30818520 30841678 30868180 
805.135 30895716 30924038 30955596 30994846 31046304 31111722 31189468 
808.510 31274494 31360816 31443700 31521362 31595226 31668424 31744596 
811.885 31825558 31911456 32001008 32092684 32185446 32278448 32370646 
815.259 32459720 32542422 32615318 32676008 32725096 32765754 32803628 
818.634 32844190 32891616 32947340 33010722 33079904 33153604 33232108 
822.009 33317104 33410918 33515386 33631332 33758304 33895524 34042352 
825.384 34198624 34364420 34539500 34722904 34913604 35111000 35315600 
828.759 35530004 35757468 36001032 36261876 36538916 36829012 37128536 
832.133 37435748 37751632 38079864 38425608 38791740 39177760 39577840 
835.508 39981852 40376460 40748200 41086244 41382820 41634812 41842476 
838.883 42010488 42147888 42267076 42386844 42528352 42715236 42971844 
842.258 43319056 43774936 44354692 45071016 45936452 46965136 48171780 
845.633 49573092 51187168 53031084 55121032 57469728 60083280 62956236 
849.008 66066116 69368344 72783120 76195024 79454912 82370320 84737424 
852.382 86359648 87066712 86758976 85419896 83129360 80049640 76416496 
855.757 72514440 68617480 64984656 61821888 59254580 57343232 56083084 
859.132 55424748 55288952 55585672 56228788 57131464 58213872 59401084 
862.507 60612504 61768904 62793136 63610024 64160152 64402580 64318316 
865.882 63913600 63217312 62279228 61159116 59924184 58640380 57359716 
869.256 56122972 54954864 53867228 52864520 51947352 51116384 50372464 
872.631 49715884 49145332 48656580 48243348 47898616 47615564 47388720 
876.006 47213336 47084400 46996224 46942176 46915744 46912348 46929768 
879.381 46969348 47033920 47127348 47252084 47408640 47595488 47810536 
882.756 48051368 48316632 48605552 48917208 49250280 49602400 49971016 
886.131 50353708 50749292 51157536 51578772 52012784 52457736 52910440 
889.505 53366764 53822672 54274960 54722612 55165308 55603972 56038636 
892.880 56468904 56893892 57312948 57726996 58138556 58551572 58970864 
896.255 59401428 59847740 60314576 60808060 61335340 61906896 62533692 
899.630 63227772 64000712 64862608 65822140 66886948 68063376 69356144 
903.005 70766584 72289584 73911192 75604368 77330968 79036680 80654408 
906.379 82112088 83328392 84224688 84733840 84801096 84398976 83532520 
909.754 82245896 80618656 78758824 76797760 74863624 73075656 71537600 
913.129 70323528 69485288 69051496 69026872 69394272 70109968 71107056 
916.504 72286264 73520440 74673992 75601176 76177728 76323264 76008960 
919.879 75268864 74189000 72899856 71543576 70251144 69133000 68256032 
923.254 67649856 67312744 67223960 67354688 67676384 68167336 68811544 
926.628 69598616 70523272 71584600 72787592 74143088 75669280 77390800 
930.003 79335008 81535040 84026216 86845648 90036160 93642192 97707576 
933.378 102273688 107370016 113007520 119168792 125803424 132819728 
936.271 140076288 147403424 154598416 161446432 167761168 173392224 
939.163 178257520 182358544 185786928 188716528 191360528 193956848 
942.056 196699568 199686240 202881360 206084544 208944944 210953936 
944.949 211552608 210217440 206531248 200317888 191670304 180961440 
947.841 168758464 155754576 142670400 130100744 118518656 108230576 99366256 
951.216 91940656 85875888 81043040 77279464 74410144 72266224 70675848 
954.591 69486888 68576928 67848840 67243616 66733496 66312164 65984920 
957.966 65759800 65641812 65631060 65724104 65915420 66197648 66560664 
961.341 66990776 67473328 67994048 68542200 69114544 69712624 70341568 
964.716 71004384 71699056 72418944 73155488 73902152 74659120 75432152 
968.090 76231280 77065240 77938776 78853408 79810664 80816088 81882496 
971.465 83025656 84258960 85584008 86987152 88437984 89898560 91336136 
974.840 92731184 94084520 95413400 96746896 98115984 99547104 101063696 
978.215 102686872 104437488 106340432 108424080 110722624 113288840 
981.108 116199336 119563080 123520360 128199592 133668704 139851600 
984.000 146482240 153046160 158806928 162985216 164857632 164000400 
986.893 160426848 154603248 147336112 139514752 132001576 125414672 
989.786 120071992 116047168 113214008 111352448 110211392 109584032 
992.678 109319168 109307824 109478968 109776264 110152592 110574464 
995.571 111022872 111492280 111984048 112496120 113016456 113524160 
998.464 113995456 114413872 114777104 115095936 115387384 115664544 
1001.356 115931968 116185920 116420216 116634704 116838896 117050040 
1004.249 117286712 117559440 117867624 118200744 118546696 118899240 
1007.142 119262192 119647000 120066304 120525912 121020056 121534624 
1010.035 122052352 122562816 123063688 123560120 124058352 124559184 
1012.927 125055520 125536752 125995664 126435608 126873392 127335800 
1015.820 127849816 128435392 129102648 129854384 130694000 131633800 
1018.713 132695896 133911104 135311760 136922496 138761632 140841712 
1021.605 143174160 145768672 148621552 151697968 154901168 158058720 
1024.498 160937168 163244592 164706832 165127776 164427664 162676448 
1027.391 160070784 156907024 153495888 150124368 147022656 144325392 
1030.284 142088000 140295104 138885104 137768256 136847520 136041392 
1033.177 135283568 134532672 133770912 132996424 132217304 131445184 
1036.070 130693824 129978168 129316392 128733200 128257544 127919568 
1038.963 127749712 127772656 128008184 128472384 129175440 130118672 
1041.856 131285072 132631048 134073584 135486672 136725568 137634000 
1044.750 138083936 138010640 137423344 136410704 135111952 133702472 
1047.643 132349048 131180688 130286440 129702360 129421640 129405440 
1050.536 129597944 129936648 130356712 130802080 131224648 131584448 
1053.429 131852624 132006704 132028536 131905688 131629720 131198792 
1056.322 130618840 129903544 129071416 128139720 127121568 126021448 
1059.215 124837360 123563728 122197288 120740864 119205240 117606960 
1062.108 115964640 114297032 112620472 110948904 109296448 107676192 
1065.001 106101048 104582264 103126416 101735648 100408440 99141392 97932696 
1068.376 96782760 95694536 94671504 93715696 92825664 91996712 91222480 
1071.751 90496512 89813752 89170688 88564112 87988816 87438080 86903040 
1075.127 86375016 85847624 85318336 84788320 84261856 83744104 83241000 
1078.502 82758136 82302840 81884376 81513256 81201360 80958952 80792584 
1081.877 80705392 80696776 80765488 80910728 81133496 81435912 81819288 
1085.252 82281728 82816664 83412488 84054120 84724848 85407192 86085144 
1088.628 86743680 87368744 87950032 88481928 88967344 89418368 89857520 
1092.003 90316040 90827080 91428024 92156008 93046920 94141720 95485936 
1095.378 97129168 99131104 101554640 104462472 107914704 111951592 116579496 
1098.753 121742664 127308352 133038240 138571312 143481664 147288192 
1101.646 149543216 149948656 148397712 145026704 140165200 134296976 
1104.540 127948344 121576656 115564352 110155960 105466032 101516208 
1107.433 98256096 95599392 93441096 91680320 90225368 88991296 87909784 
1110.808 86923232 85984280 85058712 84120432 83150584 82138192 81078984 
1114.183 79976184 78840336 77689184 76544520 75427064 74356352 73346144 
1117.558 72404544 71535288 70739248 70015160 69360336 68770240 68237856 
1120.934 67753056 67304072 66878640 66464616 66052616 65634528 65203756 
1124.309 64755060 64284236 63789280 63271584 62736744 62194984 61659520 
1127.684 61145612 60668736 60242780 59881208 59596208 59398880 59300536 
1131.059 59311128 59438848 59690284 60070384 60583932 61237356 62039736 
1134.435 63003808 64145824 65482132 67028896 68799864 70805120 73051072 
1137.810 75540288 78270392 81230280 84396768 87733600 91182536 94665688 
1141.185 98089856 101337264 104277888 106776320 108688960 109891728 
1144.078 110294680 109859128 108615680 106665872 104180456 101360728 
1146.971 98427888 95597120 93040184 90893320 89247344 88147784 87609768 
1150.346 87624808 88171808 89221592 90742416 92704360 95074216 97816720 
1153.722 100888528 104224472 107731304 111279320 114683592 117725824 
1156.615 120160288 121726440 122205184 121435048 119344784 115973944 
1159.508 111473816 106095600 100133592 93911984 87731808 81821936 76352576 
1162.883 71416192 67037716 63196420 59839560 56902388 54313708 52009272 
1166.258 49934920 48043784 46300196 44677488 43155336 41721432 40368784 
1169.634 39095088 37901616 36792336 35773944 34854684 34046400 33363976 
1173.009 32822426 32436122 32212104 32145626 32213602 32373536 32569136 
1176.384 32730668 32790836 32696300 32413058 31936024 31287562 30516418 
1179.759 29684762 28861282 28113448 27494948 27045500 26788826 26731068 
1183.135 26862982 27158886 27581124 28076686 28581874 29032032 29361004 
1186.510 29513932 29457088 29179068 28695274 28041942 27274100 26452218 
1189.885 25634204 24872080 24202224 23646116 23211466 22895152 22686160 
1193.260 22569748 22530834 22554322 22625978 22734270 22868922 23021748 
1196.635 23187244 23361092 23540254 23721942 23903110 24080676 24251412 
1200.011 24412508 24561916 24698504 24821662 24930504 25023682 25098730 
1203.386 25152690 25181832 25182288 25150056 25081248 24972300 24820048 
1206.761 24623032 24381420 24098258 23779722 23435224 23075626 22713566 
1210.136 22361366 22029180 21725986 21458406 21231036 21046980 20907676 
1213.512 20813084 20761328 20749788 20775334 20834878 20926452 21048754 
1216.887 21201010 21382278 21591130 21825204 22082342 22360564 22658860 
1220.262 22977624 23317946 23681106 24068068 24479212 24914430 25373552 
1223.637 25856262 26362428 26892098 27444826 28020066 28617300 29236622 
1227.013 29878870 30546276 31241878 31969334 32732346 33534962 34380844 
1230.388 35273872 36217612 37214732 38266180 39369812 40519748 41705712 
1233.763 42913468 44126312 45324096 46486020 47592496 48624748 49569304 
1237.138 50419272 51175948 51849188 52456800 53024536 53580976 54158252 
1240.514 54790420 55509008 56344620 57324820 58470780 59798948 61318892 
1243.889 63034608 64945564 67049160 69343080 71826208 74499592 77365856 
1247.264 80428048 83689256 87152640 90821440 94698408 98784552 103074576 
1250.639 107554280 112194856 116948008 121748456 126506328 131101624 
1253.532 135392752 139198736 142305344 144494304 145542032 145264272 
1256.426 143551200 140376816 135813392 130014064 123209584 115672624 
1259.319 107688632 99558480 91548440 83878928 76724416 70190664 64329072 
1262.694 59147572 54620700 50702964 47337132 44464428 42023808 39956348 
1266.069 38211148 36740588 35503860 34468544 33605628 32891438 32306646 
1269.444 31834044 31459838 31173094 30964314 30825920 30750764 30731738 
1272.820 30762002 30835240 30945706 31089512 31264738 31470950 31709306 
1276.195 31981676 32290012 32635466 33018086 33435468 33883340 34354056 
1279.570 34837916 35324548 35803588 36267208 36712568 37142256 37564124 
1282.945 37989484 38430860 38897328 39391540 39908220 40434860 40954056 
1286.321 41447224 41901768 42313244 42688440 43042892 43399568 43784504 
1289.696 44220436 44727584 45321444 46011700 46805864 47708196 48720036 
1293.071 49839100 51058540 52366256 53744292 55170616 56620852 58068220 
1296.446 59487824 60857268 62157748 63377120 64510816 65562272 66542164 
1299.822 67466408 68354024 69223184 70091472 70975392 71889344 72848200 
1303.197 73865352 74950560 76108720 77336040 78619656 79934952 81247944 
1306.572 82516504 83687688 84703752 85502872 86019536 86197544 85993328 
1309.947 85383632 84371408 82985464 81279144 79318272 77181144 74948512 
1313.323 72692704 70481992 68375088 66419600 64660564 63139744 61894516 
1316.698 60959896 60358284 60091956 60133132 60421416 60864660 61339424 
1320.073 61716612 61871940 61699848 61136916 60162244 58800792 57113024 
1323.448 55188256 53131504 51040692 49007220 47102124 45370252 43836768 
1326.823 42508292 41379616 40438280 39668952 39055752 38581404 38228732 
1330.199 37981456 37822876 37738552 37715672 37742056 37806644 37899412 
1333.574 38010276 38131808 38258764 38389232 38524300 38667708 38824604 
1336.949 39000220 39200932 39434244 39709612 40039692 40439404 40922892 
1340.324 41502640 42184696 42967640 43840248 44781392 45758924 46725900 
1343.700 47626364 48396296 48967532 49283976 49304580 49012336 48416560 
1347.075 47553232 46481596 45271464 44002544 42751796 41581096 40540772 
1350.450 39662960 38963612 38447040 38107140 37931048 37899772 37992416 
1353.825 38188136 38466628 38810472 39203724 39629564 40070320 40504800 
1357.201 40908400 41257136 41526992 41697216 41753348 41685908 41491992 
1360.576 41174504 40744200 40221072 39633992 39022620 38431188 37899160 
1363.951 37457384 37120416 36888020 36749348 36689024 36691548 36743760 
1367.326 36836440 36962228 37114644 37287692 37474684 37668948 37864560 
1370.702 38055596 38236620 38402876 38550804 38680312 38796376 38911244 
1374.077 39042956 39211232 39434280 39723956 40085256 40519496 41028156 
1377.452 41617016 42299508 43095100 44028284 45125420 46408032 47889772 
1380.827 49568676 51422424 53398576 55410748 57351588 59091572 60499676 
1384.203 61466136 61899444 61744916 60994512 59702452 57992476 56040408 
1387.578 54058720 52235296 50701028 49526188 48722484 48268788 48128804 
1390.953 48266344 48648944 49249312 50048640 51033272 52192472 53516432 
1394.328 54988108 56580500 58257176 59975460 61692512 63370636 64972228 
1397.704 66461028 67803248 68966904 69930616 70688672 71250976 71638640 
1401.079 71876792 71991328 72004264 71933760 71791376 71577328 71275616 
1404.454 70852704 70266880 69476896 68458752 67216960 65786248 64227836 
1407.829 62615404 61036728 59583020 58341640 57401808 56839240 56706468 
1411.205 57030724 57808520 59014020 60606104 62541888 64778828 67271000 
1414.580 69971752 72824536 75760752 78714136 81615520 84401272 87021368 
1417.955 89435464 91615584 93540504 95202368 96599992 97736080 98616240 
1421.330 99244856 99623448 99747712 99611152 99208632 98541784 97624056 
1424.706 96479192 95133896 93604744 91890824 89971184 87814704 85394200 
1428.081 82707264 79786496 76709080 73585120 70530288 67654928 65043384 
1431.456 62745968 60783932 59148860 57809576 56719044 55824792 55081872 
1434.831 54462388 53968440 53636192 53529136 53709604 54208812 55009544 
1438.207 56050548 57240512 58467256 59614832 60553724 61155148 61320268 
1441.582 60988220 60159468 58890144 57284440 55470152 53570780 51705356 
1444.957 49967444 48421484 47111800 46061436 45279152 44762880 44498748 
1448.332 44458884 44598168 44863976 45200052 45554868 45892996 46194564 
1451.708 46459284 46703576 46956648 47253488 47626952 48108668 48729560 
1455.083 49522884 50523108 51754848 53213252 54849172 56573476 58283968 
1458.458 59891248 61329044 62547736 63502660 64159080 64485944 64452120 
1461.833 64028008 63178024 61867696 60081000 57851368 55286956 52557536 
1465.208 49866416 47384028 45201416 43333884 41742516 40372204 39174820 
1468.584 38121352 37199032 36403744 35731492 35175992 34731016 34397736 
1471.959 34188696 34126716 34235624 34530316 35014408 35683144 36533512 
1475.334 37568352 38795432 40224164 41860864 43704432 45749316 47987532 
1478.709 50412572 53015772 55784404 58698864 61724980 64818680 67931240 
1482.085 71009728 74004136 76864552 79534088 81953920 84061080 85792840 
1485.460 87102304 87960904 88365688 88333640 87900016 87109912 86009880 
1488.835 84657080 83120656 81480712 79828024 78242456 76772568 75424152 
1492.210 74159088 72906792 71573656 70061680 68279688 66156828 63661584 
1495.586 60814348 57693200 54410820 51088468 47825588 44686780 41708848 
1498.961 38913236 36315188 33928448 31761848 29814560 28078170 26536566 
1502.336 25167718 23946628 22842588 21817226 20822294 19804564 18719464 
1505.711 17552330 16344763 15191430 14197818 13424654 12865855 12466748 
1509.087 12163647 11903798 11655984 11410182 11170504 10947538 10750024 
1512.462 10581492 10439700 10318754 10212665 10118134 10033897 9960898 
1515.837 9901301 9858591 9838222 9846051 9887132 9962661 10068282 10193432 
1519.695 10323165 10443943 10549340 10647532 10757972 10905405 11105369 
1523.070 11357835 11650573 11965613 12288447 12610192 12931391 13260000 
1526.445 13606739 13978323 14374096 14785519 15200455 15606033 15991088 
1529.820 16347138 16666258 16937240 17146344 17276826 17315444 17261724 
1533.196 17136726 16983408 16849258 16771007 16759746 16804138 16878952 
1536.571 16955740 17010456 17023894 16985028 16891318 16750759 16581155 
1539.946 16407212 16257247 16154340 16109843 16122118 16177623 16256008 
1543.321 16335303 16401604 16451053 16492937 16543601 16619230 16727686 
1546.697 16865206 17019174 17174780 17321996 17459256 17595456 17745438 
1550.072 17924130 18139444 18390778 18671624 18976120 19303380 19659244 
1553.447 20054296 20499100 20998814 21550808 22146320 22774038 23427740 
1556.822 24108836 24832012 25628828 26549316 27645528 28934766 30397070 
1560.198 31982780 33640496 35343416 37084908 38874572 40726804 42657260 
1563.573 44675396 46770844 48914200 51056900 53136260 55093756 56876592 
1566.948 58435828 59728116 60707340 61331452 61577000 61453728 61010988 
1570.323 60320208 59456896 58477072 57409216 56262652 55033692 53710920 
1573.698 52285484 50756440 49144816 47519668 46003304 44755680 43931856 
1577.074 43620712 43832884 44523272 45630420 47106112 48928740 51105088 
1580.449 53662252 56640064 60080848 64024860 68503672 73535584 79117904 
1583.824 85217208 91765312 98642312 105683800 112688368 119400176 125539672 
1587.199 130824384 134993440 137892192 139520608 140073184 139890976 
1590.093 139410016 139074336 139215024 140029632 141543136 143621344 
1592.986 145980080 148221056 149908416 150569920 149791072 147299920 
1595.879 142995696 136997120 129598080 121221064 112310232 103261816 
1598.772 94423928 86049352 78311864 71316648 65086380 59574164 54674320 
1602.147 50257648 46195228 42388708 38791920 35403736 32255356 29384862 
1605.522 26824386 24588774 22676524 21076090 19768810 18732992 17938770 
1608.897 17350616 16928868 16630212 16416194 16256215 16126417 16010374 
1612.273 15894467 15763436 15599576 15381844 15088056 14700269 14210724 
1615.648 13630877 12993078 12348885 11752043 11240033 10826723 10504259 
1619.023 10253001 10048614 9867167 9687592 9491226 9265669 9007819 8726424 
1622.881 8439771 8170526 7936508 7743563 7585802 7449165 7319074 7184879 
1626.738 7042206 6892880 6742831 6599125 6467405 6351360 6253228 6174375 
1630.595 6115698 6076418 6053637 6040096 6025952 5999041 5947342 5862634 
1634.453 5744601 5603776 5459943 5336418 5250520 5207428 5201358 5220372 
1638.310 5252667 5287849 5318673 5341583 5356745 5367782 5380060 5398914 
1642.168 5426760 5461956 5497557 5523565 5528799 5503665 5444240 5354699 
1646.025 5248609 5145428 5065368 5022797 5022729 5061345 5128831 5213463 
1649.883 5299856 5368822 5397203 5356644 5222853 4992328 4703005 4430509 
1653.740 4244669 4172637 4193512 4267288 4355903 4434961 4493947 4531980 
1657.597 4554279 4568376 4579326 4588501 4593323 4589137 4572629 4543029 
1661.455 4503421 4458896 4415915 4379666 4353158 4337429 4331605 4333781 
1665.312 4340072 4344691 4340005 4316914 4266853 4185818 4076300 3949422 
1669.170 3822114 3713356 3636200 3595138 3585950 3598980 3623069 3646758 
1673.027 3660726 3657451 3633126 3589859 3537911 3493885 3473110 3484700 
1676.885 3526420 3587521 3652639 3707642 3743902 3760680 3764757 3766562 
1680.742 3774617 3789825 3802894 3795741 3748213 3647928 3501701 3340165 
1684.599 3206058 3131462 3120815 3156793 3213202 3268216 3307077 3324004 
1688.457 3320565 3301835 3274358 3243879 3215405 3193408 3181458 3181425 
1692.314 3191305 3203822 3205391 3179523 3111771 2998587 2855047 2715023 
1696.172 2617342 2584309 2613175 2678782 2747432 2784179 2764905 2687483 
1700.029 2578576 2485192 2447337 2479260 2565343 2677681 2788114 2877728 
1703.886 2938270 2971630 2988512 3004326 3033654 3084140 3155558 3241275 
1707.744 3333053 3423080 3506378 3581774 3650735 3716598 3782906 3852467 
1711.601 3926017 4002690 4079778 4153234 4219307 4273546 4312263 4331806 
1715.459 4327857 4296300 4235033 4147547 4043791 3939659 3852367 3792666 
1719.316 3762585 3755299 3759477 3763053 3756101 3733274 3694141 3641479 
1723.174 3579937 3513660 3444587 3372855 3297828 3219644 3140306 3062383 
1727.031 2988545 2919623 2855014 2793416 2734895 2681449 2636476 2602342 
1730.888 2576709 2551112 2510052 2434408 2310441 2138159 1940915 1758732 
1734.746 1632463 1581447 1598241 1656610 1726796 1783651 1809869 1798889 
1738.603 1754973 1691036 1623517 1566051 1525184 1499581 1483689 1471454 
1742.461 1459552 1447916 1438441 1433521 1434751 1442298 1455696 1473981 
1746.318 1496456 1522357 1550754 1579585 1606223 1627774 1642009 1648794 
1750.176 1650623 1652519 1660934 1682487 1720941 1776398 1845139 1920580 
1754.033 1994570 2058618 2106527 2135828 2149380 2155341 2164298 2185177 
1757.890 2220611 2266473 2312773 2348384 2363109 2352581 2319502 2273768 
1761.748 2229004 2197965 2188508 2201462 2231802 2271336 2311374 2344153 
1765.605 2363409 2365374 2349217 2318469 2280662 2245990 2223143 2215982 
1769.463 2221477 2230370 2230736 2211353 2168527 2108591 2047832 2004955 
1773.320 1992373 2012479 2056920 2113120 2168993 2218014 2259179 2296185 
1777.177 2333693 2374170 2416582 2457200 2490923 2515551 2532414 2546646 
1781.035 2563277 2585475 2611375 2635276 2650711 2653178 2642677 2623776 
1784.892 2604342 2591842 2589775 2598042 2612842 2630042 2646010 2659512 
1788.750 2669280 2673447 2668513 2649411 2611642 2555211 2486658 2419181 
1792.607 2368139 2345652 2355746 2393593 2449036 2510652 2569943 2622042 
1796.465 2666846 2706420 2744031 2781945 2821296 2861685 2903345 2946777 
1800.322 2993616 3045799 3105030 3171979 3246149 3326509 3412092 3502102 
1804.179 3596407 3694442 3795942 3900039 4005968 4112925 4220244 4326485 
1808.037 4430007 4528029 4617166 4694597 4758643 4808928 4847558 4877480 
1811.894 4901406 4921613 4938537 4951473 4959248 4961259 4958042 4950836 
1815.752 4941988 4932638 4923288 4912498 4897988 4877447 4849368 4813719 
1819.609 4772210 4727524 4682138 4637828 4594528 4550262 4501982 4445974 
1823.467 4379866 4303963 4221717 4139686 4065530 4004496 3957849 3920735 
1827.324 3884961 3839296 3774684 3687491 3582108 3470605 3368714 3290383 
1831.181 3241910 3220579 3216172 3216640 3212067 3196846 3170511 3136601 
1835.039 3099691 3062951 3027047 2990614 2952648 2913819 2877628 2849711 
1838.896 2835203 2836404 2851479 2874092 2895006 2904946 2895439 2861318 
1842.754 2801753 2721791 2631309 2543713 2472495 2426811 2409419 2416183 
1846.611 2438873 2467064 2490923 2505086 2508786 2506186 2503853 2508486 
1850.469 2523349 2547646 2576443 2604075 2626009 2640810 2649977 2656778 
1854.326 2664146 2672947 2682249 2690517 2697152 2703486 2712689 2728460 
1858.183 2752400 2783712 2818761 2853480 2884232 2910016 2932132 2953215 
1862.041 2974900 2997586 3019340 3038158 3052473 3062617 3069858 3075631 
1865.898 3079201 3077332 3064485 3036123 2990513 2932199 2870423 2816894 
1869.756 2781578 2768773 2776443 2798585 2828933 2862418 2897474 2934334 
1873.613 2973966 3016237 3059447 3100425 3136134 3165337 3188334 3207026 
1877.470 3223516 3238972 3253760 3267748 3281302 3296126 3314555 3338796 
1881.328 3368748 3401940 3433566 3458882 3474880 3482062 3484533 3488909 
1885.185 3500566 3522244 3553044 3588322 3622902 3652172 3674760 3691936 
1889.043 3708277 3728629 3757338 3797011 3847854 3908799 3976909 4049276 
1892.900 4122492 4193010 4259124 4320428 4378895 4437304 4499906 4568343 
1896.758 4643153 4721259 4799614 4875068 4946345 5014651 5082600 5152905 
1900.615 5227414 5305726 5386803 5469405 5553801 5642276 5738356 5845372 
1904.472 5965616 6098863 6243916 6399509 6565417 6743403 6937184 7148971 
1908.330 7378790 7622421 7871588 8113470 8333566 8517110 8649824 8719865 
1912.187 8719358 8644484 8497377 8285404 8022195 7722988 7403899 7079655 
1916.045 6761643 6457955 6175383 5920235 5698974 5516987 5376806 5274835 
1919.902 5202599 5148378 5099697 5047903 4990552 4931164 4878050 4839852 
1923.760 4822128 4825345 4845816 4877547 4916050 4958712 5004897 5054675 
1927.617 5105430 5153207 5192606 5219567 5233015 5235899 5234289 5234423 
1931.474 5240225 5252063 5266451 5278893 5285602 5285266 5278726 5268396 
1935.332 5255316 5239453 5219433 5194349 5165378 5135906 5110224 5091450 
1939.189 5079482 5070497 5058362 5037579 5005769 4966152 4924763 4889443 
1943.047 4864010 4848564 4838378 4828092 4814121 4796901 4780987 4771674 
1946.904 4772311 4782863 4799279 4816433 4830169 4839283 4846118 4854427 
1950.761 4865853 4879692 4891755 4897251 4892660 4878553 4858013 4836166 
1954.619 4817974 4804673 4795024 4786046 4773852 4757805 4739013 4719719 
1958.476 4702000 4686391 4671453 4656315 4640876 4627212 4618639 4619141 
1962.334 4628820 4645698 4664286 4678956 4684448 4678889 4661875 4635920 
1966.191 4603369 4567438 4531746 4500877 4480288 4474496 4486079 4512193 
1970.049 4546009 4578388 4599618 4605914 4599518 4589271 4586224 4599652 
1973.906 4633274 4686358 4752848 4827757 4908812 4997390 5095640 5203907 
1977.763 5318069 5429545 5529336 5610891 5672722 5718648 5755245 5788352 
1981.621 5821797 5855917 5889301 5921612 5954295 5991382 6036871 6092008 
1985.478 6154412 6217698 6274405 6319151 6351931 6377182 6402872 6435760 
1989.336 6479647 6532587 6589504 6643231 6689293 6726577 6757706 6786346 
1993.193 6815964 6847065 6878203 6906211 6927353 6939742 6941695 6931326 
1997.051 6908601 6872042 6822056 6760734 6693465 6625332 6562222 6506823 
2000.908 6458359 6412355 6363733 6308225 6247245 6184559 6126620 6079374 
2004.765 6045607 6023264 6007541 5993263 5977440 5960174 5945058 5934208 
2008.623 5929841 5930647 5933368 5935014 5934846 5932058 5928263 5923560 
2012.480 5916910 5905187 5886177 5857730 5822335 5783886 5747858 5718782 
2016.338 5699579 5689172 5686822 5691690 5704749 5727780 5762228 5806887 
2020.195 5858335 5911099 5959099 6000016 6033511 6061532 6085725 6106189 
2024.052 6119899 6123192 6114186 6094226 6069832 6050109 6043691 6054947 
2027.910 6082667 6120437 6160629 6196894 6227614 6255749 6285398 6320160 
2031.767 6360539 6403107 6443023 6476923 6502753 6522362 6536489 6546513 
2035.625 6550112 6544629 6526802 6495556 6453449 6405192 6355125 6306846 
2039.482 6260959 6216152 6170980 6126855 6087405 6059046 6046077 6050848 
2043.340 6070504 6097956 6126687 6151287 6170779 6188726 6211648 6245160 
2047.197 6292794 6354419 6425267 6499289 6568647 6626442 6666278 6684448 
2051.054 6678896 6651878 6608646 6556705 6505545 6463639 6434482 6417432 
2054.912 6407008 6395037 6374829 6343761 6303518 6260421 6220455 6189499 
2058.769 6168695 6157067 6150615 6146178 6141205 6134652 6126183 6115228 
2062.627 6099838 6078770 6051587 6020744 5990643 5966859 5953724 5952381 
2066.484 5960208 5971629 5980867 5984294 5980833 5972637 5963298 5955135 
2070.342 5949458 5944923 5940019 5933603 5926113 5918488 5912341 5907841 
2074.199 5903239 5896455 5885438 5870291 5853398 5838790 5830797 5831905 
2078.056 5841846 5857462 5875732 5892827 5907236 5918556 5927994 5936492 
2081.914 5944588 5952448 5960308 5969479 5981807 5999277 6022793 6051419 
2085.771 6081894 6110053 6131291 6143087 6144969 6137743 6123864 6105853 
2089.629 6085523 6064960 6047152 6035393 6033847 6046715 6076014 6121075 
2093.486 6178912 6244421 6313335 6382663 6451599 6521118 6592531 6665807 
2097.344 6740374 6814853 6888907 6963917 7043654 7132062 7232953 7347718 
2101.201 7475053 7611496 7754323 7900234 8048725 8199834 8353697 8508831 
2105.058 8661959 8808007 8941893 9059952 9160277 9243193 9310384 9362689 
2108.916 9400508 9423228 9429391 9418556 9391671 9351145 9300263 9241602 
2112.773 9176724 9105154 9026188 8937698 8839522 8732644 8619439 8503121 
2116.631 8386598 8272301 8161477 8055139 7953145 7855291 7760530 7667104 
2120.488 7573428 7477649 7378925 7278101 7176761 7077196 6981021 6888739 
2124.345 6798933 6710425 6621901 6533798 6447732 6366893 6293433 6228253 
2128.203 6170073 6116337 6064523 6013689 5964373 5919764 5883155 5857630 
2132.060 5844163 5841980 5849906 5866396 5890073 5920940 5958360 6000822 
2135.918 6046581 6093084 6137676 6178543 6215077 6246404 6271749 6290373 
2139.775 6300123 6300862 6293399 6280725 6267010 6257026 6252892 6255614 
2143.633 6263850 6275246 6288155 6303081 6320563 6341609 6365313 6388850 
2147.490 6407714 6419181 6421838 6419013 6415684 6417869 6428294 6446420 
2151.347 6466195 6479950 6481161 6465421 6432767 6386765 6331355 6271952 
2155.205 6213396 6162377 6128267 6124066 6163553 6257631 6407748 6602624 
2159.062 6820508 7035370 7221936 7365714 7463188 7521169 7550737 7565201 
2162.920 7575181 7587319 7605898 7632200 7666092 7705483 7745114 7778677 
2166.777 7798749 7799829 7780668 7744878 7699885 7654558 7616048 7587117 
2170.635 7566516 7549220 7530913 7509371 7486750 7467671 7457457 7459614 
2174.492 7472862 7492751 7511629 7522822 7521979 7508561 7485537 7459041 
2178.349 7434772 7417481 7410471 7413470 7424155 7437604 7447109 7446873 
2182.207 7433154 7404876 7365377 7321467 7280021 7246868 7224834 7210987 
2186.064 7201757 7191516 7177670 7159682 7140786 7124752 7114682 7110741 
2189.922 7110202 7109259 7104746 7094271 7079621 7063624 7049682 7040286 
2193.779 7037154 7039276 7046482 7058135 7074670 7096427 7123978 7156112 
2197.636 7191381 7228236 7264691 7299665 7333228 7364433 7392945 7417481 
2201.494 7436896 7450715 7460288 7467300 7475626 7487256 7504044 7526126 
2205.351 7552760 7582869 7617262 7657627 7706967 7767984 7842842 7931548 
2209.209 8032827 8144664 8264229 8389334 8517718 8645938 8771219 8889639 
2213.066 8997873 9094158 9178246 9250911 9313668 9367971 9413544 9450249 
2216.924 9476935 9494138 9502741 9505044 9502571 9496238 9484826 9465861 
2220.781 9436942 9397054 9347184 9290615 9231686 9173610 9117031 9059918 
2224.638 8998347 8928127 8846250 8753436 8652664 8548638 8445852 8348529 
2228.496 8258522 8176908 8104760 8042481 7991247 7951256 7921087 7899020 
2232.353 7881777 7866695 7851681 7836837 7821790 7807689 7794330 7780769 
2236.211 7766196 7751152 7736244 7725045 7720492 7724843 7738200 7758168 
2240.068 7780330 7800166 7814199 7821048 7821048 7815650 7805867 7792339 
2243.926 7775034 7753918 7730273 7707608 7689497 7680290 7682617 7696647 
2247.783 7719919 7748656 7777631 7802831 7821217 7831236 7832856 7828031 
2251.640 7819024 7809510 7803472 7804349 7814267 7832451 7855865 7879617 
2255.498 7899020 7910694 7914440 7913495 7912820 7917375 7930468 7952470 
2259.355 7981189 8012712 8043156 8070092 8092979 8112019 8129135 8145238 
2263.213 8161039 8176232 8190819 8204662 8218202 8231980 8246163 8260616 
2267.070 8275138 8289052 8302223 8314551 8326135 8336808 8345726 8351434 
2270.927 8352617 8347820 8336910 8320630 8300163 8277063 8252782 8228197 
2274.785 8203717 8180723 8160296 8143956 8133321 8128291 8128561 8131532 
2278.642 8134435 8134570 8130350 8121235 8108643 8094633 8080657 8068640 
2282.500 8059256 8052337 8047848 8045620 8045013 8045485 8046295 8046160 
2286.357 8044506 8041367 8037384 8033908 8032726 8034481 8039240 8046295 
2290.215 8053924 8060910 8066683 8071273 8076202 8082379 8091021 8102600 
2294.072 8117217 8134536 8154455 8176874 8201488 8227827 8255145 8281318 
2297.929 8305060 8324987 8340896 8353224 8363391 8372985 8383287 8395516 
2301.787 8410008 8427474 8448522 8473793 8504033 8539142 8578815 8621399 
2305.644 8665509 8709825 8753842 8797863 8842294 8887981 8934553 8981096 
2309.502 9025714 9066854 9103023 9134221 9161089 9184879 9207216 9229587 
2313.359 9252670 9277786 9305916 9338720 9377891 9424853 9480524 9544162 
2317.217 9614076 9687830 9762612 9836289 9907403 9975273 10039526 10099820 
2321.074 10155306 10204354 10244893 10274782 10291983 10295783 10286724 
2324.449 10266538 10238176 10205847 10173623 10145776 10126172 10116608 
2327.824 10117761 10128783 10147234 10170400 10195535 10220468 10243875 
2331.200 10265825 10286555 10306980 10328119 10351431 10378239 10409528 
2334.575 10445707 10486506 10530907 10576466 10621012 10662948 10701627 
2337.950 10737525 10771795 10805899 10840515 10874827 10907036 10934966 
2341.325 10955931 10968097 10969727 10958921 10932519 10887058 10818841 
2344.701 10726691 10613542 10488576 10366294 10263688 10196824 10177828 
2348.076 10212021 10298735 10430943 10598840 10790070 10991782 11193656 
2351.451 11387393 11567774 11732536 11881119 12013366 12128789 12227065 
2354.826 12308899 12375543 12430537 12478104 12522026 12564965 12607566 
2358.202 12648875 12687015 12720553 12748736 12772076 12791117 12806644 
2361.577 12818963 12828006 12833740 12836368 12836470 12834081 12828177 
2364.952 12816608 12796065 12762657 12714821 12652764 12579494 12499416 
2368.327 12417751 12337806 12260942 12186443 12111855 12035100 11955394 
2371.703 11872605 11788266 11703704 11619773 11536298 11452773 11368243 
2375.078 11282879 11197158 11112371 11029540 10949543 10871735 10795233 
2378.453 10718778 10641725 10564007 10486947 10411971 10341352 10277123 
2381.828 10221214 10175522 10141808 10121017 10113792 10119558 10136143 
2385.204 10160394 10188683 10217618 10245469 10271864 10298328 10327406 
2388.579 10361271 10401214 10447235 10497945 10551445 10605937 10660401 
2391.954 10714702 10769112 10824175 10880331 10937208 10994568 11051631 
2395.329 11107919 11163058 11216810 11269005 11319437 11367937 11414095 
2398.705 11458046 11499450 11538477 11575056 11609052 11640023 11667727 
2402.080 11691961 11713032 11731413 11748060 11763822 11779686 11796096 
2405.455 11813733 11832869 11853469 11875500 11898860 11923312 11948821 
2408.830 11975490 12003966 12035236 12070427 12110560 12156081 12206583 
2412.206 12261180 12318444 12377214 12436981 12498257 12561690 12628783 
2415.581 12700832 12778354 12861351 12949687 13042277 13138983 13239265 
2418.956 13342679 13449022 13558263 13669890 13783872 13900518 14019934 
2422.331 14142429 14268314 14397352 14529238 14663666 14800466 14939813 
2425.707 15082704 15229829 15382324 15541054 15706336 15878519 16058128 
2429.082 16245689 16442690 16650593 16871338 17106604 17357652 17625270 
2432.457 17910352 18213208 18534188 18873502 19231266 19607312 20000792 
2435.832 20410950 20835922 21273036 21718568 22166648 22609956 23040264 
2439.208 23447780 23823578 24160256 24450994 24691594 24879096 25012062 
2442.583 25090376 25115160 25089182 25016416 24902186 24752588 24573732 
2445.958 24371606 24151604 23917358 23672708 23420712 23164352 22907166 
2449.333 22652716 22404450 22166126 21940790 21731072 21539386 21367486 
2452.708 21216770 21087916 20981044 20895334 20829004 20780826 20749092 
2456.084 20733280 20733350 20750414 20785276 20838528 20910284 20999266 
2459.459 21103674 21221538 21350536 21489076 21635880 21790330 21952082 
2462.834 22121808 22299902 22488226 22688428 22902172 23130906 23375706 
2466.209 23636810 23914592 24209510 24522402 24854746 25208728 25585598 
2469.585 25986362 26410208 26855052 27317110 27792414 28277220 28768906 
2472.960 29266466 29770556 30283084 30807066 31344824 31898972 32470718 
2476.335 33061382 33671072 34300304 34948796 35615664 36298796 36993940 
2479.710 37694060 38390536 39071200 39722724 40331372 40881388 41356944 
2483.086 41742332 42020632 42175892 42195064 42067064 41786656 41353336 
2486.461 40772260 40053172 39209744 38259672 37222676 36120560 34977024 
2489.836 33814104 32653038 31512204 30406344 29346326 28340490 27393404 
2493.211 26508776 25688092 24932082 24241148 23614454 23050712 22547866 
2496.587 22102494 21710974 21368530 21070282 20811552 20587684 20394872 
2499.962 20229808 20089310 19971024 19871986 19789304 19719604 19659522 
2503.337 19605304 19553796 19502640 19450002 19395358 19338888 19280830 
2506.712 19221706 19161622 19100436 19037808 18973422 18907140 18839522 
2510.088 18771116 18702100 18632610 18562094 18489480 18414148 18335716 
2513.463 18254812 18172644 18091046 18011638 17935490 17863120 17794590 
2516.838 17729560 17668060 17610536 17557676 17509860 17467018 17428352 
2520.213 17392896 17359100 17326064 17293754 17262588 17233384 17206666 
2523.589 17181916 17157890 17133038 17105708 17074932 17041332 17005976 
2526.964 16971210 16938652 16909646 16884568 16863280 16845264 16830178 
2530.339 16818604 16811200 16808754 16812336 16821980 16837720 16858696 
2533.714 16883980 16912368 16943338 16975656 17008940 17042364 17075414 
2537.090 17107362 17138314 17167956 17196568 17224560 17252106 17279136 
2540.465 17305410 17330306 17353238 17373410 17390242 17403416 17413072 
2543.840 17419730 17424248 17428006 17432250 17438422 17447012 17458706 
2547.215 17473468 17490786 17510484 17532112 17555572 17581172 17609328 
2550.591 17640558 17674824 17712374 17752480 17794800 17838434 17882488 
2553.966 17926546 17970228 18013052 18055466 18097920 18140896 18185462 
2557.341 18232938 18283910 18339484 18400182 18465898 18535952 18609368 
2560.716 18684320 18759180 18832772 18904096 18973108 19040784 19108468 
2564.092 19177932 19250766 19327698 19409114 19494808 19583916 19675502 
2567.467 19768462 19861686 19954198 20045240 20133766 20219464 20302020 
2570.842 20382124 20460822 20539742 20620586 20705164 20794486 20889180 
2574.217 20988798 21092856 21200036 21309192 21419870 21531414 21643960 
2577.593 21758488 21875552 21996554 22122786 22254946 22393846 22539628 
2580.968 22692234 22851388 23017136 23189378 23368434 23554598 23748364 
2584.343 23950444 24161272 24381838 24613144 24856710 25113930 25386198 
2587.718 25674418 25978836 26298778 26632836 26978716 27333766 27694932 
2591.094 28058766 28421704 28779598 29128576 29464180 29781982 30077858 
2594.469 30347856 30588298 30796574 30970328 31108554 31211042 31278766 
2597.844 31312916 31315870 31289876 31237782 31162128 31065844 30951612 
2601.219 30821900 30678786 30523704 30357448 30181240 29995874 29803062 
2604.594 29605120 29404612 29204336 29006918 28813906 28626608 28445618 
2607.970 28271244 28103870 27944332 27793332 27651354 27518742 27394850 
2611.345 27278862 27169610 27066024 26967612 26874016 26785478 26702280 
2614.720 26624840 26553296 26487820 26428730 26376686 26332750 26298356 
2618.095 26274946 26263822 26266356 26282972 26314514 26361092 26423166 
2621.471 26500886 26594580 26704042 26828792 26968104 27120794 27285850 
2624.846 27462050 27648600 27844484 28048870 28260458 28477706 28698814 
2628.221 28921272 29142854 29361004 29573128 29777334 29971908 30155206 
2631.596 30326074 30483076 30624632 30748666 30852706 30933678 30988724 
2634.972 31015592 31012532 30979118 30916032 30824818 30707446 30566754 
2638.347 30405456 30226494 30033190 29828756 29617288 29402804 29189098 
2641.722 28979926 28778572 28587076 28407554 28240798 28087680 27948574 
2645.097 27824384 27715840 27623882 27548994 27491912 27452202 27429120 
2648.473 27421674 27428590 27448286 27480300 27523790 27578440 27643868 
2651.848 27719442 27803930 27895820 27993206 28093936 28196280 28298722 
2655.223 28400266 28500384 28599144 28696512 28792982 28889116 28985592 
2658.598 29083188 29182506 29284046 29387948 29494216 29602142 29711834 
2661.974 29823468 29937544 30055134 30177832 30306818 30442984 30586946 
2665.349 30738566 30896926 31061288 31230378 31403486 31579938 31759426 
2668.724 31941552 32126504 32314104 32504570 32698300 32895654 33096888 
2672.099 33302758 33513632 33730120 33952524 34181096 34415560 34655540 
2675.475 34900388 35148576 35399276 35651200 35903488 36155668 36407384 
2678.850 36658272 36908004 37156296 37402236 37645636 37886396 38124572 
2682.225 38360780 38595384 38828952 39061520 39293272 39524200 39754600 
2685.600 39985156 40216892 40450972 40688416 40930244 41176876 41428964 
2688.976 41687184 41952088 42224752 42506212 42797244 43098356 43409492 
2692.351 43730268 44060628 44400160 44748776 45106196 45472520 45847292 
2695.726 46230236 46620828 47018636 47423460 47835208 48253716 48678672 
2699.101 49108900 49543012 49979528 50416780 50853464 51288728 51722000 
2702.477 52152720 52580500 53004652 53424880 53840408 54251272 54656356 
2705.852 55055168 55446736 55829692 56202952 56565628 56917616 57258844 
2709.227 57589716 57910084 58219024 58515096 58796508 59061200 59308436 
2712.602 59537984 59750584 59947048 60127536 60291772 60438056 60564428 
2715.978 60668816 60749636 60805888 60837180 60843316 60823840 60777760 
2719.353 60703792 60600388 60465552 60298128 60097020 59862268 59594196 
2722.728 59294192 58964560 58608184 58228152 57827368 57408272 56973032 
2726.103 56523620 56062916 55594708 55124264 54658048 54202880 53764616 
2729.479 53348368 52957152 52592428 52254580 51943468 51659376 51402660 
2732.854 51174124 50974436 50804036 50662752 50549724 50463372 50401784 
2736.229 50362676 50343252 50340724 50352444 50375736 50409372 50452168 
2739.604 50504012 50565096 50635568 50715364 50804336 50902528 51010504 
2742.979 51129764 51262816 51412468 51581236 51771012 51982232 52214032 
2746.355 52464616 52731616 53013000 53307012 53612204 53927324 54251724 
2749.730 54584216 54923844 55269760 55621560 55978436 56339564 56703716 
2753.105 57069000 57433608 57795080 58151552 58501528 58843664 59176960 
2756.480 59499944 59811040 60108168 60389428 60652772 60896720 61120592 
2759.856 61323704 61506256 61669256 61814476 61945228 62065116 62179232 
2763.231 62292000 62406712 62524660 62645136 62765300 62880672 62986000 
2766.606 63076184 63145952 63190600 63206160 63188800 63135488 63044420 
2769.981 62914988 62748148 62545596 62310012 62044168 61751104 61434072 
2773.357 61095876 60740412 60371532 59993036 59609132 59223668 58840136 
2776.732 58462136 58093252 57736868 57396588 57074856 56773040 56491808 
2780.107 56230708 55988500 55764320 55557164 55367008 55193148 55034816 
2783.482 54890076 54756140 54629488 54506148 54382540 54255740 54122932 
2786.858 53981876 53830320 53665324 53484128 53283972 53062832 52819316 
2790.233 52553308 52265080 51955904 51627320 51281344 50920300 50546896 
2793.608 50164664 49776300 49384944 48992604 48600804 48210136 47820892 
2796.983 47433436 47048064 46665796 46287812 45915828 45551372 45196012 
2800.359 44850824 44517140 44195348 43886068 43589428 43305620 43035024 
2803.734 42778268 42536028 42309588 42100064 41908260 41734604 41578872 
2807.109 41440156 41317332 41209660 41116184 41036352 40970076 40917392 
2810.484 40878400 40852772 40840432 40840836 40853864 40879276 40916300 
2813.860 40964760 41023788 41092040 41168240 41250648 41337520 41427324 
2817.235 41518316 41608884 41697832 41783848 41866848 41947128 42026068 
2820.610 42105612 42188088 42275844 42370556 42473616 42585732 42707376 
2823.985 42839264 42981980 43136960 43305584 43489652 43690768 43910888 
2827.361 44151880 44415908 44704772 45019780 45361720 45729584 46121088 
2830.736 46532008 46955944 47385172 47810460 48221132 48607252 48958704 
2834.111 49266832 49525628 49731972 49885000 49986852 50041356 50052808 
2837.486 50026112 49966624 49879536 49770616 49646712 49514604 49381452 
2840.862 49253876 49136952 49034816 48950992 48887984 48848940 48837484 
2844.237 48857208 48912164 49005624 49139028 49311892 49521064 49760772 
2847.612 50022132 50294516 50565284 50820612 51047732 51235152 51374612 
2850.987 51462112 51497700 51486136 51435632 51356748 51262256 51164168 
2854.363 51074600 51004204 50961692 50953460 50983748 51054292 51165288 
2857.738 51315500 51502924 51724692 51977788 52258948 52564192 52889184 
2861.113 53229208 53579176 53934976 54292120 54646776 54994876 55332308 
2864.488 55654144 55955296 56230480 56475092 56685364 56858840 56994416 
2867.864 57091860 57152404 57177992 57171604 57137172 57079616 57004352 
2871.239 56916860 56822508 56725992 56631420 56542908 56464224 56399704 
2874.614 56353600 56330176 56332852 56364312 56425660 56516980 56637196 
2877.989 56784368 56956220 57150172 57363348 57592780 57836000 58090752 
2881.365 58355248 58628320 58909120 59196820 59490180 59787540 60086632 
2884.740 60385432 60682380 60975984 61266240 61553480 61838204 62121156 
2888.115 62403040 62683992 62964356 63244372 63524104 63803904 64083336 
2891.490 64362236 64640032 64916088 65189392 65458744 65722680 65979248 
2894.865 66225976 66460064 66679208 66881224 67064896 67229688 67375344 
2898.241 67501664 67608120 67694000 67758712 67802160 67824824 67828120 
2901.616 67813624 67783344 67738184 67679096 67606848 67522680 67428512 
2904.991 67327448 67223192 67119576 67019500 66925444 66839060 66761464 
2908.366 66694504 66640040 66600100 66577040 66572056 66585152 66615200 
2911.742 66659392 66714444 66776112 66839800 66900320 66951692 66987568 
2915.117 67001568 66987684 66941336 66859932 66743308 66593224 66413148 
2918.492 66207296 65979788 65734244 65472960 65196672 64904548 64594740 
2921.867 64265140 63914248 63541628 63148900 62739684 62318924 61891960 
2925.243 61463960 61039092 60620008 60208636 59805716 59411796 59027264 
2928.618 58652100 58285972 57928336 57578252 57234992 56898200 56567816 
2931.993 56244664 55929744 55623784 55327828 55042152 54767040 54502840 
2935.368 54249920 54008136 53777324 53556648 53344324 53138392 52937012 
2938.744 52738572 52542764 52350184 52161648 51978684 51802332 51633068 
2942.119 51471064 51316024 51167600 51025260 50888484 50756364 50627680 
2945.494 50501300 50376032 50250916 50126172 50001944 49879348 49759172 
2948.869 49642144 49528716 49419320 49314600 49215540 49124336 49043832 
2952.245 48977732 48929964 48904860 48906156 48936936 48999096 49092800 
2955.620 49216100 49364452 49530756 49706260 49880056 50041504 50179836 
2958.995 50285516 50351660 50373352 50349056 50280452 50172544 50033024 
2962.370 49871212 49697608 49522212 49353092 49196952 49058816 48941944 
2965.746 48848940 48781720 48741648 48728708 48741648 48777232 48830064 
2969.121 48894140 48962304 49027400 49083596 49125448 49148636 49150044 
2972.496 49127820 49081000 49010040 48916536 48803224 48673188 48529512 
2975.871 48375000 48211656 48041044 47864028 47681088 47492756 47299188 
2979.247 47100832 46898396 46692768 46485872 46280144 46078308 45883456 
2982.622 45698112 45524324 45363004 45214912 45079840 44957744 44848692 
2985.997 44752412 44668932 44598208 44539796 44494016 44461456 44443432 
2989.372 44441012 44456168 44489096 44539940 44607976 44692692 44794472 
2992.748 44915488 45059400 45231128 45434480 45671020 45938184 46228876 
2996.123 46529980 46823800 47091080 47310456 47462376 47532420 47511312 
2999.498 47398920 47203692 46944020 46644440 46334404 46045080 45803884 
3002.873 45632520 45545704 45548208 45636348 45797068 46011444 46253568 
3006.249 46493764 46703392 46854508 46924640 46900352 46776120 46556572 
3009.624 46252832 45882384 45464500 45017868 44560832 44107972 43671092 
3012.999 43259496 42879052 42533544 42224424 41951472 41713480 41508468 
3016.374 41334676 41189772 41070912 40975284 40898936 40837048 40785688 
3019.750 40740924 40700092 40662176 40626920 40594504 40565548 40539972 
3023.125 40517496 40497780 40480904 40466940 40456572 40450064 40447224 
3026.500 40447332 40448932 40450352 40450208 40447772 40442532 40434860 
3029.875 40425696 40415296 40404456 40393912 40383984 40374676 40365876 
3033.250 40356388 40344860 40329516 40308792 40281564 40248372 40209588 
3036.626 40167064 40121848 40074868 40026432 39976364 39924604 39871716 
3040.001 39818728 39767164 39718616 39673892 39633380 39596568 39562780 
3043.376 39531460 39502316 39475716 39451988 39431596 39414576 39400680 
3046.751 39389544 39381236 39376052 39374780 39378156 39386860 39401080 
3050.127 39420784 39445780 39476080 39512224 39555160 39606372 39667136 
3053.502 39738732 39821776 39916684 40023596 40142528 40273308 40415692 
3056.877 40569256 40732664 40904396 41081876 41261216 41437168 41603196 
3060.252 41750140 41867796 41945120 41970812 41936032 41834412 41663480 
3063.628 41425428 41126276 40775828 40385404 39968268 39538064 39106728 
3067.003 38685380 38283116 37905952 37558132 37241048 36954864 36698072 
3070.378 36469072 36265984 36087112 35930768 35795352 35678972 35579592 
3073.753 35495232 35424048 35364660 35316172 35277716 35248072 35225648 
3077.129 35208004 35192412 35175452 35154648 35128276 35095984 35058768 
3080.504 35018612 34978100 34940036 34906496 34879100 34858524 34844884 
3083.879 34837916 34837236 34842156 34851416 34863336 34874504 34880032 
3087.254 34874252 34850376 34802448 34726424 34620660 34486980 34329564 
3090.630 34154924 33970580 33783016 33598144 33420078 33251174 33092848 
3094.005 32945230 32808240 32681260 32563352 32453724 32351262 32254964 
3097.380 32163862 32076702 31992518 31909958 31827516 31743776 31657554 
3100.755 31568394 31476368 31382612 31288236 31194560 31102112 31011180 
3104.131 30920870 30830224 30738422 30644794 30549190 30452120 30354180 
3107.506 30255694 30157336 30058932 29960654 29862152 29763638 29665000 
3110.881 29566354 29467762 29369336 29270718 29172018 29073126 28974116 
3114.256 28875378 28777190 28679946 28584280 28490372 28398638 28309296 
3117.632 28222094 28136746 28052510 27968326 27883100 27795840 27705668 
3121.007 27612300 27516128 27417438 27317498 27217652 27118818 27022016 
3124.382 26927738 26835912 26746114 26657640 26569498 26481270 26392672 
3127.757 26303706 26215250 26127832 26042440 25959172 25878312 25799224 
3131.133 25721382 25644470 25568202 25492614 25418728 25346854 25277804 
3134.508 25211784 25148582 25087706 25028314 24969562 24910888 24851906 
3137.883 24792474 24732350 24671638 24609742 24545998 24479634 24410088 
3141.258 24337052 24260628 24182044 24102776 24024328 23948028 23874824 
3144.634 23804850 23737550 23672392 23609030 23547146 23487194 23429700 
3148.009 23375148 23323576 23274352 23226462 23178612 23129718 23078840 
3151.384 23025660 22970112 22912580 22853170 22792510 22731022 22669192 
3154.759 22607652 22546958 22487494 22429396 22372528 22316714 22262094 
3158.135 22208910 22158140 22110442 22066446 22026392 21989480 21954662 
3161.510 21920750 21886774 21852554 21818792 21786356 21756710 21730654 
3164.885 21708848 21691536 21678720 21670430 21666842 21668166 21674504 
3168.260 21685754 21702056 21723408 21750614 21784998 21828200 21882488 
3171.635 21949676 22030992 22127038 22238100 22363982 22505010 22661932 
3175.011 22835394 23026254 23234992 23461418 23705006 23965114 24240656 
3178.386 24530536 24833450 25146934 25467108 25789064 26106298 26411580 
3181.761 26698264 26959856 27190986 27387580 27546596 27666044 27745506 
3185.136 27785738 27788810 27758116 27697544 27611312 27503422 27377876 
3188.512 27238432 27089336 26935564 26781884 26633084 26492330 26360704 
3191.887 26237108 26118402 26000680 25880246 25754360 25622150 25483796 
3195.262 25340640 25193840 25045022 24895764 24747258 24601256 24459406 
3198.637 24322894 24192170 24067122 23947014 23831032 23718722 23610676 
3202.013 23507866 23411586 23322458 23240478 23164492 23093132 23024996 
3205.388 22959738 22897596 22839306 22786156 22738564 22696214 22658406 
3208.763 22624162 22592782 22564548 22539732 22518934 22502636 22490562 
3212.138 22482084 22476326 22473046 22471964 22473710 22478978 22488226 
3215.514 22501276 22517712 22536418 22556694 22577670 22599102 22620672 
3218.889 22642488 22664410 22686264 22708188 22730324 22753018 22777112 
3222.264 22802706 22829910 22858688 22888272 22918134 22947860 22976926 
3225.639 23005048 23032090 23057630 23081496 23104488 23127134 23151108 
3229.015 23178192 23209930 23246700 23288336 23333122 23379098 23424454 
3232.390 23467994 23509370 23549070 23588250 23627574 23667704 23709064 
3235.765 23751862 23796556 23843354 23892782 23944702 23999010 24054900 
3239.140 24111706 24169224 24227448 24286836 24347878 24410194 24472866 
3242.516 24534112 24592316 24646282 24696294 24744030 24792192 24843554 
3245.891 24900256 24963034 25031370 25103786 25178426 25253960 25329398 
3249.266 25404570 25479508 25553898 25627282 25699132 25768846 25836288 
3252.641 25901700 25965748 26028930 26092012 26155350 26219086 26283746 
3256.017 26350000 26418270 26489370 26563404 26640200 26718664 26797670 
3259.392 26875390 26950722 27022792 27091204 27155816 27217512 27276992 
3262.767 27335424 27393650 27452238 27511222 27570178 27627836 27683276 
3266.142 27735582 27785032 27832508 27879708 27928008 27978858 28032046 
3269.518 28086548 28140246 28191296 28238004 28279838 28317112 28350818 
3272.893 28381908 28411232 28438684 28464156 28487400 28508310 28527168 
3276.268 28545214 28562978 28581450 28601092 28622078 28644446 28668196 
3279.643 28693502 28720548 28749506 28780234 28812100 28844568 28876722 
3283.019 28907568 28936784 28963880 28988816 29011416 29031500 29048610 
3286.394 29062144 29071710 29077200 29078936 29078052 29075888 29074012 
3289.769 29073906 29075996 29080318 29085810 29091374 29095340 29097430 
3293.144 29097678 29096828 29096332 29096828 29098812 29101648 29104020 
3296.520 29104552 29102214 29096758 29088644 29078866 29068626 29058354 
3299.895 29048894 29040038 29031500 29023706 29017190 29012442 29010494 
3303.270 29011556 29015596 29022112 29030048 29038374 29046308 29053216 
3306.645 29058530 29062250 29064412 29065582 29066678 29069194 29074332 
3310.021 29083188 29096474 29113516 29133144 29154192 29175490 29196398 
3313.396 29217342 29238644 29261182 29285180 29310348 29335798 29361004 
3316.771 29385502 29409930 29435032 29462052 29491804 29524786 29560714 
3320.146 29598950 29639494 29681568 29725138 29770628 29817790 29866056 
3323.521 29914970 29963566 30011034 30057262 30101686 30144516 30185646 
3326.897 30224398 30260276 30293032 30322272 30348318 30371948 30393658 
3330.272 30413986 30432714 30449454 30463422 30474012 30480944 30484178 
3333.647 30484106 30481014 30474972 30465838 30453258 30436980 30416828 
3337.022 30392876 30365302 30334210 30300030 30263154 30223972 30183336 
3340.398 30142100 30100692 30059146 30016962 29972656 29925298 29873440 
3343.773 29816866 29755652 29691114 29624170 29555888 29486626 29416206 
3347.148 29344590 29271570 29197000 29121700 29046344 28971282 28896872 
3350.523 28822864 28748620 28673610 28597056 28519102 28439250 28357856 
3353.899 28274674 28190024 28104436 28018546 27933380 27850172 27769454 
3357.274 27691576 27615726 27540840 27465580 27389416 27311536 27232822 
3360.649 27154300 27076710 27001036 26927738 26856496 26787310 26720180 
3364.024 26655032 26591690 26530084 26469192 26408166 26345916 26281492 
3367.400 26214688 26146166 26076706 26007538 25939474 25872930 25807488 
3370.775 25742548 25677512 25611640 25545218 25478208 25411176 25344678 
3374.150 25278752 25213750 25149600 25086408 25024314 24963666 24904818 
3377.525 24848114 24793808 24741856 24692014 24643688 24596068 24548100 
3380.901 24498774 24447312 24393230 24336210 24276534 24214766 24151534 
3384.276 24088170 24025694 23965430 23908852 23857216 23811152 23770692 
3387.651 23735030 23702102 23669524 23634884 23596120 23552008 23502968 
3391.026 23450016 23395080 23340114 23286238 23234430 23184484 23135868 
3394.402 23088134 23040964 22994218 22948104 22903186 22859456 22817268 
3397.777 22776554 22736992 22698204 22660012 22621648 22582662 22542630 
3401.152 22500542 22455774 22407452 22354598 22296904 22234404 22167624 
3404.527 22098170 22028414 21960306 21896356 21838062 21785696 21738212 
3407.903 21693698 21649742 21603910 21554778 21501646 21444968 21386004 
3411.278 21325652 21264928 21204072 21142738 21079814 21015262 20948358 
3414.653 20879724 20809954 20740300 20671630 20604290 20537622 20470444 
3418.028 20401572 20329762 20254700 20177464 20099478 20022998 19949860 
3421.404 19881004 19816422 19754730 19693878 19632376 19569184 19504512 
3424.779 19439398 19375334 19313702 19255026 19198710 19143304 19086552 
3428.154 19026452 18961686 18891464 18816062 18736866 18655230 18573228 
3431.529 18492384 18413696 18338100 18265800 18196312 18129150 18064000 
3434.905 18000138 17937562 17876204 17816512 17758416 17702156 17647148 
3438.280 17592558 17537736 17481644 17423386 17362548 17299272 17233834 
3441.655 17167818 17102674 17039540 16979720 16923218 16868480 16813094 
3445.030 16754065 16688637 16615786 16536303 16452946 16370121 16292265 
3448.406 16221818 16159328 16102793 16048983 15994629 15937155 15876079 
3451.781 15812503 15748387 15685448 15624546 15565678 15507435 15448412 
3455.156 15387337 15324244 15259411 15194072 15128881 15064626 15001855 
3458.531 14940499 14880661 14822613 14765739 14710004 14654446 14598005 
3461.906 14539687 14478911 14415573 14349746 14282318 14213189 14142531 
3465.282 14070721 13997828 13925015 13853959 13786506 13723577 13665480 
3468.657 13610227 13555186 13496939 13433130 13362599 13286339 13206678 
3472.032 13126723 13048900 12975052 12905482 12839679 12776853 12716254 
3475.407 12657302 12600061 12544160 12489459 12435208 12380725 12325329 
3478.783 12268508 12209957 12149573 12087665 12024642 11961389 11898963 
3482.158 11838895 11782104 11729439 11679606 11630561 11579582 11523199 
3485.533 11459406 11387665 11309745 11228609 11148269 11072398 11003473 
3488.908 10942407 10888859 10841160 10797339 10755390 10713174 10669196 
3492.284 10622234 10571238 10516853 10460370 10402910 10346781 10293340 
3495.659 10243095 10195976 10151270 10107858 10065399 10024063 9984088 
3499.034 9945676 9908488 9870896 9830765 9785825 9734521 9676751 9614313 
3502.892 9549581 9486519 9428104 9376062 9330256 9289397 9250335 9209584 
3506.749 9163661 9110433 9048753 8980216 8907360 8834652 8766588 8706850 
3510.606 8657227 8617850 8586149 8559316 8534411 8509609 8484233 8458859 
3514.464 8434569 8411596 8389536 8366499 8340794 8310633 8275408 8235593 
3518.321 8193283 8150100 8107866 8066615 8025706 7983349 7937724 7888188 
3522.179 7835049 7780330 7726867 7677187 7633043 7594299 7559537 7525620 
3526.036 7489851 7449974 7404943 7355503 7303507 7251248 7200982 7153787 
3529.894 7109933 7069518 7032204 6997722 6965870 6936410 6908029 6878875 
3533.751 6845921 6806607 6759052 6703526 6642289 6579008 6518797 6465488 
3537.608 6421972 6388917 6365549 6350485 6342248 6339188 6340198 6343257 
3541.466 6345913 6344602 6335826 6315991 6283616 6238740 6183550 6121311 
3545.323 6056829 5993565 5935149 5883625 5840066 5804235 5774921 5749033 
3549.181 5723113 5693301 5656374 5611194 5559070 5503430 5449877 5403208 
3553.038 5366943 5341315 5324308 5311764 5299487 5284193 5264304 5239822 
3556.896 5211854 5181574 5149888 5117097 5083773 5049814 5016528 4985022 
3560.753 4956802 4933376 4915715 4903886 4896782 4891922 4885489 4872521 
3564.610 4846587 4802328 4736534 4650253 4549860 4446811 4355601 4287901 
3568.468 4250357 4242595 4257986 4285826 4315843 4339738 4352489 4353627 
3572.325 4345360 4331070 4314404 4297639 4280773 4263741 4244736 4222553 
3576.183 4196858 4167385 4134334 4098308 4060280 4021050 3982526 3946714 
3580.040 3916355 3893888 3881718 3880883 3891748 3912443 3939659 3968549 
3583.897 3992257 4002858 3992859 3955775 3887937 3791362 3674125 3549469 
3587.755 3434368 3345374 3292487 3279333 3301401 3348880 3408686 3468301 
3591.612 3517134 3547799 3557420 3546864 3520341 3484132 3444053 3405547 
3595.470 3371185 3341768 3316192 3293121 3270319 3246416 3220111 3191305 
3599.327 3160498 3129459 3100592 3077032 3061616 3055710 3059447 3071226 
3603.185 3087544 3104897 3120015 3129693 3131829 3124753 3106799 3077132 
3607.042 3035656 2984909 2929363 2875893 2831368 2799886 2781144 2770007 
3610.899 2758069 2737029 2701186 2650678 2591542 2535047 2492156 2471029 
3614.757 2473162 2493056 2519650 2540347 2543046 2519317 2466664 2388695 
3618.614 2295652 2202228 2123575 2072667 2056954 2076396 2125273 2194702 
3622.472 2274367 2356113 2435008 2509852 2581509 2650111 2712722 2760170 
3626.329 2778643 2750967 2663446 2514284 2321401 2122076 1961152 1874589 
3630.187 1871993 1937853 2040774 2147482 2232001 2279130 2286891 2264675 
3634.044 2228271 2192937 2169826 2160968 2162300 2165364 2162234 2148048 
3637.901 2122110 2087183 2047466 2007286 1970238 1938153 1913026 1897018 
3641.759 1892559 1901943 1926138 1963482 2009349 2056820 2097071 2120944 
3645.616 2120878 2091711 2032385 1945608 1838251 1720508 1603429 1498285 
3649.474 1416235 1366940 1358663 1395226 1475144 1589096 1722870 1857617 
3653.331 1972335 2048131 2071402 2037179 1952631 1836953 1718745 1623583 
3657.188 1567879 1553381 1569675 1600137 1628572 1644836 1645202 1632596 
3661.046 1613706 1596379 1587600 1590825 1607553 1637120 1677531 1725997 
3664.903 1778960 1832328 1880445 1917552 1937388 1933394 1901411 1839449 
3668.761 1751147 1647663 1548293 1477372 1454465 1488211 1570640 1680159 
3672.618 1784549 1848001 1839948 1740368 1551918 1306084 1061087 877612 
3676.476 792792 808327 896205 1017843 1137389 1233408 1299172 1340383 
3680.333 1368701 1396789 1431693 1474779 1522590 1572003 1621688 1673573 
3684.190 1729657 1789307 1845871 1886901 1897384 1863574 1779891 1652818 
3688.048 1503405 1360226 1249457 1187290 1174133 1200114 1251019 1315689 
3691.905 1387415 1463043 1540745 1616499 1684151 1737507 1771175 1785115 
3695.763 1784682 1780158 1782952 1800486 1833526 1875121 1913125 1933061 
3699.620 1923709 1880878 1808904 1720043 1631299 1559998 1518467 1512549 
3703.478 1541144 1598175 1675037 1762591 1851927 1935557 2006886 2061381 
3707.335 2096905 2113086 2111588 2094075 2061548 2012878 1946340 1860878 
3711.192 1760063 1653750 1557371 1488244 1460317 1479167 1540413 1630967 
3715.050 1734513 1834059 1915988 1973766 2007286 2021666 2024363 2022032 
3718.907 2017505 2009716 1995569 1972102 1940583 1906037 1877217 1862509 
3722.765 1867467 1891128 1927503 1965845 1996035 2010947 2009782 1997499 
3726.622 1984318 1981555 1997000 2032652 2084586 2142554 2194469 2228338 
3730.479 2236131 2215116 2170558 2111255 2048764 1989011 1930631 1864406 
3734.337 1779060 1667320 1533496 1394130 1273915 1197589 1178352 1215299 
3738.194 1296347 1405066 1525483 1646632 1762492 1867867 1955027 2010648 
3742.052 2013976 1941481 1777563 1527977 1233807 962682 788311 749044 836080 
3746.391 1003496 1195131 1361489 1465669 1491768 1443062 1340615 1214103 
3750.249 1092111 994064 927251 892918 892188 927151 999245 1104269 1231414 
3754.588 1362951 1480663 1570473 1625612 1648893 1649958 1641344 1632729 
3758.446 1626843 1620723 1610746 1596379 1583709 1582412 1601301 1641842 
3762.303 1696757 1751114 1788342 1797625 1778361 1742963 1710828 1702146 
3766.161 1726563 1779093 1841113 1888232 1900113 1866602 1792701 1696525 
3770.018 1604726 1540213 1516572 1535093 1587167 1660468 1742464 1824476 
3773.875 1901378 1970405 2029223 2075763 2106794 2118447 2108558 2076496 
3777.733 2024828 1960519 1893757 1836854 1801684 1796094 1820616 1868931 
3781.590 1929000 1986881 2029389 2047932 2040208 2010015 1966244 1919316 
3785.448 1878449 1849099 1832095 1825807 1827237 1833626 1842710 1852892 
3789.305 1862110 1868532 1871094 1870129 1867867 1868266 1874755 1888865 
3793.163 1908300 1927336 1938353 1935956 1919216 1894023 1872559 1869530 
3797.020 1894788 1949502 2022465 2094807 2141755 2139690 2074265 1946241 
3800.877 1777662 1606788 1479633 1429698 1465270 1568777 1706038 1838384 
3804.735 1928468 1951400 1898915 1783917 1638749 1506398 1425975 1415770 
3808.592 1471920 1572735 1692433 1808205 1906469 1984551 2047133 2100967 
3812.450 2149513 2189740 2211486 2202561 2153642 2066109 1956059 1853824 
3816.307 1791403 1789740 1849332 1950701 2062080 2146750 2173955 2124407 
3820.165 1998398 1817921 1626477 1474646 1398019 1407792 1489673 1614072 
3824.022 1746789 1858949 1933260 1965079 1962683 1942812 1926072 1927436 
3827.879 1952465 1997066 2050695 2101000 2138325 2159137 2165697 2165031 
3831.737 2166030 2175687 2197599 2231036 2271070 2309542 2337457 2344153 
3835.594 2320068 2259146 2161568 2035881 1899181 1774236 1681789 1634060 
3839.452 1631765 1664493 1717381 1774003 1823444 1860978 1888066 1910064 
3843.309 1933926 1964746 2005255 2054889 2111688 2173589 2238463 2305145 
3847.167 2372903 2441006 2508686 2575309 2638043 2692784 2730927 2738696 
3851.024 2697852 2588775 2397291 2126538 1805843 1492832 1251219 1124831 
3854.881 1121543 1217658 1374884 1556108 1735212 1897051 2035881 2152677 
3858.739 2250653 2332327 2398391 2447237 2476494 2484392 2470696 2435841 
3862.596 2381299 2309375 2224341 2134429 2053691 1997998 1981389 2009716 
3866.454 2075697 2160835 2237697 2280363 2269271 2201229 2092111 1975697 
3870.311 1889597 1857351 1881078 1941980 2013344 2069238 2096372 2095939 
3874.168 2084220 2083155 2111155 2175753 2270304 2377001 2473262 2539413 
3878.026 2561177 2534181 2463898 2365707 2262543 2177751 2131266 2132931 
3881.883 2179916 2257514 2343020 2411918 2440939 2416616 2340422 2231802 
3885.741 2123808 2050994 2037179 2084819 2177152 2284027 2374070 2421680 
3889.598 2412751 2349083 2248088 2138325 2048564 2000096 1999730 2041773 
3893.456 2111988 2194802 2278298 2354480 2419281 2471096 2508086 2528682 
3897.313 2531048 2514385 2480726 2435008 2384697 2337524 2298183 2267339 
3901.170 2241260 2213684 2178484 2133264 2080891 2029622 1989977 1972036 
3905.028 1981589 2018371 2077195 2149180 2226140 2300581 2367540 2424546 
3908.885 2470462 2504886 2528182 2542046 2549112 2553578 2561511 2577343 
3912.743 2604075 2640443 2681182 2718023 2741830 2745898 2727493 2689584 
3916.600 2639143 2585609 2537913 2501054 2477560 2467363 2469763 2484425 
3920.458 2511252 2549379 2595675 2644110 2686883 2715756 2725992 2716623 
3924.315 2693084 2664179 2640077 2628309 2631643 2647511 2669680 2691384 
3928.172 2706754 2712755 2709221 2697152 2678615 2655111 2628109 2599909 
3932.030 2573576 2553778 2545046 2550379 2569377 2598342 2631176 2660212 
3935.887 2680082 2688450 2687016 2680448 2674714 2674881 2682782 2696652 
3939.745 2711755 2722358 2723258 2711788 2689483 2660379 2631643 2609375 
3943.602 2598608 2601475 2616509 2640310 2667813 2694251 2715889 2730460 
3947.459 2737829 2739430 2737129 2733228 2729593 2727259 2726626 2727593 
3951.317 2730127 2734328 2739896 2746798 2754734 2762771 2770207 2776042 
3955.174 2779410 2780144 2778310 2774442 2769040 2763104 2756869 2751067 
3959.032 2745932 2741330 2737162 2733228 2729426 2726259 2724425 2724992 
3962.889 2729593 2739196 2753934 2773075 2794550 2815727 2834003 2847076 
3966.747 2853513 2853780 2848844 2840573 2830934 2822163 2815193 2810991 
3970.604 2810057 2811925 2816227 2822196 2828800 2835036 2840039 2843708 
3974.461 2846142 2848244 2850978 2855414 2862285 2871557 2882364 2894172 
3978.319 2905613 2915520 2923292 2928129 2929797 2928429 2924627 2919256 
3982.176 2913385 2908482 2905546 2905513 2908415 2914019 2921524 2929897 
3986.034 2938337 2945709 2951247 2954249 2954183 2951314 2945909 2939371 
3989.891 2933066 2928563 2927195 2929096 2933933 2940205 2946543 2951581 
3993.749 2955284 2957852 2960955 2966293 2975100 2988011 3004626 3023644 
3997.606 3043530 3062350 3078634 3091548 3100859 3106599 3109569 
##END=
