
##TITLE=Z361_2_a
##JCAMP-DX=5.01  $$ Nicolet v. 1
##DATATYPE=INFRARED SPECTRUM
##ORIGIN=UniL
##OWNER=Nicolet
##LONGDATE=2011/09/14
##TIME=11:31:46
##SPECTROMETER/DATA SYSTEM=Nicolet iS5
##DATA PROCESSING=
Ratio against background
%Transmittance->Absorbance
Truncated
ElementMultiply or ElementDivide
##COMMENTS=
Number of sample scans: 32
Collection length: 51.28 sec
Sample gain: 2.0
Background collected on: Mer Sep 14 11:27:19 2011 (GMT+02:00);
Number of background scans: 32
Background gain: 2.0
Sample spacing:  1.000
Number of scan points: 12415
Resolution points: 8192
Number of FFT points: 65536
Apodization: N-B fort;
Phase correction: Mertz;
Laser frequency: 15798.0 cm-1
Number of rejected sample scans: 0
Number of rejected background scans: 0
Bench serial number: ASB1000141;
##RESOLUTION=4.000
##XUNITS=1/CM
##YUNITS=ABSORBANCE
##FIRSTX=649.893372
##LASTX=4000.122314
##FIRSTY=0.098232
##MAXX=4000.122314
##MINX=649.893372
##MAXY=0.218160
##MINY=0.003879
##XFACTOR=1.000000
##YFACTOR=1.000000E-009
##NPOINTS=6950
##DELTAX=0.482117
##ZPD=6100
##XYDATA=(X++(Y..Y))
649.893 98231960 98464120 98747240 99086728 99476024 99906120 100373328 
653.268 100885344 101456440 102102000 102824016 103607752 104422232 
656.161 105234488 106019240 106770088 107496976 108217776 108945864 
659.054 109680760 110409424 111113632 111782080 112417992 113038248 
661.946 113665120 114316944 115000024 115705672 116417096 117117456 
664.839 117796128 118447840 119075600 119690552 120321208 121020848 
667.732 121877368 123003168 124489096 126408752 128831624 131829232 
670.624 135512064 140006368 145418496 151778128 158962528 166666336 
673.517 174328288 181200416 186478928 189374672 189370016 186358816 
676.410 180708048 173166800 164666224 156141520 148275312 141470336 
679.302 135850400 131308168 127598416 124418576 121504776 118648528 
682.195 115724912 112690264 109558576 106383608 103230464 100165800 97239696 
685.570 94481504 91907696 89525776 87342040 85366208 83608024 82074104 
688.945 80763216 79664592 78759296 78022320 77428224 76951608 76568704 
692.320 76259040 76002760 75781776 75581216 75389224 75199088 75008840 
695.694 74820552 74638032 74464664 74302176 74150120 74006888 73870928 
699.069 73742232 73622104 73513496 73418880 73339472 73273568 73217336 
702.444 73163760 73104432 73031592 72938928 72822576 72682560 72521952 
705.819 72346496 72162416 71975600 71789928 71605888 71420840 71229896 
709.194 71028184 70811976 70580408 70336152 70084576 69832072 69583792 
712.569 69342152 69104944 68866056 68615848 68344256 68042912 67707664 
715.943 67339712 66944928 66532120 66109828 65684712 65260312 64836988 
719.318 64413884 63991376 63571124 63156188 62749796 62352620 61961964 
722.693 61571120 61172352 60758284 60325656 59875272 59412136 58943236 
726.068 58475896 58017624 57574580 57153728 56761860 56404832 56085720 
729.443 55803580 55553096 55326360 55116104 54919556 54739300 54582408 
732.817 54456940 54368756 54318328 54302108 54314308 54351220 54413000 
736.192 54503896 54629564 54795192 55004428 55260500 55568840 55940896 
739.567 56391816 56940768 57606324 58402928 59343416 60444492 61732388 
742.942 63254564 65084108 67317616 70088128 73557720 77912528 83376000 
746.317 90169536 98477096 108378368 119762624 132236896 145022944 157052800 
749.692 167007600 173533504 175637248 172869600 165518400 154487984 
752.584 141126048 126878488 112929472 100178320 89117512 79887408 72410296 
755.959 66474348 61833120 58240884 55493420 53426080 51893952 50777372 
759.334 49974324 49397752 48987524 48705616 48532812 48464160 48501836 
762.709 48652172 48924028 49329816 49885780 50607276 51506540 52589472 
766.083 53854888 55298924 56921164 58730384 60746776 62997184 65503976 
769.458 68273136 71279832 74459976 77701632 80860472 83766720 86235728 
772.833 88104312 89233832 89526304 88940664 87492424 85257728 82356024 
776.208 78946664 75204056 71288224 67351200 63519576 59891172 56547056 
779.583 53543004 50907632 48644984 46733536 45134428 43797260 42673928 
782.958 41723404 40913060 40219728 39624520 39108864 38655432 38247948 
786.332 37873888 37527604 37208600 36919440 36662092 36434768 36231548 
789.707 36045240 35869156 35700660 35541044 35394388 35264276 35151700 
793.082 35054168 34967472 34886964 34809952 34735824 34665912 34601464 
796.457 34542656 34488844 34438912 34393184 34353304 34322176 34301808 
799.832 34291948 34289872 34291340 34292700 34292632 34293276 34298976 
803.206 34314036 34340500 34377296 34421048 34468040 34516288 34566840 
806.581 34623032 34689024 34766696 34855188 34950016 35045912 35137944 
809.956 35223672 35303236 35378500 35451768 35524464 35597072 35669656 
813.331 35742500 35816724 35893340 35972484 36052944 36131688 36205868 
816.706 36273292 36334572 36392324 36450840 36513544 36581920 36654736 
820.081 36729120 36802252 36872944 36942636 37014648 37092992 37180260 
823.455 37277872 37385476 37502536 37629016 37765948 37914812 38075920 
826.830 38248416 38429920 38617728 38810108 39008160 39215004 39435224 
830.205 39672728 39930124 40207372 40503088 40816228 41146968 41497500 
833.580 41870644 42267332 42685188 43116468 43549684 43969584 44360416 
836.955 44709216 45006144 45246384 45430324 45563884 45659276 45733560 
840.329 45811136 45918812 46085272 46338424 46700328 47187884 47813088 
843.704 48583836 49507880 50595212 51858032 53313756 54983672 56890152 
847.079 59057064 61505260 64247616 67283848 70592496 74125520 77793568 
850.454 81465888 84973160 88097576 90610176 92292320 92958664 92505672 
853.829 90925104 88317648 84873080 80858800 76590488 72366488 68463480 
857.204 65096924 62394316 60413416 59143204 58527268 58478212 58897316 
860.578 59690248 60760608 62018640 63380456 64756096 66059256 67207328 
863.953 68121440 68740200 69021432 68945856 68519080 67770480 66751808 
867.328 65526208 64166912 62747808 61329348 59960932 58674400 57485652 
870.703 56400912 55420196 54541536 53762440 53080092 52490636 51988620 
874.078 51567692 51221356 50943732 50730000 50575000 50472640 50415368 
877.452 50394340 50400740 50428616 50475280 50542428 50633932 50754724 
880.827 50908300 51095364 51314420 51562692 51837836 52138300 52463756 
884.202 52814412 53189884 53589036 54009712 54449692 54907300 55380972 
887.577 55870124 56372876 56886564 57407212 57930340 58451864 58969344 
890.952 59481744 59989308 60492704 60991272 61483392 61966776 62439764 
894.327 62902308 63356608 63806624 64257800 64715640 65185504 65672920 
897.701 66185460 66731640 67324120 67976072 68701576 69514416 70426624 
901.076 71448888 72592320 73867624 75285216 76853368 78573240 80435152 
904.451 82413216 84465544 86527888 88517680 90343040 91898320 93079472 
907.826 93795960 93972408 93568000 92583744 91071128 89127320 86886856 
911.201 84514280 82170456 80004232 78144360 76680968 75674720 75155992 
914.575 75125344 75555632 76388368 77538400 78883648 80271968 81544520 
917.950 82534928 83106736 83177680 82728312 81811448 80536088 79058144 
921.325 77540776 76129168 74940864 74043152 73460824 73185288 73188304 
924.700 73434968 73892056 74535304 75347600 76318608 77444456 78726408 
928.075 80172408 81796288 83619912 85670648 87978792 90579888 93512032 
931.450 96815256 100534968 104717184 109404576 114632728 120419344 126756160 
934.824 133597272 140857648 148406432 156060688 163615376 170842192 
937.717 177516400 183459392 188548528 192746160 196104688 198771216 
940.610 200967232 202936192 204927424 207123088 209590320 212247856 
943.502 214846384 216994640 218159984 217787376 215386512 210601360 
946.395 203329248 193735648 182252992 169480464 156117776 142869152 
949.288 130298616 118840992 108763648 100163840 93028528 87259520 82715040 
952.663 79223936 76606888 74693312 73310912 72307632 71561424 70976368 
956.037 70495480 70093808 69769272 69531760 69393504 69363216 69443416 
959.412 69632184 69924120 70311800 70784720 71329064 71930128 72573408 
962.787 73248040 73949568 74678792 75439328 76233216 77058192 77907816 
966.162 78774352 79652576 80543664 81454136 82394152 83372624 84394352 
969.537 85461680 86577584 87750184 88995200 90331256 91773992 93326280 
972.912 94974248 96686624 98423104 100149400 101844096 103507328 105157104 
976.286 106824960 108545952 110351320 112269808 114326864 116546648 
979.179 118956016 121583896 124466288 127658840 131242704 135332992 
982.072 140072960 145586544 151923184 158966496 166390288 173598720 
984.964 179764672 184035136 185648624 184202416 179787120 172990976 
987.857 164750688 156058704 147846416 140757120 135099920 130918624 
990.750 128049256 126236352 125199376 124711848 124610392 124778128 
993.643 125138480 125630376 126202408 126819032 127460208 128120768 
996.535 128802240 129501272 130202416 130880640 131507440 132063512 
999.428 132545936 132966328 133343160 133690384 134012816 134306736 
1002.321 134566512 134795040 135006000 135222000 135466800 135754000 
1005.213 136084768 136449152 136835616 137239792 137668208 138135072 
1008.106 138654848 139232784 139860528 140519296 141187328 141850272 
1010.999 142503376 143150336 143795472 144437008 145065280 145667408 
1013.891 146236080 146777888 147315040 147881808 148511536 149229232 
1016.784 150047968 150972112 152006912 153167744 154481456 155984288 
1019.677 157713808 159699472 161963504 164522752 167392816 170586432 
1022.570 174098032 177881056 181811008 185670720 189170720 191955584 
1025.462 193699424 194179200 193321584 191235616 188179904 184523888 
1028.355 180640592 176862976 173445952 170526864 168148816 166273648 
1031.249 164814320 163655408 162677376 161782352 160893456 159964368 
1034.142 158978144 157937200 156856336 155754256 154652096 153573184 
1037.035 152544352 151601136 150784480 150137328 149703696 149520448 
1039.928 149618016 150021440 150746496 151796400 153149824 154752592 
1042.821 156502672 158247344 159812672 161013072 161698304 161794576 
1045.714 161315840 160368784 159116976 157762448 156493936 155453280 
1048.607 154734240 154369488 154344112 154607680 155092528 155724464 
1051.500 156426672 157132496 157784976 158336304 158752480 159008112 
1054.393 159084384 158968688 158654224 158141232 157438192 156562304 
1057.286 155535328 154376496 153099664 151708432 150198768 148563456 
1060.179 146799488 144912384 142918704 140842256 138709696 136547856 
1063.072 134379600 132224408 130100968 128026160 126015824 124083264 
1065.965 122236176 120477024 118803840 117213192 115702944 114273968 
1068.858 112929000 111670792 110499072 109409776 108394320 107442792 
1071.751 106546992 105700712 104900408 104143352 103423808 102733000 
1074.645 102059216 101389776 100715216 100031416 99339600 98645600 97957600 
1078.020 97284712 96635296 96019496 95449192 94937344 94498352 94145056 
1081.395 93885736 93724904 93662416 93697232 93828072 94055928 94382424 
1084.770 94807992 95328800 95935224 96611200 97337032 98091144 98851984 
1088.146 99601368 100322936 101002776 101631800 102206688 102734008 
1091.039 103230880 103727096 104261960 104876536 105615304 106520016 
1093.932 107628136 108979624 110616224 112583288 114934096 117723392 
1096.825 121002456 124813816 129174592 134062856 139390512 144996432 
1099.718 150622320 155902480 160425264 163745888 165471296 165362672 
1102.611 163371216 159674592 154619328 148683696 142370768 136107424 
1105.504 130244048 124999928 120473744 116678176 113560400 111034128 
1108.397 108993720 107336160 105965616 104791744 103741064 102751728 
1111.290 101773056 100769208 99713528 98587800 97383840 96102416 94754656 
1114.665 93360616 91948352 90549272 89191352 87898792 86687608 85566136 
1118.041 84537592 83601152 82754488 81992776 81309264 80694184 80134152 
1121.416 79614328 79119408 78634624 78148008 77649328 77129896 76583016 
1124.791 76003984 75391984 74750304 74088184 73419984 72762472 72134320 
1128.166 71554040 71037552 70600960 70258504 70023104 69906672 69918624 
1131.542 70064880 70348888 70772280 71336920 72047992 72914824 73951256 
1134.917 75175016 76603296 78251432 80130880 82247976 84603688 87193664 
1138.292 90007344 93023968 96208888 99514936 102873440 106198904 109395328 
1141.667 112347872 114935208 117035808 118524800 119299032 119290056 
1144.560 118480784 116918992 114719488 112060296 109143952 106187992 
1147.453 103400272 100943872 98946264 97490416 96615392 96331136 96624200 
1150.829 97468104 98827480 100663336 102938064 105609896 108634360 111958792 
1154.204 115506248 119171240 122810696 126227576 129194632 131463888 
1157.097 132781488 132943464 131811600 129343752 125607848 120781024 
1159.990 115132688 108965960 102604152 96339032 90384944 84893944 79940176 
1163.365 75533664 71641800 68205048 65156476 62426144 59953284 57688164 
1166.740 55588536 53623112 51769556 50012352 48343740 46761248 45266872 
1170.116 43864772 42560880 41362596 40278000 39318152 38496856 37828156 
1173.491 37325460 36994840 36830416 36807588 36882464 36997044 37080180 
1176.866 37063612 36893716 36537188 35990232 35277144 34448884 33569936 
1180.241 32710270 31938524 31308464 30859250 30613220 30574752 30731664 
1183.617 31054418 31500664 32011598 32517676 32949268 33237260 33327192 
1186.992 33189226 32819566 32243152 31506504 30673878 29812252 28982476 
1190.367 28236130 27606298 27109402 26747136 26510678 26384644 26350774 
1193.742 26392214 26493244 26640024 26821602 27028574 27253392 27490572 
1197.118 27735440 27984370 28233832 28480288 28720124 28950138 29167268 
1200.493 29369372 29554860 29722762 29871806 30001022 30108150 30190584 
1203.868 30244788 30266210 30249868 30190014 30081304 29919372 29702110 
1207.243 29430176 29108026 28744054 28350040 27939316 27527214 27128094 
1210.619 26754078 26415806 26120550 25873388 25676914 25531724 25436926 
1213.994 25389992 25387322 25425332 25500414 25609742 25751232 25923082 
1217.369 26123858 26352042 26605852 26884096 27186046 27511680 27861620 
1220.744 28236874 28638252 29066288 29520778 30001874 30509272 31042994 
1224.120 31602674 32187946 32797660 33430706 34086036 34763572 35464348 
1227.495 36190600 36945628 37732840 38556312 39420240 40328972 41287196 
1230.870 42299288 43368260 44494712 45675032 46902012 48163008 49441860 
1234.245 50720580 51978348 53194376 54350020 55427988 56416980 57313136 
1237.621 58121056 58854020 59533008 60185952 60842784 61535688 62297928 
1240.996 63159712 64149856 65294124 66611804 68116784 69815960 71710112 
1244.371 73795128 76065008 78514160 81138576 83935560 86903688 90040032 
1247.746 93340288 96798904 100408528 104161336 108047560 112050904 116147768 
1251.122 120301360 124457368 128548160 132485064 136153984 139424304 
1254.015 142132912 144091600 145114992 145021520 143673360 141005344 
1256.908 137031920 131854552 125641432 118625016 111066472 103231136 
1259.801 95391120 87781488 80591208 73964024 67979632 62668024 58019668 
1263.176 53997068 50546636 47605732 45114064 43010912 41239684 39752748 
1266.551 38506776 37465400 36600736 35888228 35308268 34844884 34483572 
1269.927 34212500 34021924 33903260 33849780 33855292 33913864 34019920 
1273.302 34167616 34351724 34568024 34813648 35087504 35390432 35724548 
1276.677 36093048 36498696 36942816 37423976 37937124 38473000 39018560 
1280.052 39559912 40082604 40575588 41033912 41459148 41860280 42250532 
1283.427 42645820 43058804 43496064 43956128 44429960 44903288 45360984 
1286.803 45792688 46196148 46578888 46955760 47347812 47777540 48263976 
1290.178 48823208 49467148 50203416 51037820 51974204 53013976 54155288 
1293.553 55391852 56712776 58101208 59536960 60997184 62456596 63891448 
1296.928 65279684 66602416 67847560 69010480 70095208 71112992 72080776 
1300.304 73018416 73944104 74875320 75827976 76815752 77852752 78951512 
1303.679 80121208 81365048 82677480 84043024 85434296 86813880 88136656 
1307.054 89346648 90383432 91183320 91680400 91819752 91561496 90888952 
1310.429 89812288 88368528 86617672 84629664 82483288 80256984 78018552 
1313.805 75831176 73749224 71817960 70081704 68582792 67359368 66446512 
1317.180 65865248 65614676 65662584 65942840 66358060 66780320 67078656 
1320.555 67129904 66833384 66133208 65018332 63524140 61719672 59700664 
1323.930 57575000 55440484 53386020 51478528 49759320 48249980 46954580 
1327.306 45866296 44971304 44253308 43695640 43280032 42988672 42804304 
1330.681 42709204 42687636 42725144 42807852 42923564 43061256 43210632 
1334.056 43363868 43515768 43663688 43808108 43952020 44100532 44259656 
1337.431 44437668 44644436 44891460 45192700 45563076 46015680 46561332 
1340.807 47204580 47942720 48763480 49644336 50551512 51435520 52238324 
1344.182 52894272 53335632 53509272 53379692 52937500 52200580 51213188 
1347.557 50041912 48761740 47455576 46200900 45058116 44073756 43274728 
1350.932 42671224 42261088 42032348 41967236 42043300 42237204 42526856 
1354.308 42890752 43310820 43770576 44252724 44739632 45210828 45642640 
1357.683 46011592 46294224 46469500 46522344 46443504 46231380 45891632 
1361.058 45439556 44900496 44307908 43705020 43137180 42642676 42249656 
1364.433 41969752 41799752 41726648 41733544 41803728 41922748 42079984 
1367.809 42267112 42476760 42702332 42936764 43172460 43402644 43620092 
1371.184 43818076 43991436 44136840 44255252 44353664 44446556 44553816 
1374.559 44696916 44895132 45160716 45498536 45909196 46392952 46954320 
1377.934 47605324 48364444 49255512 50304780 51532884 52951124 54553108 
1381.310 56310444 58163556 60020164 61770356 63286536 64444856 65145312 
1384.685 65309072 64894848 63906572 62409808 60536092 58464640 56405360 
1388.060 54539280 52988072 51811964 51014712 50569340 50436132 50576752 
1391.435 50958004 51552096 52339980 53307872 54445112 55742356 57183776 
1394.811 58743468 60386956 62072760 63759036 65408936 66985944 68455256 
1398.186 69785496 70947256 71921992 72705824 73309736 73754328 74063424 
1401.561 74260576 74364376 74388016 74336344 74201616 73959936 73571456 
1404.936 72991248 72179712 71118800 69821336 68331848 66720588 65067596 
1408.312 63465504 62008204 60783860 59881968 59377492 59321728 59739560 
1411.687 60624312 61945608 63656016 65705484 68043608 70616704 73372072 
1415.062 76249168 79177376 82090120 84918640 87599920 90084928 92335232 
1418.437 94327784 96050000 97505096 98702992 99654040 100367944 100849072 
1421.813 101097528 101107104 100869808 100379128 99635240 98649544 97443344 
1425.188 96041240 94458808 92695784 90733840 88545512 86107720 83421208 
1428.563 80520376 77481728 74413376 71428104 68633344 66110908 63908724 
1431.938 62045280 60509656 59268784 58274908 57477820 56836900 56330396 
1435.313 55966640 55783612 55840052 56185380 56833084 57748036 58855768 
1438.689 60056152 61231252 62262400 63020320 63382492 63262768 62621564 
1442.064 61485528 59936128 58099960 56118712 54120904 52222220 50506436 
1445.439 49025284 47808204 46864916 46193496 45783044 45614116 45655708 
1448.814 45862356 46182624 46563432 46957348 47332480 47672436 47978908 
1452.190 48269232 48572272 48922248 49351200 49891208 50573696 51432536 
1455.565 52500956 53799904 55316648 56992600 58730116 60422560 61979808 
1458.940 63336484 64444392 65260508 65751940 65890700 65650680 65008284 
1462.315 63935520 62407436 60418940 58015236 55315936 52498000 49766712 
1465.691 47288696 45148544 43353876 41859148 40603852 39534436 38616896 
1469.066 37834444 37179320 36646264 36229352 35923932 35731276 35661744 
1472.441 35732356 35958948 36350168 36906740 37625332 38506812 39558824 
1475.816 40792312 42218728 43843436 45663328 47669516 49850288 52195912 
1479.192 54693524 57326180 60069624 62884732 65724604 68539560 71279208 
1482.567 73898968 76356760 78604680 80592848 82266672 83571800 84468392 
1485.942 84935760 84979160 84624544 83915864 82905888 81645592 80191536 
1489.317 78606080 76958216 75323568 73767680 72329160 71009216 69769936 
1492.693 68544920 67246400 65782816 64069444 62041036 59670024 56977980 
1496.068 54040032 50962512 47858108 44817724 41899832 39137836 36552292 
1499.443 34159444 31974722 30008548 28260706 26722048 25374464 24193394 
1502.818 23150862 22214212 21344586 20494896 19614662 18662596 17626616 
1506.194 16548075 15517360 14634638 13957040 13478244 13146565 12902274 
1509.569 12696057 12498768 12301434 12107733 11927910 11770631 11639750 
1512.944 11533781 11448214 11378072 11320322 11273799 11238674 11215858 
1516.319 11207222 11216096 11246698 11302365 11383583 11485773 11599625 
1519.695 11712589 11815061 11905910 11997970 12113081 12274643 12494097 
1523.070 12767025 13078095 13408422 13743994 14077498 14410778 14752096 
1526.445 15110972 15492670 15894912 16308915 16723795 17129316 17517590 
1529.820 17883144 18220120 18517866 18762226 18934480 19018212 19009594 
1533.196 18925586 18806372 18698434 18639354 18642708 18698744 18783434 
1536.571 18867758 18925968 18936246 18884922 18768658 18597818 18395928 
1539.946 18195898 18032464 17930000 17896852 17924956 17994922 18082790 
1543.321 18165700 18230970 18277792 18318574 18371318 18452312 18567660 
1546.697 18711094 18867654 19021156 19161758 19289592 19416458 19560242 
1550.072 19738572 19960408 20224428 20522546 20847044 21195270 21571734 
1553.447 21985924 22447330 22960260 23521156 24120324 24745538 25389992 
1556.822 26053344 26748758 27505008 28369104 29391388 30590288 31950076 
1560.198 33425126 34967256 36549516 38163392 39814772 41513684 43271392 
1563.573 45094396 46972372 48880532 50778676 52615876 54344424 55920808 
1566.948 57303644 58454744 59332780 59898968 60129704 60029444 59636576 
1570.323 59009272 58210724 57288936 56270312 55166172 53977860 52700076 
1573.698 51330976 49875932 48360592 46854288 45474032 44368196 43677648 
1577.074 43480020 43780140 44532488 45677904 47169416 48983852 51123876 
1580.449 53609280 56471996 59747960 63472748 67676536 72378624 77579128 
1583.824 83248952 89326376 95701224 102222280 108704792 114914968 120597152 
1587.199 125493184 129363520 132064728 133593080 134120688 133953544 
1590.093 133483264 133107376 133118912 133686872 134820608 136385568 
1592.986 138112896 139636864 140566560 140489440 139057040 136056480 
1595.879 131435144 125334840 118046520 109969744 101514288 93040672 84863328 
1599.254 77206992 70221352 63988844 58512820 53729368 49518464 45742028 
1602.629 42264740 38984744 35854328 32872458 30072212 27495618 25180744 
1606.004 23149814 21409044 19954372 18773572 17849032 17154270 16655618 
1609.380 16315246 16091412 15947398 15854016 15788175 15733441 15675761 
1612.755 15599198 15486319 15317345 15072413 14737219 14307658 13797930 
1616.130 13241212 12686708 12183853 11765558 11442227 11204570 11033142 
1619.505 10904454 10795402 10685157 10554908 10391507 10190887 9960729 
1622.881 9718798 9487738 9286181 9121497 8989417 8877802 8773789 8667706 
1626.738 8556241 8441190 8328702 8224821 8134536 8060505 8003936 7965125 
1630.595 7944101 7939107 7946598 7958781 7965867 7956216 7919029 7848172 
1634.453 7745587 7623703 7503167 7406258 7347887 7330060 7344786 7379329 
1638.310 7421661 7462479 7496054 7520563 7537891 7553198 7572315 7600503 
1642.168 7639417 7686124 7732162 7766129 7776114 7752096 7690981 7598446 
1646.025 7490694 7390451 7320085 7294712 7318603 7385598 7483413 7597772 
1649.883 7711217 7802224 7845271 7808701 7665046 7408853 7081676 6767835 
1653.740 6547859 6455668 6470701 6549540 6649220 6740812 6810343 6854302 
1657.597 6877529 6888066 6893553 6897963 6901161 6899646 6888672 6864872 
1661.455 6827307 6777932 6722169 6667119 6620050 6587149 6571876 6574332 
1665.312 6590580 6613658 6633709 6638958 6618166 6563938 6475040 6359093 
1669.170 6231244 6111028 6015369 5954463 5929640 5935317 5960779 5992054 
1673.027 6015066 6016041 5985503 5922754 5839428 5757729 5700384 5682559 
1676.885 5704212 5753498 5812294 5863574 5897865 5914760 5922855 5934275 
1680.742 5958293 5994170 6029648 6042112 6006701 5907270 5749603 5567024 
1684.599 5408274 5311361 5283388 5306967 5353894 5400423 5430216 5437026 
1688.457 5422331 5392238 5354699 5316627 5284495 5263399 5256658 5264908 
1692.314 5284394 5305156 5311394 5284964 5211250 5088902 4936962 4793484 
1696.172 4700057 4678353 4721862 4800988 4878486 4916821 4891822 4803702 
1700.029 4683511 4583009 4544837 4582339 4677315 4798777 4916251 5009489 
1703.886 5069391 5097250 5103519 5104055 5114817 5145529 5198541 5270039 
1707.744 5353760 5442965 5532692 5620390 5705152 5787781 5869149 5950466 
1711.601 6031865 6112977 6192222 6267548 6336835 6397290 6445277 6475948 
1715.459 6482035 6455466 6390397 6287717 6159016 6025179 5910696 5832879 
1719.316 5796881 5795235 5813100 5833114 5840032 5824887 5785296 5725128 
1723.174 5652447 5576187 5502725 5435080 5372847 5314380 5258603 5204812 
1727.031 5152939 5102647 5053669 5005669 4960522 4921848 4893732 4878117 
1730.888 4871650 4863943 4837507 4771574 4651157 4476538 4273479 4085230 
1734.746 3956411 3908464 3933540 4004597 4089411 4161296 4201241 4201642 
1738.603 4165478 4105467 4038374 3979015 3935580 3908498 3893553 3885396 
1742.461 3880849 3878777 3879846 3884861 3893955 3906459 3921738 3939592 
1746.318 3959955 3982927 4007539 4031150 4050079 4059443 4055965 4038741 
1750.176 4010783 3979115 3953268 3943571 3956678 3994665 4054193 4127911 
1754.033 4205825 4276858 4332241 4366713 4381607 4384585 4387698 4402492 
1757.890 4434292 4480488 4531277 4573734 4594763 4586726 4550027 4494013 
1761.748 4434292 4386828 4363533 4367583 4394493 4434660 4477107 4511791 
1765.605 4530976 4530741 4511724 4479584 4444033 4416216 4404467 4410693 
1769.463 4429104 4447079 4450527 4426894 4372369 4295062 4214189 4151996 
1773.320 4123496 4132795 4171901 4227839 4287834 4344289 4394794 4441355 
1777.177 4486314 4530440 4571256 4604139 4625169 4634011 4634546 4634513 
1781.035 4640943 4657152 4680095 4702335 4715532 4713790 4697143 4671018 
1784.892 4645163 4628954 4627447 4641077 4665860 4696540 4728059 4757337 
1788.750 4781188 4796063 4797302 4779379 4738477 4676075 4600757 4527795 
1792.607 4473592 4449724 4458494 4493579 4543230 4596169 4644728 4685755 
1796.465 4720288 4751541 4781858 4812345 4842332 4870645 4897586 4925064 
1800.322 4957170 4997255 5047668 5108145 5176443 5249816 5326388 5406362 
1804.179 5491081 5582496 5681484 5787680 5899377 6013924 6128636 6240892 
1808.037 6348300 6448371 6538541 6616350 6680107 6729639 6766893 6794928 
1811.894 6817277 6836698 6853663 6867497 6875745 6876452 6869214 6855009 
1815.752 6836967 6817815 6800078 6784259 6768744 6751244 6729168 6701373 
1819.609 6668331 6631792 6593843 6555797 6517317 6476318 6429471 6373181 
1823.467 6305569 6228051 6144834 6063616 5992558 5936895 5897462 5868981 
1827.324 5842249 5805444 5748966 5668627 5568166 5459674 5358590 5279531 
1831.181 5229326 5205382 5197870 5194584 5184960 5163567 5130474 5090142 
1835.039 5049010 5012104 4981201 4955662 4933778 4914944 4900970 4895743 
1838.896 4903149 4924260 4956533 4992462 5022059 5034964 5022394 4979123 
1842.754 4905964 4810469 4705650 4607119 4529603 4481526 4464319 4472153 
1846.611 4496022 4525887 4553275 4573868 4587764 4598513 4611071 4629456 
1850.469 4654641 4684047 4712551 4735362 4749632 4755896 4757571 4758676 
1854.326 4762730 4770368 4780284 4790703 4800820 4811776 4826249 4847090 
1858.183 4875068 4908041 4941687 4971213 4993334 5008082 5018607 5029601 
1862.041 5045221 5067145 5094366 5124540 5154347 5181741 5205013 5222585 
1865.898 5231438 5227481 5205617 5162997 5101172 5028294 4956735 4900501 
1869.756 4869807 4867395 4888974 4925400 4967727 5009121 5046361 5079917 
1873.613 5111632 5143215 5174767 5205415 5234255 5260682 5285535 5309717 
1877.470 5334069 5357785 5379322 5397035 5410690 5422667 5436255 5455681 
1881.328 5482726 5516383 5552191 5584947 5609885 5625526 5633683 5638717 
1885.185 5644760 5654696 5668056 5682223 5694409 5702802 5708207 5714116 
1889.043 5725128 5745071 5775592 5816021 5863406 5914491 5966153 6016545 
1892.900 6064389 6110087 6154714 6200691 6251715 6311150 6382562 6466060 
1896.758 6559699 6657867 6754273 6843026 6920855 6987991 7047022 7102961 
1900.615 7160187 7221431 7287737 7358873 7434772 7515574 7602965 7698468 
1904.472 7803843 7919535 8045654 8182445 8330830 8492579 8670072 8864715 
1908.330 9074804 9296235 9521368 9739366 9937676 10103788 10224674 10288760 
1912.187 10287606 10216295 10075131 9870794 9615465 9323655 9011303 8693633 
1916.045 8381700 8085350 7812580 7570663 7367230 7207484 7092453 7016646 
1919.902 6968900 6935265 6901969 6860496 6808660 6751581 6698984 6659953 
1923.760 6640338 6639530 6652719 6673546 6697974 6724525 6755181 6792336 
1927.617 6835688 6882276 6926579 6963176 6988664 7003952 7012572 7019172 
1931.474 7026951 7035942 7043283 7045573 7040555 7027658 7008902 6986038 
1935.332 6959944 6929912 6894293 6853191 6810074 6770864 6742797 6730279 
1939.189 6732365 6741855 6747980 6739869 6711333 6663721 6605012 6546513 
1943.047 6497809 6463504 6442082 6428429 6417466 6406739 6397996 6394297 
1946.904 6398164 6409362 6425234 6441947 6456408 6468818 6480656 6494580 
1950.761 6510590 6525625 6534135 6531141 6514020 6484860 6449547 6414507 
1954.619 6384042 6358824 6334414 6305165 6267548 6222270 6175215 6133979 
1958.476 6106424 6095369 6098494 6109818 6122184 6131190 6134450 6132366 
1962.334 6125377 6112910 6092345 6061767 6020274 5970587 5917750 5869015 
1966.191 5828749 5800306 5783013 5774383 5771193 5771496 5773409 5775491 
1970.049 5775693 5771798 5762531 5750241 5738826 5736174 5749100 5780528 
1973.906 5828514 5888293 5953489 6021651 6096814 6186709 6300291 6441006 
1977.763 6603330 6772345 6930249 7060425 7153720 7211931 7243498 7261961 
1981.621 7279853 7305427 7342057 7389339 7443637 7502729 7563313 7623096 
1985.478 7679615 7730172 7773280 7808498 7838659 7867876 7900436 7938566 
1989.336 7981965 8026921 8069181 8105773 8135853 8163064 8192068 8227117 
1993.193 8269025 8315395 8361196 8400954 8430244 8447575 8452711 8446291 
1997.051 8429095 8400381 8360250 8308978 8249033 8183863 8117184 8051021 
2000.908 7986082 7919872 7850264 7776418 7701571 7630649 7569921 7523563 
2004.765 7491908 7471075 7454288 7435076 7411246 7384890 7361232 7346505 
2008.623 7344887 7357120 7380913 7412527 7448491 7485503 7521136 7551512 
2012.480 7573529 7583273 7578553 7559671 7531250 7498077 7466862 7441682 
2016.338 7422672 7407741 7394563 7381183 7369589 7362984 7364669 7375487 
2020.195 7393585 7414751 7434806 7453142 7472154 7496796 7531789 7578047 
2024.052 7631627 7684944 7729497 7758033 7769975 7767613 7756853 7743361 
2027.910 7730881 7721200 7715500 7715635 7725720 7750747 7793722 7853335 
2031.767 7923416 7992799 8049670 8085856 8097739 8087949 8062768 8030364 
2035.625 7995971 7963033 7932762 7903979 7877526 7853537 7831911 7811838 
2039.482 7791699 7769198 7744035 7718502 7697928 7688316 7694927 7718907 
2043.340 7757460 7804349 7853233 7899020 7940929 7981054 8023647 8072590 
2047.197 8129135 8192203 8258117 8322116 8379234 8425616 8457812 8474773 
2051.054 8476867 8467238 8450718 8433690 8422102 8419332 8424534 8432711 
2054.912 8436562 8428724 8405617 8368660 8323501 8279190 8242246 8217527 
2058.769 8205202 8202535 8206080 8213610 8223403 8235795 8249472 8261798 
2062.627 8267641 8262744 8244171 8213915 8177346 8141828 8114348 8098177 
2066.484 8092607 8093552 8096355 8098177 8098616 8099899 8104794 8114314 
2070.342 8127616 8141862 8153747 8161984 8166711 8169344 8171640 8173734 
2074.199 8173362 8168298 8156244 8138114 8116879 8098279 8087004 8085924 
2078.056 8094903 8110533 8129303 8147500 8163673 8177616 8189941 8200981 
2081.914 8210065 8216582 8220229 8222998 8228164 8239409 8259299 8287532 
2085.771 8320799 8353663 8380585 8398083 8405245 8403522 8395448 8383220 
2089.629 8368087 8350420 8331202 8312423 8297900 8292767 8301109 8324818 
2093.486 8363121 8412677 8469401 8529714 8591455 8654083 8717127 8779469 
2097.344 8839657 8895827 8948116 8998686 9052475 9115576 9193712 9289363 
2101.201 9402167 9528243 9663130 9802161 9942930 10084288 10226200 10367990 
2105.058 10507348 10640672 10763576 10872109 10963713 11037186 11092316 
2108.434 11129640 11149799 11153335 11141743 11117470 11083819 11044901 
2111.809 11003948 10962320 10919302 10872517 10819045 10756035 10682983 
2115.184 10600538 10510471 10414924 10315428 10212665 10107485 10000668 
2118.559 9893844 9788808 9687017 9588771 9493495 9399459 9305747 9212123 
2122.417 9119806 9030553 8945985 8866202 8789985 8715335 8640631 8565737 
2126.274 8492106 8422373 8358055 8299082 8242954 8185788 8124610 8058616 
2130.132 7990166 7925170 7870643 7832383 7814031 7815650 7834981 7868078 
2133.989 7910357 7958309 8007514 8054632 8096388 8130350 8156346 8175287 
2137.846 8190177 8204122 8218236 8231845 8241772 8243866 8234918 8214522 
2141.704 8184639 8149999 8114652 8082852 8056185 8035089 8019766 8010416 
2145.561 8007751 8011395 8019090 8027056 8029081 8020744 8000224 7970053 
2149.419 7935125 7902629 7876918 7858530 7843416 7824320 7794667 7750275 
2153.276 7690880 7620128 7543455 7468412 7401741 7352975 7332924 7353042 
2157.134 7423447 7547197 7716883 7912921 8108980 8280372 8410076 8495755 
2160.991 8546272 8577160 8602438 8630221 8660506 8689204 8710163 8720305 
2164.848 8721691 8718918 8717262 8718580 8720846 8719932 8711549 8695222 
2168.706 8674060 8654050 8641239 8638401 8644180 8653373 8660134 8660641 
2172.563 8654523 8644890 8635595 8629883 8626165 8621366 8609503 8587196 
2176.421 8553368 8511332 8466833 8427237 8398083 8382544 8381429 8393624 
2180.278 8415818 8443352 8470617 8491362 8500181 8493728 8472037 8439129 
2184.135 8401597 8366499 8339578 8322589 8315226 8314449 8318199 8325359 
2187.993 8337180 8355285 8380484 8410887 8442272 8469604 8487375 8493423 
2191.850 8487950 8473827 8455345 8435818 8418149 8403150 8391867 8384165 
2195.708 8381835 8385415 8395110 8410515 8429973 8451663 8474706 8499100 
2199.565 8525118 8553267 8582837 8611497 8636812 8656416 8670511 8681295 
2203.423 8693734 8712090 8740724 8780721 8831237 8889300 8952648 9019895 
2207.280 9091519 9168974 9253991 9347116 9447879 9554357 9664147 9774677 
2211.137 9883810 9989412 10089714 10182340 10265893 10339249 10402774 
2214.513 10457621 10505311 10547337 10583766 10614866 10639790 10658329 
2217.888 10670792 10678398 10681931 10681795 10677142 10665528 10645799 
2221.263 10617379 10581729 10542483 10503749 10468007 10435185 10402096 
2224.638 10363816 10314682 10251440 10174267 10087035 9995819 9907064 
2228.014 9826359 9756410 9698265 9650900 9612653 9581793 9555915 9532849 
2231.871 9510226 9486484 9460849 9434232 9409108 9388522 9375385 9370882 
2235.729 9374708 9385305 9400643 9419097 9440023 9462914 9487500 9512461 
2239.586 9536033 9555982 9571292 9581658 9589008 9595715 9603540 9613026 
2243.443 9622816 9630200 9632809 9629252 9620648 9609333 9599340 9593514 
2247.301 9593853 9600695 9612551 9627626 9643955 9659878 9674447 9687185 
2251.158 9698570 9709616 9722322 9738959 9761663 9791519 9827308 9865913 
2255.016 9902996 9934455 9957711 9972900 9982766 9991344 10002228 10017384 
2258.873 10037254 10060143 10084491 10108570 10132175 10155612 10178880 
2262.248 10201675 10222469 10239329 10250898 10256869 10259006 10259651 
2265.624 10261516 10265961 10273390 10283128 10293815 10304910 10316582 
2268.999 10329341 10343389 10358081 10371554 10381327 10385196 10382073 
2272.374 10372368 10357912 10340504 10321943 10303078 10283909 10264875 
2275.749 10246793 10231188 10220231 10215346 10217042 10224029 10233664 
2279.125 10243129 10250083 10253680 10254222 10253035 10251169 10249779 
2282.500 10248658 10247132 10244622 10240958 10236072 10230407 10224403 
2285.875 10218229 10212258 10206729 10202115 10199911 10200861 10205678 
2289.250 10213989 10224776 10236615 10248048 10257887 10266131 10273493 
2292.625 10280244 10286996 10294019 10300974 10307862 10314818 10322453 
2296.001 10331410 10341895 10353602 10365309 10375761 10383396 10387978 
2299.376 10389810 10390217 10390456 10392186 10395681 10401247 10408645 
2302.751 10417538 10427991 10439903 10453479 10468957 10485929 10504700 
2306.126 10525339 10548492 10574768 10604070 10635749 10667566 10696873 
2309.502 10720578 10736472 10744182 10744760 10740854 10735352 10730936 
2312.877 10729238 10730767 10735352 10742756 10753183 10767244 10785824 
2316.252 10809840 10839121 10872754 10909482 10947470 10985360 11021858 
2319.627 11055811 11086470 11112643 11133447 11147589 11154117 11152145 
2323.003 11141811 11123045 11097007 11065362 11030355 10995147 10962592 
2326.378 10935714 10916311 10904658 10899595 10898644 10899290 10899425 
2329.753 10898508 10897319 10897488 10900988 10908769 10920525 10934966 
2333.128 10951344 10968810 10987534 11008502 11032666 11060637 11091840 
2336.504 11124779 11158095 11190495 11221197 11249724 11276009 11299441 
2339.879 11318757 11332802 11340558 11341612 11336680 11326409 11310833 
2343.254 11288865 11259347 11221230 11176011 11128688 11087796 11064105 
2346.629 11067299 11103466 11173869 11274514 11397699 11533168 11671369 
2350.005 11803314 11922699 12026072 12112945 12184944 12244514 12294651 
2353.380 12337192 12373089 12402886 12427059 12446153 12461225 12473636 
2356.755 12484173 12493756 12502383 12510943 12519366 12528711 12539590 
2360.130 12552448 12567318 12583587 12600334 12616741 12632604 12647783 
2363.506 12662794 12677360 12690837 12701276 12706325 12703084 12689949 
2366.881 12666785 12635162 12598049 12559133 12521958 12488504 12459792 
2370.256 12435276 12413932 12394601 12376464 12359248 12342884 12327511 
2373.631 12313160 12299526 12286164 12273075 12259851 12246934 12234426 
2377.007 12222396 12210809 12199222 12187193 12174653 12161977 12149812 
2380.382 12139726 12133422 12132707 12139215 12154276 12178231 12210809 
2383.757 12250649 12295503 12342612 12388737 12431662 12469886 12503747 
2387.132 12534440 12564555 12596855 12633115 12674461 12720724 12770847 
2390.508 12823741 12878279 12934087 12991030 13049037 13107838 13166579 
2393.883 13224269 13279951 13332941 13383306 13431285 13477458 13522130 
2397.258 13565270 13606329 13644964 13680969 13714686 13746901 13778810 
2400.633 13810859 13843013 13874450 13903564 13929087 13949923 13966176 
2404.009 13978905 13990059 14001558 14015108 14031706 14051042 14072193 
2407.384 14093721 14114497 14133940 14152903 14172553 14195353 14223905 
2410.759 14260232 14305363 14359061 14420095 14486173 14554968 14624426 
2414.134 14693346 14761283 14828613 14896126 14964574 15034200 15105689 
2417.510 15178940 15254538 15333203 15415727 15503212 15596588 15695995 
2420.885 15801199 15910929 16023714 16137697 16251398 16364031 16475383 
2424.260 16586319 16697936 16811750 16929108 17051048 17177746 17309342 
2427.635 17445702 17586936 17733634 17886770 18048178 18219740 18403880 
2431.010 18602694 18818032 19051134 19302618 19572060 19858632 20160422 
2434.386 20475550 20801960 21138356 21483856 21837608 22198658 22564930 
2437.761 22932142 23294698 23645556 23976670 24280424 24550066 24779952 
2441.136 24965560 25103294 25190330 25225338 25208694 25143176 25033616 
2444.511 24887272 24712498 24517282 24308770 24092478 23871568 23648494 
2447.887 23424874 23202414 22983702 22771560 22569014 22379018 22203750 
2451.262 22044344 21901688 21776150 21667782 21577062 21504082 21448554 
2454.637 21409532 21386036 21376466 21379564 21394494 21420914 21458962 
2458.012 21509096 21571456 21646156 21732464 21829698 21936538 22052084 
2461.388 22175364 22306112 22444086 22589990 22744290 22908074 23082020 
2464.763 23266662 23462328 23669244 23887846 24119062 24364422 24625802 
2468.138 24905238 25204480 25524660 25864982 26223942 26599124 26987356 
2471.513 27385568 27791672 28204166 28622714 29048080 29481910 29926398 
2474.889 30384064 30857472 31348672 31859428 32390744 32943406 33517174 
2478.264 34111236 34723876 35351900 35989800 36630692 37264372 37879164 
2481.639 38461628 38996088 39466140 39855080 40145508 40321080 40368860 
2485.014 40278400 40044888 39668264 39154300 38512500 37756008 36901512 
2488.390 35966940 34971780 33936828 32881572 31824950 30784198 29773502 
2491.765 28804592 27887128 27026986 26228766 25494512 24824188 24216832 
2495.140 23669838 23180080 22743732 22356866 22015864 21717556 21458858 
2498.515 21237786 21052196 20900168 20779052 20684938 20613290 20558396 
2501.891 20514208 20475272 20437414 20398030 20356254 20312818 20269244 
2505.266 20226754 20186246 20147302 20108674 20068836 20026260 19980010 
2508.641 19930296 19878020 19824332 19770266 19716242 19662018 19606620 
2512.016 19548976 19488710 19425642 19360920 19295378 19230642 19167612 
2515.392 19106738 19048296 18992388 18939258 18889386 18843432 18802014 
2518.767 18765062 18732368 18703104 18676502 18651770 18628804 18607534 
2522.142 18588270 18570980 18555040 18539616 18523192 18504866 18484050 
2525.517 18460748 18435684 18409548 18383554 18358218 18334404 18312630 
2528.893 18293586 18278138 18266700 18259996 18258062 18260826 18267876 
2532.268 18279416 18295520 18316500 18342560 18373184 18407508 18443532 
2535.643 18479486 18513336 18544146 18571706 18596606 18619674 18641672 
2539.018 18662770 18682936 18701546 18718322 18733302 18747002 18759630 
2542.394 18771808 18782982 18793016 18800872 18806440 18809624 18811286 
2545.769 18812636 18814780 18818760 18825368 18834988 18848034 18864538 
2549.144 18884956 18909424 18937702 18969474 19003882 19040196 19077518 
2552.519 19115810 19154834 19195074 19236564 19279132 19322398 19365494 
2555.895 19408144 19450034 19491584 19533554 19576602 19621560 19668848 
2559.270 19718392 19769954 19823464 19878298 19934146 19990626 20047528 
2562.645 20104544 20161810 20219776 20279244 20340978 20405602 20473534 
2566.020 20543910 20615860 20687998 20758964 20827752 20894152 20958544 
2569.396 21021454 21083882 21146530 21210056 21275262 21342636 21412838 
2572.771 21486570 21564178 21645806 21731282 21820188 21911726 22004954 
2576.146 22099390 22194580 22290276 22386902 22484876 22585138 22688674 
2579.521 22796282 22909052 23027408 23151736 23282112 23418158 23559844 
2582.896 23707000 23859842 24018480 24183902 24356956 24539406 24732842 
2586.272 24939452 25161222 25399370 25654628 25926004 26211624 26508458 
2589.647 26812896 27121640 27431732 27740774 28046644 28347280 28639916 
2593.022 28921024 29185908 29429892 29647618 29834894 29988632 30107156 
2596.397 30190760 30240810 30259922 30251112 30217862 30163304 30090644 
2599.773 30002406 29901304 29789400 29668052 29538474 29401066 29256150 
2603.148 29104126 28945782 28782536 28616628 28450252 28285886 28125504 
2606.523 27970482 27821486 27678794 27542642 27413132 27290754 27176098 
2609.898 27069374 26970538 26878914 26793584 26712746 26635338 26560586 
2613.274 26488032 26418236 26352114 26290610 26235066 26186286 26145180 
2616.649 26112702 26089866 26077552 26076884 26088670 26113370 26150776 
2620.024 26200748 26262344 26335284 26419010 26513354 26618252 26733744 
2623.399 26859704 26995958 27142168 27297952 27462898 27636452 27817742 
2626.775 28005716 28198650 28394854 28591996 28788130 28981342 29169820 
2630.150 29352142 29527020 29692532 29847388 29989306 30116106 30225784 
2633.525 30316196 30385378 30431968 30454500 30452120 30424114 30370242 
2636.900 30290972 30187244 30061204 29915750 29754482 29581676 29401564 
2640.276 29218264 29035610 28856256 28682706 28516588 28358740 28210176 
2643.651 28071314 27942778 27825196 27719654 27627202 27548748 27485488 
2647.026 27437802 27405684 27388746 27386064 27396650 27419132 27453086 
2650.401 27497526 27552030 27615902 27688292 27767900 27852928 27941294 
2653.777 28031270 28120908 28208974 28294938 28378654 28460194 28540332 
2657.152 28619742 28698920 28778678 28859796 28942594 29027568 29114792 
2660.527 29204408 29295742 29388870 29483684 29580398 29679652 29782692 
2663.902 29890690 30004642 30125550 30253492 30388362 30529284 30675586 
2667.278 30826346 30981002 31139026 31300132 31464112 31630862 31800422 
2670.653 31972616 32147590 32325096 32505356 32688298 32874030 33062562 
2674.028 33254392 33449282 33648088 33850924 34057548 34268032 34481564 
2677.403 34697420 34914500 35132088 35349204 35565136 35779592 35991960 
2680.779 36202016 36409508 36614256 36816424 37015948 37213504 37409492 
2684.154 37604484 37799380 37995128 38192260 38391588 38593536 38798624 
2687.529 39007472 39220296 39437728 39660240 39888276 40122252 40362532 
2690.904 40609204 40862312 41122124 41388724 41662788 41944792 42235012 
2694.280 42534052 42841236 43156504 43478924 43807668 44142012 44481572 
2697.655 44826208 45175532 45529476 45887284 46247928 46610316 46972888 
2701.030 47334696 47694400 48051112 48404372 48753656 49098328 49438668 
2704.405 49774292 50105604 50432224 50754020 51070356 51380280 51682848 
2707.781 51977044 52262312 52538460 52805172 53062308 53309184 53545256 
2711.156 53769716 53981912 54181332 54368120 54542288 54703672 54851432 
2714.531 54984572 55101240 55199960 55279504 55339380 55379240 55399492 
2717.906 55400244 55380708 55340132 55276760 55188708 55074276 54932340 
2721.281 54762188 54564116 54338868 54088104 53813744 53518116 53203440 
2724.657 52872004 52525560 52166168 51795688 51417128 51033796 50650240 
2728.032 50271304 49902320 49547320 49209976 48892768 48597140 48324036 
2731.407 48073948 47847452 47645368 47468176 47316260 47189912 47088420 
2734.782 47010916 46955648 46920392 46902788 46899720 46908876 46928000 
2738.158 46955724 46991240 47034620 47086096 47146332 47215108 47292056 
2741.533 47376712 47468548 47567800 47675692 47794112 47925444 48072208 
2744.908 48235908 48417708 48617040 48832812 49063196 49306136 49559500 
2748.283 49821448 50090100 50364312 50643128 50925924 51212408 51502960 
2751.659 51797480 52095708 52396908 52699440 53001584 53300980 53595520 
2755.034 53883432 54163244 54433840 54693976 54942868 55179344 55401976 
2758.409 55609624 55800980 55974744 56130288 56267444 56386952 56491056 
2761.784 56583104 56666792 56746760 56826436 56908320 56993320 57080300 
2765.160 57167032 57249928 57325232 57388680 57435804 57462656 57465304 
2768.535 57440304 57385508 57299788 57183248 57036844 56862316 56661240 
2771.910 56435808 56187456 55918584 55631356 55329256 55015712 54694088 
2775.285 54368084 54040856 53714968 53393176 53078332 52772992 52480096 
2778.661 52201776 51939696 51694904 51467784 51258564 51067408 50894144 
2782.036 50738640 50599752 50475692 50363568 50259992 50161536 50065000 
2785.411 49968116 49869280 49766528 49658304 49542084 49414976 49274032 
2788.786 49116656 48941424 48747504 48535256 48305524 48059400 47798032 
2792.162 47522808 47235500 46938004 46632852 46322572 46009492 45695240 
2795.537 45381104 45067964 44756084 44446224 44139004 43835376 43535984 
2798.912 43242000 42954252 42674076 42402480 42140916 41890124 41650968 
2802.287 41423608 41207804 41003356 40810112 40628376 40459044 40303160 
2805.663 40161864 40035696 39924604 39828172 39745520 39676288 39620128 
2809.038 39577404 39548152 39532980 39531312 39542456 39565536 39599584 
2812.413 39643832 39697816 39761284 39833800 39914612 40002416 40095796 
2815.788 40192904 40292288 40392528 40492288 40590504 40686120 40778012 
2819.164 40865844 40949760 41031072 41111672 41193776 41279984 41371960 
2822.539 41470740 41577128 41691672 41814892 41948000 42092724 42250828 
2825.914 42424220 42614204 42822036 43048268 43293980 43560052 43847360 
2829.289 44156648 44487736 44838956 45207336 45587508 45972692 46354168 
2832.665 46721876 47066156 47377116 47646588 47868908 48041820 48165784 
2836.040 48243976 48281340 48283120 48254492 48200288 48124844 48032460 
2839.415 47928180 47817748 47707716 47604252 47512980 47438204 47383360 
2842.790 47350768 47342120 47359528 47404832 47480708 47588948 47730868 
2846.166 47906128 48112292 48344520 48595356 48855020 49112348 49354688 
2849.541 49570456 49749844 49886004 49976368 50022544 50030016 50006816 
2852.916 49962652 49908308 49853076 49806288 49775740 49768236 49788932 
2856.291 49841776 49928820 50050912 50207320 50396088 50614312 50858868 
2859.667 51126036 51411984 51712632 52023952 52341776 52662820 52983092 
2863.042 53299516 53608680 53906652 54189032 54451232 54688228 54895872 
2866.417 55070588 55210380 55314580 55383908 55420084 55426104 55405436 
2869.792 55362456 55301860 55228744 55147740 55063288 54979156 54898616 
2873.167 54825040 54761516 54711900 54679920 54669324 54683300 54724192 
2876.543 54792708 54889028 55012104 55160264 55331288 55523052 55732564 
2879.918 55956804 56192960 56438036 56689668 56946284 57206980 57471392 
2883.293 57739064 58009440 58281388 58553432 58824464 59093316 59359524 
2886.668 59622928 59883944 60142760 60399748 60655288 60909760 61163848 
2890.044 61418308 61674180 61931812 62191352 62452080 62712356 62970140 
2893.419 63222944 63468300 63704172 63928604 64139872 64336912 64518580 
2896.794 64684256 64833216 64964996 65078444 65172724 65246604 65299288 
2900.169 65330400 65340264 65330020 65301248 65256000 65195628 65121480 
2903.545 65035112 64937636 64830952 64717516 64600236 64482488 64366960 
2906.920 64256036 64151472 64054384 63965620 63886152 63816644 63758232 
2910.295 63711420 63676120 63651644 63636028 63626668 63619800 63610940 
2913.670 63595564 63568056 63523412 63456952 63364932 63245060 63097060 
2917.046 62922492 62724448 62507444 62276128 62034728 61786476 61532752 
2920.421 61272916 61004772 60724864 60429524 60116272 59784160 59434324 
2923.796 59070120 58695984 58316856 57937268 57560924 57190160 56826852 
2927.171 56471620 56125388 55788584 55461868 55145068 54838084 54540368 
2930.547 54251044 53969676 53695880 53429940 53172132 52922980 52683092 
2933.922 52452352 52231260 52019468 51816632 51622284 51435404 51255132 
2937.297 51080380 50910016 50743628 50580844 50421992 50267620 50118136 
2940.672 49974212 49835460 49701732 49572464 49446836 49324396 49204560 
2944.048 49086792 48970720 48855908 48741684 48627600 48512768 48396888 
2947.423 48279304 48160308 48040268 47920408 47802988 47690368 47585916 
2950.798 47492720 47413332 47350180 47305028 47279572 47275656 47295716 
2954.173 47341680 47415476 47517192 47644704 47792708 47953488 48116848 
2957.549 48270972 48405148 48509060 48574720 48597252 48574308 48506912 
2960.924 48398888 48257088 48090160 47907940 47720660 47537336 47365068 
2964.299 47209160 47073208 46959596 46869932 46805424 46766784 46753464 
2967.674 46763460 46792840 46835428 46884588 46932576 46972520 46998768 
2971.050 47007224 46995228 46961408 46905812 46829080 46732652 46618356 
2974.425 46488564 46345796 46192388 46030304 45861324 45686736 45507584 
2977.800 45324716 45138620 44949992 44759096 44566812 44374248 44183020 
2981.175 43995100 43812576 43637604 43471748 43316312 43171800 43038940 
2984.551 42917892 42809348 42713664 42631236 42562012 42505476 42461084 
2987.926 42428312 42407084 42398060 42401932 42419724 42451696 42497588 
2991.301 42556968 42629588 42716664 42820760 42946348 43098652 43281572 
2994.676 43496612 43740708 44005952 44278480 44540452 44772244 44953668 
2998.052 45067340 45101528 45051024 44919308 44717812 44466628 44190504 
3001.427 43916384 43672152 43480752 43359660 43319496 43362404 43482548 
3004.802 43665740 43892924 44137976 44371536 44565564 44692692 44731768 
3008.177 44671132 44508072 44250228 43912464 43516208 43084232 42637812 
3011.552 42196524 41774760 41382892 41027324 40711012 40434348 40195736 
3014.928 39992748 39822036 39680028 39563760 39469984 39395496 39337448 
3018.303 39292616 39257540 39228964 39204124 39180948 39158432 39136532 
3021.678 39115428 39096032 39078848 39064204 39052168 39042268 39034404 
3025.053 39028024 39022768 39018528 39015192 39012904 39011532 39011456 
3028.429 39012364 39013992 39015480 39016096 39014828 39011096 39005148 
3031.804 38997464 38988872 38979888 38970788 38960676 38948172 38931752 
3035.179 38910120 38882360 38848552 38809456 38766020 38719324 38670388 
3038.554 38620044 38569240 38519088 38470612 38425032 38383152 38345184 
3041.930 38310912 38279752 38251020 38224316 38199532 38176956 38156988 
3045.305 38139984 38126200 38115600 38108552 38105076 38105548 38110432 
3048.680 38119872 38133872 38152104 38174024 38199460 38228624 38262060 
3052.055 38300848 38346304 38399620 38461884 38533932 38616496 38710088 
3055.431 38815580 38933132 39062640 39203396 39353704 39511064 39672332 
3058.806 39833036 39987772 40130356 40252300 40344608 40397476 40400784 
3062.181 40346860 40230088 40048956 39805764 39507144 39163616 38786920 
3065.556 38390968 37989448 37593968 37214948 36859992 36533584 36238140 
3068.932 35973672 35738976 35531800 35350140 35192016 35055788 34939964 
3072.307 34842980 34762748 34696812 34642728 34597948 34560812 34530208 
3075.682 34505384 34485972 34471412 34460400 34451644 34442680 34431344 
3079.057 34416172 34395944 34370624 34341112 34309196 34276784 34246128 
3082.433 34219452 34198336 34183996 34177080 34177436 34184176 34195544 
3085.808 34208984 34220852 34226800 34222032 34201636 34161344 34098296 
3089.183 34011428 33901972 33772668 33628072 33473906 33314850 33155930 
3092.558 33001174 32852982 32713446 32583888 32464900 32357082 32260458 
3095.934 32174278 32097322 32028046 31964094 31903468 31844202 31784664 
3099.309 31723778 31660906 31595796 31528308 31458732 31387456 31314872 
3102.684 31241592 31168214 31095100 31022282 30949724 30877180 30804222 
3106.059 30730208 30655140 30578770 30500990 30422302 30342666 30262764 
3109.435 30182982 30104208 30027118 29952170 29879650 29809414 29740608 
3112.810 29672310 29603524 29533332 29461664 29388904 29315698 29243108 
3116.185 29172088 29102710 29035008 28968662 28903034 28837876 28772694 
3119.560 28707202 28640942 28573524 28504276 28432882 28359236 28284116 
3122.936 28209010 28135508 28065128 27998720 27936064 27875892 27816576 
3126.311 27756598 27695392 27633028 27570814 27510728 27454074 27402016 
3129.686 27353880 27308572 27264152 27218958 27171796 27122522 27071630 
3133.061 27020500 26970256 26922132 26876694 26834184 26794570 26757178 
3136.437 26721448 26686812 26652390 26617512 26581756 26544596 26505958 
3139.812 26465880 26424610 26382322 26339508 26295962 26252032 26207894 
3143.187 26163586 26119386 26075686 26032868 25991216 25951292 25913234 
3146.562 25877398 25843848 25812516 25783226 25755628 25729294 25703736 
3149.938 25678672 25653818 25628934 25603944 25578252 25551648 25523538 
3153.313 25493528 25461836 25428916 25395646 25362978 25331716 25302248 
3156.688 25274152 25246934 25220140 25193208 25166384 25140296 25115828 
3160.063 25093780 25074824 25058782 25045058 25033088 25022138 25011784 
3163.438 25002132 24993778 24987286 24983564 24983354 24987390 24996376 
3166.814 25010660 25030386 25055412 25085390 25119724 25158412 25201356 
3170.189 25249148 25303266 25365296 25437312 25521006 25617756 25728378 
3173.564 25853378 25993046 26147820 26318034 26504480 26707706 26927986 
3176.939 27165270 27418956 27687584 27969422 28262084 28563048 28869356 
3180.315 29177580 29483718 29783084 30070224 30339044 30583000 30795898 
3183.690 30972534 31109230 31204244 31258364 31274348 31255976 31208516 
3187.065 31137138 31046696 30942324 30828552 30709866 30590822 30474724 
3190.440 30364200 30260420 30163198 30071146 29982560 29895694 29809166 
3193.816 29722016 29633712 29543724 29451414 29356396 29258454 29158126 
3197.191 29056724 28956088 28857990 28763666 28673468 28587324 28504560 
3200.566 28425064 28348872 28277256 28211486 28152512 28100864 28056114 
3203.941 28017308 27983380 27953486 27927338 27905112 27886810 27872288 
3207.317 27860736 27851196 27843000 27836112 27831732 27831520 27837350 
3210.692 27850490 27871264 27898504 27930482 27964934 28000238 28035404 
3214.067 28070678 28106838 28144734 28185108 28228068 28273332 28320224 
3217.442 28367724 28415194 28462280 28508770 28555230 28602578 28651808 
3220.818 28703980 28759596 28818580 28879874 28941956 29003198 29062216 
3224.193 29118654 29172726 29225530 29278338 29332042 29387310 29444038 
3227.568 29502374 29562026 29623424 29686890 29753028 29821942 29893210 
3230.943 29966194 30039864 30113228 30185646 30256760 30326038 30393658 
3234.319 30459830 30524734 30589576 30655638 30724412 30797180 30874940 
3237.694 30957198 31042780 31130410 31218662 31307038 31395968 31486270 
3241.069 31578622 31673022 31768124 31861570 31951788 32037568 32119654 
3244.444 32200292 32282480 32369432 32462758 32562814 32668292 32777258 
3247.820 32887756 32998636 33109654 33221092 33332988 33445164 33556476 
3251.195 33665560 33771520 33873740 33973088 34070700 34168512 34267892 
3254.570 34369832 34474496 34581480 34690244 34799864 34909908 35020048 
3257.945 35130648 35241712 35353444 35465820 35578656 35691308 35802872 
3261.321 35912020 36017552 36118976 36216060 36309712 36400972 36491524 
3264.696 36582420 36674204 36766800 36859344 36951260 37041964 37131356 
3268.071 37219500 37306900 37393096 37477716 37559576 37637256 37709924 
3271.446 37777044 37839216 37897568 37953904 38009516 38065396 38121860 
3274.822 38178512 38234340 38288476 38339720 38387528 38431624 38472348 
3278.197 38510112 38545956 38580500 38614720 38649308 38684404 38720520 
3281.572 38757432 38795072 38833228 38871420 38909612 38947120 38984052 
3284.947 39019792 39053944 39085988 39115320 39141316 39163364 39181240 
3288.323 39194912 39205068 39212608 39219024 39225628 39233424 39243144 
3291.698 39254896 39268388 39283040 39298600 39314452 39330088 39345032 
3295.073 39358564 39370028 39379276 39386136 39390812 39394224 39397052 
3298.448 39399524 39401592 39402352 39401336 39397816 39392012 39384864 
3301.823 39377864 39372676 39370608 39372204 39377248 39384940 39394188 
3305.199 39403876 39413128 39421908 39430144 39438092 39446292 39455652 
3308.574 39466864 39481088 39498868 39520392 39545068 39571888 39599476 
3311.949 39626876 39654252 39682348 39712808 39747448 39787604 39833324 
3315.324 39884028 39937824 39992824 40047360 40101068 40153868 40206860 
3318.700 40260876 40317336 40376604 40439044 40504912 40573732 40645332 
3322.075 40718980 40793988 40869412 40944516 41018728 41091748 41163648 
3325.450 41234508 41304356 41372872 41439280 41502932 41563160 41619828 
3328.825 41673104 41723804 41772284 41819012 41863672 41905380 41943112 
3332.201 41975956 42002676 42022748 42035632 42041220 42039832 42032276 
3335.576 42019608 42003292 41984424 41964276 41942744 41919536 41893412 
3338.951 41863528 41828936 41789392 41745324 41697032 41645208 41589776 
3342.326 41530380 41466256 41396600 41321340 41240300 41153852 41062536 
3345.702 40966836 40867192 40764360 40659376 40553180 40447332 40342788 
3349.077 40240228 40139224 40038856 39937460 39833728 39726788 39616316 
3352.452 39503080 39387552 39270780 39153392 39035672 38918020 38800652 
3355.827 38684076 38568732 38455076 38343084 38232456 38123344 38015376 
3359.203 37909100 37804768 37703132 37604340 37507952 37412960 37318060 
3362.578 37221844 37124064 37024824 36925464 36827604 36732688 36641400 
3365.953 36553732 36468892 36385620 36303084 36220456 36137736 36054848 
3369.328 35972016 35889200 35806076 35722064 35636740 35549784 35461292 
3372.704 35371884 35282208 35193132 35105036 35018396 34933532 34849984 
3376.079 34767520 34685580 34603512 34521312 34438516 34355600 34273088 
3379.454 34191564 34111736 34033860 33958112 33883808 33810448 33736816 
3382.829 33662408 33586724 33509872 33432498 33355926 33281330 33210326 
3386.205 33143948 33082836 33026558 32974542 32924748 32874818 32823034 
3389.580 32767396 32707088 32642108 32573350 32502428 32431300 32361648 
3392.955 32294616 32230482 32168430 32107274 32045770 31982996 31918514 
3396.330 31853046 31787590 31723458 31661830 31603030 31546768 31491898 
3399.706 31437252 31381902 31325382 31267442 31208374 31148102 31085598 
3403.081 31020076 30950330 30875402 30796004 30713528 30630322 30549190 
3406.456 30472378 30400872 30334104 30270330 30206958 30141604 30072674 
3409.831 29999600 29922920 29843804 29763282 29682314 29601468 29520280 
3413.207 29438366 29355082 29269974 29183250 29095340 29006988 28918864 
3416.582 28831290 28743700 28655064 28563898 28468648 28368716 28264350 
3419.957 28157036 28049364 27944192 27843778 27749356 27660678 27576144 
3423.332 27494030 27412602 27330766 27248594 27166504 27085242 27005126 
3426.708 26925940 26846592 26765848 26682090 26594718 26503246 26407918 
3430.083 26309690 26209900 26109888 26011198 25914958 25822362 25733900 
3433.458 25649530 25568624 25490016 25412192 25334070 25254836 25174318 
3436.833 25092762 25010906 24929380 24848606 24768726 24689490 24609988 
3440.208 24529518 24447594 24364140 24279862 24196302 24114440 24035848 
3443.584 23960634 23888022 23815528 23740454 23660252 23573418 23480758 
3446.959 23384450 23288372 23195982 23109486 23029086 22952646 22877060 
3450.334 22799146 22716742 22629642 22539732 22449494 22361434 22277232 
3453.709 22197474 22121042 22046400 21972018 21897368 21821894 21745946 
3457.085 21669280 21592140 21514004 21434282 21352938 21269452 21184206 
3460.460 21097796 21010672 20923566 20837310 20752186 20668640 20586782 
3463.835 20506256 20426404 20346290 20265322 20183504 20101178 20019318 
3467.210 19938934 19860330 19782992 19704974 19624160 19538476 19447160 
3470.586 19350768 19251042 19150714 19052380 18957776 18867482 18781322 
3473.961 18698466 18618394 18540966 18466556 18395516 18327872 18262864 
3477.336 18199110 18134850 18068246 17997546 17921816 17840712 17754446 
3480.711 17664644 17573342 17483368 17397414 17317444 17244452 17176814 
3484.087 17111980 17046466 16976104 16898518 16813232 16722005 16628008 
3487.462 16534824 16445719 16362585 16285488 16213976 16146740 16082780 
3490.837 16021170 15961355 15902715 15844496 15785357 15724750 15661677 
3494.212 15596348 15529172 15460978 15392726 15324965 15258141 15192563 
3497.588 15129087 15068433 15011664 14959429 14911213 14865162 14818328 
3500.963 14767076 14708564 14641492 14566618 14487373 14408723 14335567 
3504.338 14271258 14216887 14170739 14128292 14083864 14032322 13970008 
3507.713 13895969 13812399 13723954 13637305 13558263 13491470 13438735 
3511.089 13398957 13368032 13341483 13314457 13283402 13246473 13203979 
3514.464 13157050 13107428 13056447 13005061 12953750 12902649 12851965 
3517.839 12802412 12755083 12710761 12669889 12631546 12593990 12554904 
3521.214 12511590 12462384 12407079 12347009 12284936 12223588 12165588 
3524.590 12111719 12061330 12012174 11961560 11907646 11849451 11787959 
3527.965 11724945 11662859 11603607 11548038 11496218 11447330 11400760 
3531.340 11356168 11313826 11273902 11236021 11199572 11162072 11121312 
3534.715 11075186 11022674 10964834 10903808 10843131 10785960 10735317 
3538.091 10692560 10657990 10631402 10611743 10597686 10588010 10580677 
3541.466 10573309 10563090 10546930 10521775 10485691 10437018 10376304 
3544.841 10304877 10225725 10142961 10061737 9987038 9923335 9872964 9836256 
3548.698 9810260 9790265 9769932 9744212 9709447 9664317 9610925 9553375 
3552.556 9496577 9445035 9401625 9366955 9339701 9317934 9298909 9280088 
3556.413 9259305 9234867 9205185 9169786 9128638 9083364 9036134 8989890 
3560.271 8948049 8913685 8888827 8874657 8870531 8874184 8880947 8884667 
3564.128 8877430 8850884 8798099 8715842 8606494 8478793 8347414 8228941 
3567.986 8137169 8079510 8055848 8059358 8079578 8105233 8127581 8140343 
3571.843 8140580 8128999 8107562 8079206 8047139 8013623 7980143 7947205 
3575.700 7914271 7881001 7846115 7808802 7769165 7728013 7687271 7649163 
3579.558 7616419 7591062 7574338 7567359 7570225 7582498 7602594 7628221 
3583.415 7655266 7677727 7687473 7676277 7635842 7561391 7453884 7321332 
3587.273 7178782 7044967 6938901 6872614 6850431 6867464 6913079 6973412 
3591.130 7034460 7085279 7117949 7129367 7120071 7093935 7056282 7012505 
3594.988 6967587 6924525 6884699 6848344 6814584 6781836 6748619 6713352 
3598.845 6675262 6635123 6594920 6557950 6528787 6511162 6507092 6516644 
3602.702 6537364 6565182 6595458 6623583 6645014 6655848 6652349 6631119 
3606.560 6590244 6530334 6455702 6374526 6297500 6234639 6191919 6168829 
3610.417 6158747 6152429 6140365 6117513 6084851 6049202 6020879 6008919 
3614.275 6017217 6042683 6076753 6106088 6117983 6102425 6053771 5972267 
3618.132 5864615 5743023 5623579 5522155 5452662 5422935 5433806 5479606 
3621.990 5551553 5638583 5731473 5824047 5913383 5998638 6078366 6147523 
3625.847 6195347 6206875 6163923 6052796 5872945 5644760 5409582 5216314 
3629.704 5104525 5085617 5144724 5249447 5365702 5465949 5532524 5560580 
3633.562 5555446 5529001 5494101 5460815 5433302 5411058 5390695 5368721 
3637.419 5343830 5317063 5291035 5268228 5250353 5238145 5231371 5230868 
3641.277 5237709 5254545 5284059 5327159 5382811 5446522 5511014 5567326 
3645.134 5605051 5615356 5590988 5528867 5429411 5298816 5147473 4988541 
3648.991 4837674 4711378 4624165 4587764 4607119 4679123 4791306 4925433 
3652.849 5059737 5171146 5240157 5253941 5209004 5114717 4992027 4870846 
3656.706 4777302 4727724 4723671 4754523 4803400 4852953 4891889 4913805 
3660.564 4918999 4911828 4899328 4888605 4885623 4894939 4918128 4955528 
3664.421 5004998 5062385 5122327 5177483 5220472 5243478 5238749 5200285 
3668.279 5125378 5018171 4891454 4768693 4679291 4646837 4681468 4773718 
3672.136 4898155 5018070 5094065 5093629 4996786 4808425 4562215 4318688 
3675.993 4138481 4056166 4070012 4149688 4255979 4353895 4424417 4463817 
3679.851 4480421 4488121 4500475 4524949 4562818 4610870 4665793 4726351 
3683.708 4793484 4867897 4947149 5022931 5081795 5108615 5089941 5020651 
3687.566 4907136 4768961 4632001 4519927 4446711 4412333 4408082 4421739 
3691.423 4444803 4473492 4507840 4549023 4595901 4645230 4691784 4730538 
3695.281 4759346 4779949 4797638 4819247 4849301 4888471 4931734 4970945 
3699.138 4995244 4995814 4968197 4914341 4842265 4764907 4697076 4650722 
3702.995 4633207 4646134 4686023 4746918 4821190 4902143 4984184 5062787 
3706.853 5134933 5197971 5248441 5282482 5294322 5276848 5224060 5132788 
3710.710 5005735 4853489 4695033 4553677 4450829 4401589 4410191 4469909 
3714.568 4566367 4682271 4800284 4905461 4988943 5047166 5081225 5096009 
3718.425 5097820 5091953 5081057 5065804 5045523 5020014 4990921 4961326 
3722.282 4935621 4917390 4908108 4906399 4908343 4909650 4907438 4902210 
3726.140 4898256 4902981 4924059 4966119 5027925 5102446 5177885 5240694 
3729.997 5278793 5285803 5262125 5216951 5162830 5112806 5071670 5034629 
3733.855 4988239 4917390 4814154 4683879 4546076 4428200 4356405 4343520 
3737.712 4387297 4474831 4589874 4718814 4853054 4988206 5119142 5235295 
3741.570 5319411 5345608 5286675 5125579 4870745 4569247 4295631 4128580 
3745.427 4106369 4215494 4403898 4609832 4779714 4875068 4878988 4796063 
3749.284 4651057 4478413 4312932 4179361 4088709 4043055 4041450 4082688 
3753.142 4163939 4277661 4411597 4548252 4670582 4766214 4828728 4859520 
3756.999 4865585 4855935 4837808 4813585 4783399 4748091 4712215 4685755 
3760.857 4679760 4702167 4752077 4820487 4891655 4949094 4981837 4988072 
3764.714 4976777 4961929 4958343 4972487 4999568 5025880 5034093 5011467 
3768.572 4953819 4869170 4774656 4692688 4641412 4630561 4659262 4718881 
3772.429 4797336 4882239 4964678 5038350 5100233 5149317 5185799 5210010 
3776.286 5221613 5219433 5201760 5167524 5118338 5059401 5000473 4953752 
3780.144 4930494 4936358 4969973 5022495 5081728 5133425 5167122 5177416 
3784.001 5165345 5136275 5098691 5060709 5027556 5002183 4985893 4978989 
3787.859 4981837 4994608 5015992 5043009 5071670 5098189 5120215 5138287 
3791.716 5155051 5173761 5195859 5219030 5237844 5245222 5236301 5211586 
3795.573 5179093 5152536 5148345 5176645 5237307 5317365 5395324 5444106 
3799.431 5438570 5364360 5223423 5040461 4857677 4723973 4674200 4715532 
3803.288 4827891 4973928 5112303 5204175 5224262 5165110 5041434 4887700 
3807.146 4748593 4663683 4650890 4705182 4803903 4921177 5034629 5131581 
3811.003 5209440 5272086 5324878 5368923 5399517 5405959 5377276 5307638 
3814.861 5203604 5086220 4988709 4942960 4965650 5051423 5175672 5304083 
3818.718 5399048 5431893 5385931 5263634 5087762 4900535 4749263 4666161 
3822.575 4660535 4717977 4811072 4909549 4988943 5036707 5052228 5046093 
3826.433 5035434 5038484 5065871 5118438 5187174 5257999 5316795 5353760 
3830.290 5366004 5357953 5339268 5320920 5312367 5319075 5341918 5377611 
3834.148 5419681 5460547 5490142 5498396 5476720 5420587 5332124 5222250 
3838.005 5108648 5011601 4945742 4918061 4924193 4953048 4989446 5020115 
3841.863 5036238 5035098 5020450 5001110 4988675 4993837 5024674 5084577 
3845.720 5172285 5281476 5403375 5529169 5650735 5763202 5864682 5954060 
3849.577 6029748 6085691 6108608 6078971 5974316 5776834 5487323 5136074 
3853.435 4785309 4505229 4346264 4319792 4402492 4555050 4738008 4923389 
3857.292 5093159 5238850 5358456 5452460 5522121 5568266 5591793 5594512 
3861.150 5579040 5548398 5505041 5449642 5382542 5306129 5228118 5163031 
3865.007 5128965 5140701 5203370 5307067 5428740 5536149 5599278 5595922 
3868.865 5522323 5395727 5253606 5138220 5076800 5074587 5114247 5170006 
3872.722 5216381 5240225 5242472 5237944 5246094 5282952 5353626 5450514 
3876.579 5556620 5650265 5712773 5730869 5699948 5624721 5520578 5410690 
3880.437 5319847 5269939 5272488 5325147 5412635 5510275 5591861 5632642 
3884.294 5618746 5551251 5450548 5349332 5281611 5270408 5317767 5407032 
3888.152 5509369 5595284 5640597 5631803 5569843 5470243 5359060 5263768 
3892.009 5206052 5195389 5229560 5297441 5384924 5479438 5570179 5649929 
3895.866 5714048 5759609 5785128 5790803 5778446 5752592 5719051 5684674 
3899.724 5654528 5630326 5608978 5584208 5547794 5493967 5421425 5336048 
3903.581 5250051 5178590 5135839 5130038 5160818 5220103 5295362 5373887 
3907.439 5445045 5502792 5545814 5575817 5596627 5612267 5626667 5643048 
3911.296 5664062 5692630 5730130 5776566 5828984 5881442 5926113 5954262 
3915.154 5959938 5940859 5899948 5844633 5784725 5729324 5684674 5653588 
3919.011 5636234 5631870 5639389 5657817 5685781 5720394 5756319 5787546 
3922.868 5807626 5812697 5802724 5782341 5758971 5741109 5735167 5743493 
3926.726 5764445 5793187 5824148 5852089 5873314 5885740 5888427 5881475 
3930.583 5865254 5841778 5814006 5786673 5765284 5754640 5757192 5772402 
3934.441 5796881 5825189 5851417 5871635 5884263 5890476 5893331 5896455 
3938.298 5902299 5911099 5921108 5928666 5930010 5922183 5904482 5879090 
3942.156 5850544 5825491 5809137 5805746 5816089 5837950 5866362 5895481 
3946.013 5920067 5936123 5942505 5940624 5933603 5924736 5916977 5911872 
3949.870 5909319 5908546 5908546 5908983 5910091 5912946 5918287 5926314 
3953.728 5936425 5947409 5957520 5965213 5969882 5971327 5970520 5968203 
3957.585 5965381 5962626 5960308 5958393 5957016 5955874 5955135 5955102 
3961.443 5955941 5958058 5961719 5967027 5973577 5980800 5987787 5993498 
3965.300 5997362 5999377 5999579 5999008 5998806 5999579 6001796 6005122 
3969.157 6009154 6013253 6016880 6020240 6023533 6027665 6032806 6039391 
3973.015 6047085 6055350 6063985 6072116 6079777 6086699 6092950 6098527 
3976.872 6103467 6107701 6111028 6113515 6114959 6115228 6113884 6111128 
3980.730 6106861 6101350 6095268 6089522 6084683 6081592 6080449 6080987 
3984.587 6083239 6086632 6091000 6096343 6101955 6107331 6111397 6113279 
3988.445 6112607 6109314 6104744 6100678 6099132 6101686 6108440 6118992 
3992.302 6131291 6143457 6153874 6162175 6168359 6173467 6178744 6184659 
3996.159 6191179 6197465 6203111 6207548 6211077 6213934 6217329 6222303 
4000.017 6229228 6237866 
##END=
