
##TITLE=Z361_3_c
##JCAMP-DX=5.01  $$ Nicolet v. 1
##DATATYPE=INFRARED SPECTRUM
##ORIGIN=UniL
##OWNER=Nicolet
##LONGDATE=2011/09/14
##TIME=13:35:51
##SPECTROMETER/DATA SYSTEM=Nicolet iS5
##DATA PROCESSING=
Ratio against background
%Transmittance->Absorbance
Truncated
ElementMultiply or ElementDivide
##COMMENTS=
Number of sample scans: 32
Collection length: 51.24 sec
Sample gain: 2.0
Background collected on: Mer Sep 14 13:30:21 2011 (GMT+02:00);
Number of background scans: 32
Background gain: 2.0
Sample spacing:  1.000
Number of scan points: 12415
Resolution points: 8192
Number of FFT points: 65536
Apodization: N-B fort;
Phase correction: Mertz;
Laser frequency: 15798.0 cm-1
Number of rejected sample scans: 0
Number of rejected background scans: 0
Bench serial number: ASB1000141;
##RESOLUTION=4.000
##XUNITS=1/CM
##YUNITS=ABSORBANCE
##FIRSTX=649.893372
##LASTX=4000.122314
##FIRSTY=0.103733
##MAXX=4000.122314
##MINX=649.893372
##MAXY=0.214689
##MINY=0.003706
##XFACTOR=1.000000
##YFACTOR=1.000000E-009
##NPOINTS=6950
##DELTAX=0.482117
##ZPD=6100
##XYDATA=(X++(Y..Y))
649.893 103732608 104005920 104355608 104757248 105177664 105589568 
652.786 105982576 106367904 106774024 107233384 107767656 108379936 
655.679 109055232 109769312 110497872 111224912 111944216 112651784 
658.571 113342304 114004848 114626080 115196664 115715008 116188296 
661.464 116627256 117040576 117434280 117814736 118193128 118592496 
664.357 119044872 119582544 120230648 120994008 121848408 122736496 
667.250 123590552 124370088 125116680 125947264 127031656 128541616 
670.142 130612400 133375672 136953184 141437568 146857536 153111312 
673.035 159938608 166849104 173176016 178186544 181139104 181519824 
675.928 179175824 174382144 167775984 160183088 152455712 145233440 
678.820 138908560 133621064 129296496 125731992 122668768 119878152 
681.713 117178072 114457432 111674472 108836696 105984272 103169944 
684.606 100448352 97862584 95439528 93195176 91136512 89266592 87587800 
687.981 86100416 84801176 83680616 82723096 81908544 81213552 80615984 
691.355 80095736 79635456 79221712 78844032 78494584 78168392 77863016 
694.730 77577304 77310776 77062776 76831216 76613808 76407880 76212912 
698.105 76029480 75860568 75709192 75577032 75463368 75364592 75275680 
701.480 75191136 75106712 75020176 74930472 74836856 74737232 74628312 
704.855 74505728 74365360 74204840 74024608 73827680 73619352 73404480 
708.229 73187016 72969976 72753344 72536640 72318232 72095680 71866704 
711.604 71628904 71379872 71117704 70840528 70545912 70231704 69894928 
714.979 69532920 69144072 68729400 68292640 67841088 67383200 66927104 
718.354 66478640 66039928 65610020 65186544 64767748 64353356 63944504 
721.729 63542664 63147336 62755576 62362184 61961236 61547868 61119332 
725.104 60675520 60217508 59747732 59269464 58787132 58308292 57843568 
728.478 57404568 57002576 56643876 56328628 56050660 55800188 55568576 
731.853 55350708 55146272 54958588 54791696 54648356 54529404 54435568 
735.228 54369584 54337064 54345252 54399968 54502768 54649820 54834140 
738.603 55050840 55301372 55596180 55954388 56399324 56953048 57635608 
741.978 58467144 59471068 60685272 62166808 63992412 66273524 69152856 
745.352 72804712 77452064 83333520 90669984 99606320 110115872 121907856 
748.727 134312864 146350496 156745984 164121056 167387792 165946032 
751.620 159919152 150088080 137732176 124290192 110977144 98737008 88101752 
754.995 79235712 72071184 66395932 61960052 58516276 55863264 53844200 
758.370 52324540 51195296 50364312 49753892 49311928 49006588 48823096 
761.744 48756440 48804004 48962676 49229976 49607672 50103820 50730784 
765.119 51502516 52429656 53517032 54766552 56182436 57776724 59572680 
768.494 61599264 63881620 66427864 69215688 72185192 75230488 78217032 
771.869 80986936 83368928 85210552 86379376 86777064 86356136 85121104 
775.244 83134584 80505336 77383832 73939040 70328080 66699764 63176072 
778.619 59848080 56789128 54047012 51645080 49583792 47840388 46376140 
781.993 45140788 44086704 43174144 42373184 41665556 41038900 40482540 
785.368 39985920 39538172 39129532 38754460 38411348 38100916 37823820 
788.743 37578252 37359296 37160916 36977524 36806004 36646372 36499236 
792.118 36364328 36238680 36117032 35994552 35869264 35743688 35624260 
795.493 35518320 35431560 35364840 35314376 35273732 35237436 35202576 
798.867 35170460 35143872 35126016 35117576 35116640 35119512 35123572 
802.242 35127920 35134348 35145704 35163520 35187740 35216160 35246132 
805.617 35276892 35309956 35349600 35399924 35463200 35538600 35622068 
808.992 35708936 35795712 35881896 35969640 36062196 36161432 36266340 
812.367 36372688 36474840 36568112 36650228 36721260 36783280 36838244 
815.742 36887044 36929180 36963704 36991268 37014144 37036588 37062460 
819.116 37094400 37132400 37174556 37219028 37264984 37314412 37371648 
822.491 37441132 37525544 37624900 37736128 37855668 37980300 38109380 
825.866 38245124 38391188 38550880 38725988 38916460 39120576 39336796 
829.241 39563868 39801264 40048848 40306324 40572716 40847388 41130976 
832.616 41425796 41735840 42065236 42415960 42785544 43166276 43546496 
835.990 43911804 44248396 44546472 44799980 45008132 45173952 45303792 
839.365 45407148 45496696 45590052 45707680 45872184 46107676 46434540 
842.740 46869932 47427820 48118252 48950732 49935548 51083548 52407900 
846.115 53924172 55647740 57595544 59783436 62222708 64915932 67849304 
849.490 70986592 74254600 77541816 80700000 83536288 85845488 87430936 
852.865 88123272 87825496 86523640 84299552 81315144 77802728 74040752 
856.239 70295320 66815756 63798948 61363428 59564740 58395652 57807456 
859.614 57723092 58055684 58722416 59639652 60729972 61920424 63132808 
862.989 64290760 65321116 66153736 66733144 67020820 66997504 66666076 
866.364 66050492 65194240 64152048 62988416 61768672 60546832 59365680 
869.739 58252176 57218436 56268276 55401640 54618180 53919220 53306300 
873.113 52779988 52337364 51972932 51679232 51448684 51275192 51153992 
876.488 51080828 51051312 51059580 51098828 51162828 51247040 51349328 
879.863 51470356 51611872 51776724 51966324 52181564 52423340 52692332 
883.238 52989568 53315740 53670048 54049564 54449804 54865564 55292448 
886.613 55728456 56174332 56632516 57104936 57591760 58089960 58594232 
889.987 59098252 59596776 60087392 60569684 61044964 61514004 61976216 
893.362 62429432 62871368 63300796 63719436 64131036 64541800 64957456 
896.737 65383248 65823608 66282788 66766724 67284424 67847168 68468016 
900.112 69160592 69936648 70806128 71778320 72860824 74061152 75384776 
903.487 76832328 78395280 80051760 81766568 83485488 85139968 86654920 
906.862 87945408 88928912 89534448 89702288 89398552 88621000 87405368 
910.236 85824408 83981552 82007944 80035024 78189216 76583248 75300232 
913.611 74399064 73913352 73849400 74188568 74883544 75863296 77023928 
916.986 78235632 79361864 80258576 80804960 80925944 80597512 79857616 
920.361 78793816 77536104 76224248 74986232 73928672 73116160 72576384 
923.736 72307000 72286808 72486592 72877240 73436064 74145768 74994936 
927.110 75977384 77092344 78345432 79748792 81322136 83091456 85085592 
930.485 87338072 89883920 92759664 96006232 99665928 103779560 108384832 
933.860 113507256 119152968 125298680 131888760 138825856 145964944 
936.753 153133936 160130816 166744896 172796496 178145248 182722064 
939.646 186541744 189710624 192415200 194877872 197341152 199997344 
942.538 202936960 206112272 209307584 212157472 214140016 214689040 
945.431 213280432 209504656 203199600 194476336 183727440 171535648 
948.324 158604384 145657712 133286504 121954224 111953688 103399808 96292752 
951.698 90541648 86009200 82527648 79920704 78020496 76657680 75681864 
955.073 74972416 74432840 74004888 73661672 73398200 73221840 73141880 
958.448 73164704 73291184 73518480 73841432 74253736 74746448 75306928 
961.823 75920672 76572344 77250056 77948408 78668224 79414376 80190744 
965.198 80997360 81828928 82678288 83539784 84413544 85306112 86228616 
968.573 87190864 88198888 89254264 90357488 91512688 92730936 94028072 
971.947 95419056 96909936 98491392 100138680 101816992 103495168 105152880 
975.322 106788608 108417752 110067504 111768200 113545680 115422736 
978.215 117419000 119553048 121846568 124323232 127013056 129962800 
981.108 133242056 136952656 141226768 146185584 151890736 158261504 
984.000 165027360 171670576 177452320 181593040 183375472 182388864 
986.893 178666096 172697360 165312240 157415904 149879408 143320416 
989.786 138050416 134132608 131430032 129713744 128726752 128259016 
992.678 128157216 128311232 128647568 129107904 129643056 130219904 
995.571 130820808 131442816 132089424 132759136 133437488 134100216 
998.464 134718576 135272272 135756544 136180640 136561056 136910096 
1001.356 137231648 137521568 137775680 137997664 138203360 138416288 
1004.249 138660848 138949984 139282512 139645584 140024336 140411328 
1007.142 140811920 141241024 141715344 142243600 142821056 143431456 
1010.035 144054112 144674848 145287920 145896048 146503504 147109248 
1012.927 147704544 148277040 148819504 149336688 149848384 150385584 
1015.820 150979104 151651392 152413824 153268880 154219792 155278944 
1018.713 156469744 157825072 159378544 161155856 163174864 165447920 
1021.605 167986032 170799232 173883744 177203120 180655568 184059584 
1024.498 187170352 189683696 191317040 191872560 191276688 189610976 
1027.391 187086176 184010784 180701888 177446688 174470624 171900240 
1030.284 169781568 168089568 166753648 165675968 164751808 163893872 
1033.177 163032912 162127392 161162160 160139616 159072912 157978096 
1036.070 156873312 155778768 154719008 153728560 152847648 152118464 
1038.963 151583040 151275376 151221680 151442576 151951104 152750592 
1041.856 153825536 155132720 156587920 158062112 159406192 160458672 
1044.750 161087728 161226304 160882704 160144992 159150768 158071168 
1047.643 157065600 156254800 155718528 155485312 155543424 155850480 
1050.536 156348016 156970416 157648400 158320896 158935488 159449040 
1053.429 159832448 160064704 160130864 160020928 159727952 159250624 
1056.322 158594400 157771744 156799248 155691984 154459568 153102880 
1059.215 151616496 149993408 148231920 146340384 144337488 142249472 
1062.108 140103648 137926640 135739728 133560720 131407160 129295424 
1065.001 127242224 125262424 123365472 121555528 119831776 118191128 
1067.894 116631240 115152344 113756992 112447616 111224144 110082824 
1070.787 109015912 108014536 107070672 106178560 105334344 104533792 
1073.680 103769880 103032488 102309160 101587672 100859688 100122616 
1076.573 99379632 98636992 97902560 97183992 96488008 95822960 95200064 
1079.948 94632848 94136824 93726096 93410200 93193120 93074216 93050160 
1083.324 93118192 93277440 93528592 93871760 94303568 94815824 95394168 
1086.699 96021648 96680040 97351664 98021928 98677912 99307784 99903360 
1090.074 100460384 100983000 101484152 101988056 102527616 103137760 
1092.967 103856744 104720440 105762248 107018904 108530376 110341152 
1095.860 112504928 115077840 118115104 121666272 125760096 130390760 
1098.753 135491920 140925904 146457136 151738800 156368544 159899856 
1101.646 161924288 162179184 160584832 157288848 152615024 147026320 
1104.540 141018848 135018624 129377888 124318432 119941304 116261472 
1107.433 113228112 110758456 108751016 107107256 105735784 104550440 
1110.326 103480496 102466368 101458784 100423096 99333224 98171968 96931304 
1113.701 95611488 94223296 92785496 91324888 89872104 88454224 87095336 
1117.076 85812056 84613552 83504728 82486648 81558344 80716720 79955312 
1120.451 79264056 78628712 78032832 77459744 76894024 76323656 75739368 
1123.827 75133928 74502144 73840376 73147912 72427672 71688144 70942464 
1127.202 70206160 69497504 68833824 68230256 67700808 67257656 66911148 
1130.577 66670940 66544636 66537724 66653824 66894984 67263920 67765720 
1133.952 68408672 69205656 70173096 71327736 72686240 74263136 76068960 
1137.328 78111040 80392248 82909856 85652288 88595232 91702368 94916776 
1140.703 98164328 101358136 104389408 107138936 109482424 111287024 
1143.596 112437224 112848520 112483296 111368928 109599296 107333872 
1146.489 104761640 102090568 99524392 97226016 95325952 93912064 93028776 
1149.864 92691200 92890584 93604792 94802712 96450848 98517752 100970288 
1153.240 103773800 106886792 110245304 113757464 117294480 120673440 
1156.133 123679568 126073928 127605944 128068480 127312304 125277056 
1159.026 122008240 117657960 112472344 106735808 100759432 94828808 89158560 
1162.401 83904608 79147000 74902016 71142648 67814560 64854144 62195020 
1165.776 59779180 57559072 55494736 53556648 51723048 49978968 48315964 
1169.151 46731028 45225428 43802644 42468792 41231776 40100920 39088348 
1172.527 38208216 37474864 36900608 36490624 36238536 36121136 36097660 
1175.902 36115484 36110404 36021224 35799996 35416352 34866352 34170412 
1179.277 33372812 32529924 31703282 30954032 30330266 29867546 29587210 
1182.652 29494676 29581108 29822510 30183194 30612970 31050860 31435258 
1186.028 31703352 31804058 31707526 31406156 30918342 30282196 29552804 
1189.403 28789122 28045442 27369264 26792174 26331234 25990830 25765048 
1192.778 25642114 25606790 25644224 25739806 25880210 26054436 26252664 
1196.153 26466902 26691216 26920794 27151584 27380664 27605274 27822760 
1199.529 28031056 28228034 28411656 28580104 28730954 28861814 28970006 
1202.904 29052934 29108380 29133960 29127088 29084428 29001816 28873854 
1206.279 28695912 28464190 28178002 27840174 27458204 27043314 26609022 
1209.654 26170696 25743180 25339198 24969596 24642390 24362808 24134126 
1213.030 23957272 23831278 23753542 23720402 23727892 23772722 23852104 
1216.405 23964624 24108940 24283858 24487766 24718390 24973808 25252520 
1219.780 25554074 25878734 26227744 26602224 27003046 27430214 27883666 
1223.155 28362914 28867374 29396670 29949900 30525944 31123542 31741530 
1226.531 32379322 33037462 33717620 34422808 35156264 35922096 36724360 
1229.906 37567236 38454752 39390124 40375152 41409536 42489144 43607452 
1233.281 44753696 45914244 47074168 48215652 49320352 50370712 51349700 
1236.656 52245124 53050928 53769040 54410368 54993296 55543836 56090396 
1240.031 56663960 57296764 58017960 58855312 59833704 60971904 62284084 
1243.407 63777840 65455472 67314872 69351712 71562448 73944504 76497688 
1246.782 79223344 82123256 85199064 88452520 91885264 95498688 99292200 
1250.157 103259496 107386272 111644520 115988440 120357096 124666504 
1253.050 128805368 132642064 136008224 138704848 140529776 141276496 
1255.943 140776368 138931056 135721568 131221336 125579264 119017768 
1258.836 111797472 104190696 96482624 88924072 81720816 75033408 68956304 
1262.212 63531892 58761260 54614796 51044788 47993120 45401816 43211696 
1265.587 41366164 39816768 38518652 37434052 36533080 35789668 35182496 
1268.962 34694264 34309376 34014508 33799276 33654388 33572512 33547886 
1272.337 33574660 33647836 33762420 33913432 34096972 34310128 34551412 
1275.713 34820828 35119728 35450112 35813776 36211416 36641256 37098872 
1279.088 37576336 38062576 38545700 39013560 39456924 39871644 40259568 
1282.463 40628776 40991528 41361972 41751672 42166328 42603748 43054708 
1285.838 43504816 43938676 44345408 44721408 45072784 45413180 45762496 
1289.214 46142420 46572396 47068928 47644812 48308484 49066240 49922020 
1292.589 50877044 51929764 53074028 54300156 55592716 56932988 58299728 
1295.964 59669340 61018956 62327492 63576764 64755248 65858736 66891356 
1299.339 67863368 68790736 69691416 70582008 71478648 72395968 73347432 
1302.715 74347120 75407944 76539416 77745856 79023216 80358360 81727456 
1306.090 83098104 84430368 85673520 86771072 87661576 88278464 88564072 
1309.465 88473520 87983664 87098776 85849520 84290664 82487536 80515144 
1312.840 78448624 76353448 74291128 72314984 70469520 68798464 67342496 
1316.216 66137956 65218152 64603312 64294448 64264832 64457156 64785676 
1319.591 65135764 65387672 65426508 65155440 64517156 63495068 62115924 
1322.966 60439464 58552252 56553964 54536728 52585844 50767128 49122000 
1326.341 47674248 46430556 45386104 44529184 43844284 43314920 42922392 
1329.717 42648816 42476940 42389696 42372492 42411652 42494116 42608316 
1333.092 42742620 42886548 43032024 43173596 43308988 43439224 43567488 
1336.467 43698572 43837832 43991656 44167836 44375572 44627248 44937132 
1339.842 45318540 45784000 46340192 46987032 47715220 48505580 49327964 
1343.218 50137772 50882148 51500612 51930136 52119728 52033512 51658816 
1346.593 51008044 50118360 49048876 47867728 46652036 45474876 44394180 
1349.968 43455192 42685004 42094440 41682736 41439792 41349840 41392624 
1353.343 41546788 41791800 42107876 42478072 42887244 43319788 43760388 
1356.719 44190980 44591120 44940256 45217484 45403508 45483632 45447576 
1360.094 45290440 45013940 44627728 44150852 43611188 43047392 42502480 
1363.469 42015156 41616248 41320868 41129956 41033256 41015304 41059512 
1366.844 41150460 41276556 41428492 41599040 41781912 41971360 42161180 
1370.219 42345604 42518120 42671736 42800208 42898472 42965408 43005976 
1373.595 43033268 43067512 43130740 43244600 43423408 43673104 43994036 
1376.970 44385300 44848836 45393976 46037304 46801732 47713372 48794436 
1380.345 50059052 51505724 53113080 54831504 56580308 58260812 59754804 
1383.720 60943272 61725744 62018068 61769248 60970912 59673220 57991188 
1387.096 56089040 54165380 52395748 50902824 49752036 48954292 48489424 
1390.471 48323704 48422856 48756400 49297708 50027708 50931068 51995644 
1393.846 53210972 54561972 56026156 57573448 59167656 60770672 62346884 
1397.221 63859284 65270864 66547684 67658264 68582824 69317000 69872080 
1400.597 70268872 70531608 70683992 70745840 70732424 70652648 70504440 
1403.972 70270856 69917928 69405040 68691992 67755536 66600060 65259352 
1407.347 63792652 62271424 60780888 59409364 58241000 57361608 56843848 
1410.722 56738032 57070248 57836948 59013144 60558600 62431464 64590624 
1414.098 66992016 69591576 72336232 75160832 78001816 80790904 83464208 
1417.473 85970184 88267576 90329904 92141504 93702752 95020936 96103776 
1420.848 96958520 97586888 97986256 98147672 98061120 97718944 97121624 
1424.223 96281752 95223048 93972160 92546344 90945456 89150384 87131736 
1427.599 84863328 82341488 79595616 76696424 73746040 70852976 68122136 
1430.974 65635644 63443840 61571004 60012364 58740856 57712916 56878104 
1434.349 56191904 55623556 55170164 54860528 54750576 54897448 55332684 
1437.724 56043424 56973560 58036292 59122208 60117416 60896532 61337972 
1441.100 61352780 60892452 59969260 58647508 57035976 55261444 53442940 
1444.475 51690800 50088092 48687936 47522628 46604264 45932916 45500152 
1447.850 45290184 45277200 45422668 45681472 46005512 46350036 46683836 
1451.225 46989872 47269264 47538780 47827404 48168632 48593544 49129824 
1454.601 49802012 50633748 51645232 52845696 54219096 55716252 57261340 
1457.976 58772264 60178572 61425792 62470296 63270204 63792156 64006740 
1461.351 63885040 63399324 62515900 61201384 59440024 57262512 54770908 
1464.726 52126644 49524664 47130080 45033856 43255212 41760792 40499560 
1468.102 39425208 38507792 37731068 37085740 36562128 36147532 35828348 
1471.477 35597504 35459744 35432280 35537736 35794420 36212424 36793344 
1474.852 37538296 38452688 39545248 40826528 42303744 43977096 45841584 
1478.227 47888256 50108320 52489852 55017180 57668904 60411284 63203780 
1481.603 66002704 68761736 71437712 73986416 76356608 78494032 80339296 
1484.978 81833336 82931720 83608544 83863048 83714720 83200632 82367480 
1488.353 81261320 79935912 78453544 76885200 75311504 73804824 72410096 
1491.728 71134456 69943648 68772496 67532744 66130744 64478948 62508896 
1495.104 60189836 57540196 54632532 51572504 48473124 45427084 42495208 
1498.479 39712556 37101000 34677324 32457292 30452296 28663630 27084714 
1501.854 25700784 24491026 23431482 22493250 21640650 20827820 20002354 
1505.229 19116884 18146078 17114462 16097566 15190436 14457158 13906608 
1508.604 13501486 13190556 12927533 12682648 12444073 12212785 11996880 
1511.980 11804200 11639716 11503193 11391883 11301855 11230071 11174345 
1515.355 11132563 11103194 11085995 11083683 11102276 11148473 11226739 
1518.730 11335762 11467402 11606772 11738494 11852753 11953283 12057344 
1522.105 12190226 12370839 12604019 12881283 13186662 13504972 13825294 
1525.481 14144688 14467811 14802625 15155642 15527490 15913026 16303720 
1528.856 16691221 17068522 17430834 17772912 18084966 18352134 18554450 
1532.231 18671418 18693382 18631330 18521532 18410760 18342422 18338100 
1535.606 18396066 18498228 18619398 18735690 18824814 18870354 18862532 
1538.982 18800006 18691930 18556732 18419644 18304542 18227272 18191128 
1542.357 18188122 18201978 18214454 18213208 18195932 18173232 18162624 
1545.732 18182560 18242406 18339484 18460922 18589380 18711922 18822946 
1549.107 18928494 19041962 19180010 19353436 19565026 19810806 20085458 
1552.483 20387266 20720490 21094978 21522082 22009904 22560324 23169002 
1555.858 23827812 24530922 25274818 26061368 26898372 27802482 28795918 
1559.233 29889696 31088516 32383606 33757840 35202184 36712928 38293324 
1562.608 39948068 41682844 43499068 45382868 47307540 49232540 51106840 
1565.984 52882220 54513060 55953600 57159848 58082648 58675120 58908472 
1569.359 58785996 58351308 57672880 56826248 55870124 54837560 53742264 
1572.734 52584048 51354060 50043364 48648240 47182492 45701496 44309556 
1576.109 43148524 42361784 42037896 42195684 42801376 43801396 45150164 
1579.485 46822912 48819832 51159768 53874656 57002388 60581764 64647876 
1582.860 69225048 74321168 79916560 85960328 92353424 98953176 105578576 
1586.235 111992320 117928048 123109352 127273080 130250840 132017616 
1589.128 132733088 132703808 132336200 132055256 132186888 132935272 
1592.021 134340720 136288240 138515424 140644928 142260144 142906032 
1594.914 142182080 139823264 135728400 130006600 122935840 114921056 
1597.807 106390760 97731640 89286576 81306912 73965992 67368496 61534584 
1601.183 56414380 51897872 47851852 44142488 40666068 37371608 34253404 
1604.558 31340410 28670602 26278466 24182922 22387112 20883236 19656608 
1607.933 18687468 17948472 17405554 17021172 16754029 16567765 16433708 
1611.308 16329763 16241631 16157160 16063562 15945164 15783124 15556405 
1614.684 15247125 14845138 14355739 13803129 13229906 12684286 12204129 
1618.059 11808625 11497953 11260640 11078312 10930956 10798425 10660910 
1621.434 10502188 10313359 10096123 9863134 9634029 9428070 9255717 9117132 
1625.292 9003286 8902219 8802528 8696472 8581451 8458859 8333195 8210234 
1629.149 8096692 7999380 7924225 7876311 7857552 7865886 7894599 7932290 
1633.006 7965024 7976835 7954090 7889031 7784041 7652771 7517731 7401977 
1636.864 7319445 7273080 7256807 7260748 7274260 7288276 7297745 7301990 
1640.721 7305192 7314424 7337406 7379329 7440300 7514528 7591467 7658066 
1644.579 7700390 7707676 7676074 7610248 7524002 7436660 7368814 7335418 
1648.436 7344315 7395574 7483649 7597367 7718300 7821858 7872903 7831540 
1652.293 7670341 7399180 7078745 6788601 6584794 6475376 6437609 6439728 
1656.151 6456778 6474334 6486777 6495858 6505612 6519705 6538373 6558421 
1660.008 6573895 6578638 6568108 6540256 6496296 6440602 6380074 6322748 
1663.866 6276759 6248421 6240421 6251581 6276288 6305333 6326715 6328060 
1667.723 6299585 6237060 6144229 6032638 5919093 5819715 5746078 5703406 
1671.581 5690112 5700015 5722778 5746179 5756252 5740438 5692797 5618142 
1675.438 5533632 5460882 5418607 5413206 5439207 5482827 5529437 5569172 
1679.295 5600084 5628816 5666210 5721737 5796377 5879662 5949122 5976668 
1683.153 5937097 5823073 5655300 5478263 5336853 5252969 5223155 5228286 
1687.010 5247032 5261755 5261822 5244149 5209909 5164037 5112537 5063357 
1690.868 5024908 5005065 5009154 5037210 5082465 5129670 5159142 5150625 
1694.725 5092992 4992999 4879290 4791707 4758509 4786381 4857577 4941352 
1698.583 5000473 5003121 4935520 4813484 4680664 4585386 4556958 4594729 
1702.440 4678252 4781255 4880999 4961929 5016193 5044551 5054977 5059804 
1706.297 5070296 5093863 5133056 5186570 5251225 5323470 5400692 5481182 
1710.155 5564407 5650198 5738322 5827943 5917581 6004988 6088077 6164897 
1714.012 6234001 6293298 6339525 6366086 6364002 6324967 6244992 6129745 
1717.870 5996085 5867403 5763236 5693905 5657817 5644155 5638248 5625459 
1721.727 5596156 5545780 5476149 5393143 5304955 5218292 5137348 5063592 
1725.584 4996987 4937163 4883311 4834559 4789295 4745679 4702904 4662712 
1729.442 4630193 4611741 4612444 4631968 4661975 4685186 4677650 4616965 
1733.299 4492373 4316579 4125603 3965439 3868680 3841001 3867243 3921404 
1737.157 3978212 4016468 4023792 3997741 3945811 3881618 3819808 3770707 
1741.014 3738020 3719706 3710917 3707308 3706071 3705904 3707007 3709580 
1744.872 3714593 3722580 3734611 3751088 3772244 3796944 3822582 3845647 
1748.729 3862061 3868079 3861560 3843541 3818170 3792900 3776957 3778461 
1752.586 3802159 3848154 3911641 3984466 4055129 4113628 4151963 4168455 
1756.444 4168388 4163169 4165678 4184312 4220813 4268861 4317885 4355266 
1760.301 4371164 4361626 4329497 4283986 4237208 4200404 4180097 4177788 
1764.159 4190669 4213753 4241089 4266519 4285257 4294694 4295965 4293957 
1768.016 4296300 4310020 4337696 4375716 4413371 4436769 4432149 4392451 
1771.874 4322068 4237308 4160493 4109648 4092723 4105533 4137411 4175915 
1775.731 4212516 4244502 4273880 4304097 4337696 4373507 4407480 4434191 
1779.588 4450560 4457256 4458796 4461608 4469809 4483736 4499571 4511423 
1783.446 4514570 4507606 4493545 4478346 4468704 4468202 4477710 4495386 
1787.303 4518353 4545072 4574571 4606182 4637661 4664219 4678386 4672826 
1791.161 4643153 4591816 4528498 4467600 4422944 4402861 4407949 4433154 
1795.018 4470981 4514737 4559838 4604206 4647273 4688367 4726585 4760552 
1798.875 4789262 4813417 4835563 4859621 4889644 4928416 4976777 5033824 
1802.733 5098189 5169335 5247133 5332929 5427599 5531182 5642074 5757628 
1806.590 5874624 5989669 6100207 6203884 6298811 6383167 6455904 6516240 
1810.448 6564576 6602186 6631355 6654165 6672099 6685154 6692490 6693196 
1814.305 6687005 6674791 6659112 6643365 6630278 6621429 6616215 6611740 
1818.163 6604407 6590782 6569050 6539819 6505040 6467977 6431556 6396987 
1822.020 6363766 6329170 6289869 6242303 6185533 6121445 6055585 5995883 
1825.877 5949324 5919496 5904583 5897932 5888562 5864380 5816559 5741915 
1829.735 5645599 5539270 5437765 5352720 5289157 5245456 5215476 5191935 
1833.592 5168698 5143115 5115354 5087159 5060374 5035467 5012037 4989245 
1837.450 4967593 4949362 4938503 4939341 4954757 4984485 5024875 5068922 
1841.307 5108246 5132989 5134833 5108279 5052697 4973995 4883914 4797671 
1845.165 4728093 4682406 4660770 4657856 4665023 4673965 4679960 4682305 
1849.022 4684448 4691415 4707426 4732916 4764505 4795728 4820151 4834257 
1852.879 4838311 4836099 4833419 4835463 4844576 4860961 4882473 4907505 
1856.737 4934917 4964644 4996451 5028998 5058798 5082264 5096546 5101474 
1860.594 5099999 5097887 5101172 5113744 5136677 5168228 5205047 5244685 
1864.452 5286406 5330413 5376571 5422432 5462224 5487659 5491048 5468566 
1868.309 5422667 5362884 5301668 5251258 5218527 5203672 5202599 5209976 
1872.167 5221411 5235396 5252633 5274332 5300594 5330312 5360603 5389051 
1876.024 5414313 5437161 5459171 5481652 5504537 5526081 5544606 5559339 
1879.881 5571757 5585618 5605320 5633850 5671749 5715727 5761053 5803362 
1883.739 5839596 5870358 5897966 5925710 5955303 5986645 6017552 6045002 
1887.596 6067211 6083742 6096847 6109616 6125747 6148061 6178509 6217934 
1891.454 6266169 6322109 6384109 6448841 6512305 6570901 6622439 6667624 
1895.311 6709617 6753364 6803510 6862583 6929642 7001325 7073795 7143784 
1899.168 7210516 7275372 7341214 7410505 7484188 7561695 7641508 7723427 
1903.026 7807959 7897704 7995735 8104997 8227489 8363797 8514238 8679198 
1906.883 8859439 9055994 9268376 9493969 9727066 9958864 10177930 10372164 
1910.741 10529718 10639246 10691337 10679689 10602202 10462169 10268709 
1914.116 10035864 9779760 9514696 9252637 8998889 8755093 8520793 8297832 
1917.973 8091628 7911606 7766331 7661337 7593793 7554783 7530171 7506336 
1921.831 7474547 7433188 7387553 7347078 7320793 7313683 7325174 7350784 
1925.688 7384755 7422975 7463019 7504651 7547365 7590523 7631829 7669397 
1929.546 7702043 7731049 7758269 7786065 7814402 7840953 7861331 7871925 
1933.403 7871419 7862410 7850332 7841425 7839738 7845575 7855528 7865279 
1937.260 7871621 7873814 7874490 7876480 7880596 7884848 7883937 7871655 
1941.118 7844562 7803438 7755166 7709058 7673680 7653614 7648522 7653614 
1944.975 7663832 7676176 7690745 7709429 7735164 7768018 7806272 7846013 
1948.833 7883026 7914440 7939748 7959591 7975081 7986521 7993676 7995330 
1952.690 7991955 7984665 7976026 7968196 7961312 7953077 7940187 7920041 
1956.548 7893014 7864536 7842943 7836601 7850939 7885253 7933371 7984935 
1960.405 8031343 8066413 8089704 8104051 8113706 8122416 8131059 8138047 
1964.262 8141828 8141052 8135583 8126062 8113808 8098177 8079206 8057941 
1968.120 8037351 8021690 8016796 8025571 8048590 8081164 8117622 8151754 
1971.977 8181297 8207870 8236572 8273820 8323940 8387983 8464603 8549854 
1975.835 8642152 8740149 8843681 8950889 9057685 9155607 9236492 9293696 
1979.692 9325415 9334724 9329206 9316985 9304596 9295659 9291360 9291428 
1983.550 9296573 9309233 9332254 9368309 9417235 9474734 9534577 9588670 
1987.407 9632098 9662385 9681968 9694911 9706092 9720120 9739230 9764409 
1991.264 9796942 9836663 9882726 9933879 9985241 10031558 10067298 10088256 
1995.122 10093037 10083270 10062347 10033660 9999074 9957711 9907234 9845475 
1998.979 9772948 9693454 9614448 9544771 9490075 9453907 9434097 9426377 
2002.837 9424549 9423465 9419605 9412393 9402032 9390079 9377958 9368546 
2006.694 9363366 9365669 9377112 9398070 9426749 9460104 9493868 9524586 
2010.552 9550055 9569802 9583690 9591989 9593649 9587857 9574545 9555170 
2014.409 9533019 9512833 9498507 9491666 9490379 9490820 9488280 9480660 
2018.266 9468434 9455262 9446322 9445577 9454788 9474022 9500472 9533154 
2022.124 9571530 9616887 9668585 9724355 9778201 9823343 9852389 9862693 
2025.981 9856050 9839746 9823241 9815039 9820936 9841577 9874794 9915606 
2029.839 9960119 10004465 10045291 10079404 10101516 10107282 10093105 
2033.214 10059973 10012434 9958593 9907098 9863405 9829138 9800567 9770474 
2037.071 9734589 9690777 9641143 9591650 9548294 9515407 9493461 9479813 
2040.929 9470128 9460612 9448659 9434910 9420485 9408092 9399221 9395395 
2044.786 9398037 9408092 9427664 9458343 9499456 9549954 9605946 9662656 
2048.644 9714461 9755665 9780573 9784843 9765832 9723338 9660081 9582674 
2052.501 9499523 9421061 9356731 9311874 9287602 9280664 9284421 9292680 
2056.358 9301244 9309437 9317663 9327751 9339227 9349113 9353954 9350433 
2060.216 9337941 9319356 9300026 9286418 9282017 9287670 9299451 9311738 
2064.073 9317290 9311738 9292342 9260117 9217674 9169414 9119298 9072063 
2067.931 9031567 9001392 8983057 8976833 8979674 8987150 8994423 8997772 
2071.788 8996250 8991716 8987421 8986373 8989857 8997163 9005485 9012386 
2075.646 9016378 9018137 9020234 9024869 9033867 9046961 9062354 9077985 
2079.503 9092669 9106508 9120415 9134931 9150057 9163796 9173204 9176351 
2083.360 9172595 9163762 9153001 9143594 9137435 9134221 9132156 9127994 
2087.218 9120482 9109519 9097304 9086681 9080150 9078797 9081977 9087966 
2091.075 9095511 9104951 9117843 9136521 9163390 9199635 9245055 9298672 
2094.933 9358863 9424007 9493156 9564857 9638094 9711276 9783555 9854287 
2098.790 9924794 9997176 10074081 10157783 10249100 10347256 10450901 
2102.165 10558541 10669875 10785552 10907171 11035215 11168974 11305629 
2105.541 11440083 11566515 11680218 11777031 11854830 11913607 11954543 
2108.916 11979373 11990544 11990204 11981110 11964898 11943304 11916195 
2112.291 11883366 11842402 11791875 11730868 11660068 11581419 11497851 
2115.666 11411543 11323212 11232587 11138003 11038478 10934320 10827571 
2119.042 10721630 10619654 10523540 10433353 10347053 10262636 10178574 
2122.417 10095479 10015926 9942862 9878827 9824122 9777320 9735334 9695351 
2126.274 9655542 9615634 9576848 9540572 9508159 9480490 9457429 9438736 
2130.132 9425023 9416659 9414188 9418285 9429256 9446966 9472499 9506872 
2133.989 9551850 9608520 9676412 9751769 9829341 9902013 9964153 10011925 
2137.846 10045256 10065467 10075844 10079676 10078489 10073741 10066383 
2141.222 10058346 10053259 10055361 10069028 10096768 10139298 10193737 
2144.597 10256258 10321604 10385500 10444350 10496078 10539190 10574124 
2147.972 10602337 10626785 10650350 10676327 10704208 10731650 10753624 
2151.347 10764357 10758922 10737423 10703597 10666004 10633372 10614086 
2154.723 10611947 10627192 10657039 10700269 10757768 10834604 10936427 
2158.098 11066620 11220550 11387461 11550318 11691893 11799195 11866987 
2161.473 11896545 11895217 11872333 11837874 11799740 11764469 11736248 
2164.848 11718240 11711397 11714359 11723040 11731175 11732196 11719976 
2168.224 11691723 11647714 11590404 11524832 11454950 11384331 11315798 
2171.599 11251935 11194812 11147521 11112814 11091603 11082935 11084124 
2174.974 11090447 11096293 11098435 11093744 11081643 11062269 11037016 
2178.349 11007143 10975131 10943936 10917229 10898678 10890421 10892052 
2181.725 10900648 10911011 10917909 10917637 10909176 10892868 10871124 
2185.100 10845542 10817109 10785382 10749446 10709540 10667090 10624747 
2188.475 10585226 10549578 10518176 10488475 10459148 10429213 10399924 
2191.850 10374065 10355027 10344101 10341624 10345458 10353093 10362900 
2195.226 10375625 10392118 10413974 10440752 10468889 10492718 10506975 
2198.601 10507484 10494381 10471809 10446589 10426396 10416384 10418624 
2201.976 10430672 10449101 10468856 10486268 10499710 10508603 10514408 
2205.351 10519093 10526120 10538918 10562140 10599554 10653405 10723872 
2208.727 10807971 10900852 10997287 11092860 11185123 11274751 11363379 
2212.102 11453182 11544941 11637334 11727396 11810873 11884252 11944155 
2215.477 11989216 12018783 12033192 12034044 12023824 12005498 11983392 
2218.852 11961593 11942521 11926786 11912960 11897396 11875227 11843287 
2222.228 11799297 11743397 11677530 11604016 11524764 11440935 11352835 
2225.603 11261796 11169517 11079638 10995962 10922087 10859879 10809194 
2228.978 10767856 10732499 10699352 10665596 10629060 10588282 10542992 
2232.353 10493294 10439971 10385263 10332225 10285096 10247166 10221621 
2235.729 10208629 10207306 10214531 10227286 10241603 10255308 10265656 
2239.104 10271356 10271491 10266063 10255919 10243807 10232206 10224403 
2242.479 10222333 10225963 10232985 10239771 10242450 10238346 10227082 
2245.854 10210935 10193432 10178981 10170129 10168297 10172503 10180983 
2249.229 10190990 10201165 10209782 10216668 10221926 10226506 10231324 
2252.605 10238481 10249846 10267521 10292729 10325065 10362696 10402265 
2255.980 10439394 10470416 10492751 10505854 10510708 10509350 10504564 
2259.355 10498183 10492072 10487150 10484062 10483519 10485590 10490444 
2262.730 10497945 10507823 10519161 10531382 10544180 10557183 10570185 
2266.106 10583188 10596260 10609230 10622473 10635884 10649908 10664442 
2269.481 10679112 10692560 10703733 10710525 10711204 10705159 10692152 
2272.856 10672660 10648550 10621216 10593001 10565602 10540548 10519262 
2276.231 10502426 10489968 10481109 10474863 10469602 10463662 10456637 
2279.607 10448185 10438919 10429246 10419811 10410546 10401587 10392695 
2282.982 10384042 10376372 10370501 10366497 10364597 10363748 10362798 
2286.357 10360423 10356283 10350446 10344203 10338909 10335380 10333718 
2289.732 10333582 10333751 10333344 10332360 10331546 10332428 10336194 
2293.108 10343389 10353840 10366226 10379019 10390421 10399992 10407254 
2296.483 10412685 10417096 10421474 10426600 10433421 10442279 10453582 
2299.858 10467532 10483621 10500899 10518143 10534403 10549103 10562818 
2303.233 10576806 10593238 10614187 10641114 10674086 10712631 10755016 
2306.609 10799139 10843096 10884952 10923311 10957290 10986378 11010542 
2309.984 11029913 11045241 11057137 11066076 11072636 11076987 11079366 
2313.359 11080522 11081643 11085144 11093608 11110094 11136848 11174923 
2316.734 11223576 11280702 11343516 11408618 11473083 11535108 11593500 
2320.110 11647986 11698599 11745507 11787926 11824628 11853605 11872673 
2323.485 11880097 11875194 11858338 11832187 11800488 11767874 11739209 
2326.860 11718512 11707789 11707653 11716333 11731413 11750001 11769949 
2330.235 11789764 11809205 11828306 11847272 11865829 11884013 11901448 
2333.611 11918545 11936015 11955190 11976955 12002228 12030127 12059525 
2336.986 12088108 12114137 12135910 12153015 12165656 12174959 12181945 
2340.361 12188044 12193940 12200040 12205084 12206855 12201676 12184398 
2343.736 12149199 12092060 12011970 11912278 11802191 11695501 11607623 
2347.112 11552495 11540825 11577166 11660648 11785338 11942146 12119351 
2350.487 12304127 12485435 12654163 12805176 12937159 13052623 13155685 
2353.862 13250504 13340492 13427286 13510543 13589646 13663257 13730519 
2357.237 13790678 13843525 13888407 13924639 13951942 13970077 13979931 
2360.613 13982874 13980786 13975962 13970624 13966245 13964054 13964671 
2363.988 13967682 13972095 13976270 13977502 13972986 13960222 13937161 
2367.363 13902401 13856388 13800154 13735752 13665821 13592961 13519363 
2370.738 13446937 13376027 13306872 13238377 13169550 13098618 13024829 
2374.114 12947776 12868416 12788011 12709021 12632978 12561452 12494778 
2377.489 12432685 12374282 12318750 12265304 12213978 12165077 12119351 
2380.864 12077785 12041606 12011630 11989148 11975388 11971198 11977193 
2384.239 11993236 12018204 12049918 12085996 12123883 12161636 12198438 
2387.615 12234392 12270247 12307195 12346191 12387817 12432378 12479740 
2390.990 12530177 12583758 12640893 12701686 12766104 12833331 12902171 
2394.365 12971160 13038590 13102955 13163095 13218496 13268848 13314457 
2397.740 13356483 13395916 13434121 13472331 13511091 13550469 13589953 
2401.115 13628381 13664590 13697622 13726826 13752305 13774432 13794133 
2404.491 13812295 13830322 13848862 13868839 13890836 13914888 13940788 
2407.866 13968263 13996493 14025375 14055457 14087252 14122061 14161222 
2411.241 14205350 14254344 14307863 14364575 14423451 14483775 14545341 
2414.616 14608388 14673501 14740955 14810888 14883507 14958915 15037458 
2417.992 15119961 15207387 15300252 15398631 15501839 15608437 15716882 
2421.367 15826076 15935333 16044926 16155750 16268838 16384950 16504740 
2424.742 16627904 16754236 16883222 17014350 17147308 17282516 17420350 
2428.117 17561956 17708956 17863290 18027352 18203394 18393164 18597954 
2431.493 18818068 19053488 19303552 19568074 19846702 20139666 20447244 
2434.868 20769774 21107118 21458962 21823776 22198974 22581858 22967004 
2438.243 23348644 23720334 24074336 24403218 24700152 24958752 25173792 
2441.618 25341446 25459060 25525366 25541248 25509376 25433660 25320020 
2444.994 25174706 25004132 24814716 24611952 24399958 24182886 23963854 
2448.369 23745564 23530672 23321688 23120528 22928858 22748096 22578892 
2451.744 22421930 22277964 22148028 22033260 21934794 21853426 21789702 
2455.119 21743264 21713932 21700942 21704250 21723548 21758836 21810014 
2458.495 21876494 21956752 22049050 22151306 22261362 22377832 22499740 
2461.870 22626850 22759794 22899378 23047008 23204582 23373854 23556766 
2465.245 23755538 23971872 24206672 24460388 24732492 25021472 25325920 
2468.620 25644012 25974684 26317082 26671486 27038096 27417226 27809016 
2471.996 28213182 28629192 29056794 29495812 29946668 30410360 30888210 
2475.371 31381652 31892128 32420374 32967892 33535000 34122420 34729580 
2478.746 35355064 35995232 36643708 37292460 37930868 38546608 39127684 
2482.121 39659768 40128284 40518548 40814116 40999316 41060900 40988104 
2485.497 40775316 40422460 39934628 39320944 38593756 37768368 36860532 
2488.872 35887796 34869224 33822988 32767896 31721748 30699694 29715168 
2492.247 28779350 27899952 27082388 26329686 25642010 25017960 24454428 
2495.622 23947574 23493316 23087716 22727634 22410522 22134536 21897750 
2498.998 21697738 21531728 21395226 21282952 21189426 21109378 21037902 
2502.373 20972038 20910006 20851182 20796050 20745166 20698770 20656688 
2505.748 20617598 20579832 20541270 20499862 20453806 20402232 20345040 
2509.123 20282960 20217486 20150044 20082266 20015192 19949236 19884682 
2512.499 19821314 19758822 19697172 19636154 19576498 19518270 19462234 
2515.874 19409426 19360018 19314672 19273660 19236598 19202728 19171214 
2519.249 19140672 19109992 19078278 19045352 19011566 18977608 18944380 
2522.624 18912990 18883504 18856166 18830420 18806026 18782014 18758212 
2526.000 18734270 18710506 18687260 18665296 18645268 18627664 18613000 
2529.375 18601276 18592008 18584814 18579384 18575718 18574230 18576306 
2532.750 18582982 18595222 18612964 18634858 18659380 18684042 18707080 
2536.125 18727906 18746898 18765616 18785648 18808690 18834850 18863396 
2539.500 18892952 18921504 18947600 18970478 18990000 19006442 19020428 
2542.876 19032094 19041580 19049230 19055636 19061278 19067510 19074990 
2546.251 19084198 19095208 19107154 19119446 19131564 19143648 19156184 
2549.626 19170452 19187524 19208198 19232824 19261260 19292780 19326624 
2553.001 19361996 19398164 19434720 19470966 19506660 19541838 19577122 
2556.377 19613170 19651720 19693982 19740860 19792496 19848470 19907088 
2559.752 19966688 20025530 20082820 20138244 20193084 20248382 20305734 
2563.127 20366500 20430746 20498232 20567812 20637786 20706832 20773978 
2566.502 20838772 20901766 20964212 21027294 21092162 21159818 21230516 
2569.878 21303866 21379528 21456318 21533330 21609832 21685510 21760090 
2573.253 21834436 21909042 21985260 22064144 22146704 22233602 22324740 
2576.628 22419628 22517574 22617878 22720478 22825790 22934726 23048476 
2580.003 23167952 23293718 23425852 23563692 23706860 23855010 24007904 
2583.379 24166352 24331234 24503122 24683246 24872358 25070646 25278824 
2586.754 25497430 25727360 25969512 26224894 26493880 26776632 27071984 
2590.129 27378194 27692460 28011194 28330410 28645614 28953006 29248600 
2593.504 29528686 29790074 30029178 30242336 30426424 30578164 30695536 
2596.880 30778078 30826632 30843670 30832678 30797428 30741660 30668260 
2600.255 30579480 30476856 30361358 30234024 30095508 29947414 29791138 
2603.630 29628710 29462158 29293686 29124784 28957044 28791386 28628484 
2607.005 28468860 28313646 28163650 28020206 27884548 27757198 27638218 
2610.381 27527002 27422308 27323144 27228800 27139132 27054704 26976214 
2613.756 26904258 26838908 26779698 26726098 26677652 26634844 26598734 
2617.131 26571258 26554316 26549528 26557240 26577072 26607612 26647422 
2620.506 26695478 26751824 26817196 26893330 26981748 27083798 27199910 
2623.882 27329920 27472958 27627802 27793262 27967938 28150816 28340702 
2627.257 28536086 28735840 28938096 29140906 29342216 29539538 29730460 
2630.632 29912520 30083646 30241804 30385626 30513502 30624170 30715770 
2634.007 30786224 30833284 30854876 30849860 30817702 30759122 30675942 
2637.383 30570130 30444300 30301098 30143024 29973116 29794544 29610372 
2640.758 29424218 29239210 29058354 28883804 28717396 28560288 28413462 
2644.133 28277928 28154456 28044098 27947160 27864304 27795382 27740562 
2647.508 27699806 27673178 27660958 27663184 27679464 27709092 27750592 
2650.884 27802306 27862360 27929316 28002040 28079762 28162236 28248860 
2654.259 28338934 28431220 28524372 28616664 28706884 28794256 28878494 
2657.634 28960232 29040392 29120460 29201608 29285144 29371710 29461734 
2661.009 29555322 29652052 29751998 29854948 29961152 30071218 30185540 
2664.385 30304900 30429692 30559998 30695748 30836842 30982890 31133294 
2667.760 31288132 31446762 31609088 31774718 31943370 32114696 32288690 
2671.135 32465578 32645430 32828682 33015796 33206786 33402224 33602048 
2674.510 33806116 34014436 34226800 34442716 34661824 34883696 35107804 
2677.885 35333856 35561504 35790312 36019388 36247684 36473868 36696380 
2681.261 36914496 37127816 37336800 37542956 37747552 37952128 38157784 
2684.636 38364728 38572712 38781308 38990396 39200060 39411312 39625536 
2688.011 39844116 40068104 40298396 40534992 40777828 41026884 41281948 
2691.386 41543800 41813288 42091632 42380016 42679228 42989768 43311296 
2694.762 43642660 43982708 44329812 44682668 45040216 45401848 45767356 
2698.137 46136380 46508736 46884256 47262132 47641816 48022948 48404704 
2701.512 48787024 49169416 49551480 49932652 50311928 50688704 51062044 
2704.887 51431340 51795612 52154324 52506416 52850676 53185840 53510884 
2708.263 53824732 54127024 54417616 54696532 54963740 55219300 55462508 
2711.638 55693196 55911048 56116076 56308068 56487016 56652560 56803888 
2715.013 56939752 57058648 57158944 57239376 57298656 57335856 57350112 
2718.388 57340512 57306176 57246256 57159848 57046100 56904280 56733996 
2721.764 56534832 56307012 56051192 55768652 55461308 55131564 54781964 
2725.139 54414876 54033128 53639344 53236964 52829864 52422664 52020440 
2728.514 51628100 51249804 50888928 50547896 50227968 49930236 49655700 
2731.889 49405064 49179176 48978916 48804744 48656764 48534480 48436820 
2735.265 48362776 48310260 48277564 48261976 48261676 48274044 48297300 
2738.640 48330704 48373372 48424928 48485424 48554188 48630860 48714920 
2742.015 48806484 48906156 49015640 49137396 49273696 49426636 49597608 
2745.390 49786520 49992612 50214352 50450048 50698160 50957704 51227208 
2748.766 51505984 51792512 52085808 52384908 52689116 52998216 53311916 
2752.141 53630344 53952720 54277888 54604356 54929896 55252112 55568952 
2755.516 55878224 56177648 56465432 56739472 56998040 57240168 57465152 
2758.891 57672956 57864200 58039284 58198640 58343120 58473736 58592336 
2762.267 58701636 58805152 58906916 59009728 59115832 59224804 59334984 
2765.642 59442572 59542736 59630000 59698728 59743704 59760316 59744844 
2769.017 59694696 59609132 59488660 59335136 59151368 58940692 58705576 
2772.392 58448908 58172652 57878816 57570008 57248944 56918784 56583292 
2775.768 56246172 55910632 55579988 55256888 54943396 54641816 54353848 
2779.143 54080784 53824208 53584984 53363804 53161276 52977140 52810636 
2782.518 52660276 52523804 52398740 52282456 52172408 52066684 51963224 
2785.893 51860236 51755112 51644636 51525196 51392700 51243504 51075160 
2789.269 50886320 50677312 50448744 50202416 49939268 49660716 49367608 
2792.644 49061228 48743464 48416484 48082976 47745584 47406936 47068520 
2796.019 46731580 46396672 46063940 45733560 45405748 45080980 44760568 
2799.394 44445964 44139152 43842012 43556276 43283036 43022696 42775016 
2802.770 42538952 42313572 42098604 41894396 41701884 41523016 41359568 
2806.145 41212904 41083772 40971788 40875996 40795300 40728260 40673784 
2809.520 40631468 40601160 40582680 40576204 40582136 40600216 40630920 
2812.895 40673784 40728116 40793224 40867664 40949760 41037556 41129664 
2816.271 41224380 41320356 41416720 41512408 41606768 41699660 41791108 
2819.646 41881844 41972676 42064872 42159388 42256852 42357732 42462548 
2823.021 42571988 42687452 42810920 42944884 43091772 43253712 43432232 
2826.396 43628152 43842520 44075884 44329628 44605108 44904060 45226824 
2829.771 45573048 45940392 46324712 46719848 47118816 47513092 47893512 
2833.147 48251384 48577940 48865812 49109680 49306620 49456008 49559576 
2836.522 49621380 49645560 49636872 49600244 49540000 49461092 49368796 
2839.897 49268836 49167264 49070652 48984112 48912868 48861252 48832588 
2843.272 48830364 48857912 48918764 49016012 49152648 49330116 49547988 
2846.648 49803500 50090660 50400184 50720096 51035992 51331540 51592056 
2850.023 51804720 51960460 52055812 52092236 52076544 52018684 51931148 
2853.398 51827680 51721032 51622992 51543812 51490984 51470692 51486252 
2856.773 51539596 51631016 51759664 51923676 52120776 52348052 52602304 
2860.149 52879900 53176476 53488136 53810296 54139032 54469936 54798576 
2863.524 55120428 55430284 55722808 55993216 56236892 56450752 56632400 
2866.899 56780856 56895708 56977260 57026264 57044552 57034764 57000684 
2870.274 56947644 56880748 56805932 56727576 56649312 56574084 56504260 
2873.650 56442604 56392344 56357448 56341756 56349148 56382272 56442788 
2877.025 56531020 56646820 56788824 56955692 57145336 57355292 57582416 
2880.400 57823468 58074920 58333912 58598212 58866504 59137660 59411456 
2883.775 59687324 59964656 60243200 60522488 60802192 61082564 61363392 
2887.151 61644624 61925852 62206380 62485444 62762580 63037560 63310488 
2890.526 63581600 63850992 64118788 64385020 64649836 64913012 65173916 
2893.901 65431708 65683828 65927064 66157484 66371688 66566648 66741256 
2897.276 66895880 67032032 67151056 67254016 67340096 67408352 67456728 
2900.652 67483824 67489352 67474384 67440552 67390320 67326168 67250184 
2904.027 67164824 67072512 66975892 66878216 66782296 66690296 66604116 
2907.402 66524476 66452192 66388132 66333896 66291436 66263100 66250988 
2910.777 66256388 66279240 66318184 66370144 66430836 66494160 66553132 
2914.153 66599636 66625356 66623076 66586964 66514088 66404388 66260672 
2917.528 66087260 65889508 65672376 65439828 65193936 64935132 64662488 
2920.903 64373568 64065216 63734480 63379264 62999136 62596148 62174376 
2924.278 61740104 61300004 60861156 60428840 60006884 59597308 59200732 
2927.654 58817104 58445648 58085300 57734792 57392728 57057436 56728180 
2931.029 56404604 56087420 55778260 55479336 55192248 54918128 54657108 
2934.404 54408188 54170336 53942220 53722956 53511820 53308244 53111096 
2937.779 52919048 52730452 52543960 52358780 52175060 51993624 51815584 
2941.155 51642172 51473900 51311140 51153768 51001708 50855068 50714208 
2944.530 50579392 50450048 50325392 50203452 50082032 49959452 49834828 
2947.905 49708232 49581268 49456044 49335124 49220960 49115804 49021500 
2951.280 48939792 48872448 48821204 48788096 48775604 48786096 48821612 
2954.656 48883908 48973132 49087496 49222852 49372508 49527264 49675836 
2958.031 49807256 49911240 49979640 50007632 49993428 49938564 49846644 
2961.406 49723764 49577032 49413864 49242152 49069688 48902928 48747948 
2964.781 48609776 48491908 48397224 48327596 48283672 48264972 48269568 
2968.156 48294004 48332776 48379960 48428488 48471236 48502580 48517436 
2971.532 48512100 48484460 48433228 48358256 48260384 48141796 48005072 
2974.907 47854036 47692220 47523364 47350292 47175068 46998400 46820700 
2978.282 46641412 46459840 46275576 46088368 45898260 45706064 45512660 
2981.657 45319788 45129688 44945068 44768720 44603788 44453088 44318472 
2985.033 44201068 44100896 44016884 43947072 43889804 43842960 43805872 
2988.408 43778564 43761852 43757344 43766800 43791648 43833136 43892044 
2991.783 43969144 44065544 44183132 44324344 44491848 44687588 44911812 
2995.158 45161636 45430508 45707460 45977004 46222096 46422964 46561588 
2998.534 46624476 46603340 46498484 46318628 46081552 45810436 45532056 
3001.909 45274812 45063260 44917176 44849868 44866288 44963112 45128328 
3005.284 45343108 45581952 45814964 46013028 46148020 46198472 46152004 
3008.659 46005920 45766768 45448828 45071900 44656960 44223628 43789928 
3012.035 43369800 42973236 42607624 42277120 41983512 41726612 41504788 
3015.410 41315184 41154364 41018836 40905380 40810624 40732080 40666980 
3018.785 40612768 40567364 40528660 40495268 40466208 40440824 40418604 
3022.160 40399364 40382640 40367840 40354604 40343004 40333008 40325084 
3025.536 40319664 40316464 40315520 40316140 40317336 40318428 40318900 
3028.911 40318172 40316284 40313336 40309372 40304756 40299668 40294252 
3032.286 40288396 40281564 40273456 40263132 40249936 40233212 40213004 
3035.661 40189524 40163284 40134464 40103572 40070212 40034204 39995296 
3039.037 39953660 39909816 39864816 39819564 39774572 39730164 39686488 
3042.412 39643432 39601616 39561908 39525472 39493824 39467808 39447708 
3045.787 39433484 39424628 39420456 39420856 39425828 39435404 39449444 
3049.162 39467480 39488492 39512080 39538536 39568768 39605208 39650436 
3052.538 39706164 39773300 39851196 39937968 40031552 40130464 40234412 
3055.913 40344860 40463916 40593884 40735976 40889940 41053032 41220848 
3059.288 41387304 41545036 41685400 41799424 41877212 41908700 41885348 
3062.663 41800448 41650384 41435672 41161316 40836284 40472064 40082496 
3066.039 39681296 39280828 38892148 38523724 38181152 37868500 37587176 
3069.414 37337448 37118252 36927520 36762832 36621176 36499488 36394808 
3072.789 36304240 36225680 36157432 36099028 36050280 36011328 35981880 
3076.164 35961184 35947180 35937284 35928032 35916228 35899384 35876352 
3079.540 35847200 35813776 35778084 35743216 35711740 35685480 35665876 
3082.915 35653324 35647640 35648108 35653608 35663072 35674760 35686992 
3086.290 35696848 35700696 35694548 35673752 35633720 35571284 35484912 
3089.665 35375012 35244444 35097816 34940680 34778576 34616680 34458788 
3093.041 34307832 34165572 34033000 33910888 33799348 33698140 33606700 
3096.416 33523868 33448138 33377748 33310846 33245630 33180676 33114694 
3099.791 33046902 32976974 32904874 32830752 32755036 32678224 32600958 
3103.166 32523104 32445188 32366936 32288514 32210250 32132498 32055474 
3106.542 31979252 31903218 31826876 31749088 31669422 31587492 31504012 
3109.917 31419870 31336206 31254124 31174090 31095882 31019008 30942786 
3113.292 30866616 30790456 30714382 30638640 30563554 30489048 30414944 
3116.667 30341318 30268270 30196158 30125622 30056766 29989200 29921962 
3120.042 29853670 29782550 29707434 29628142 29545462 29460812 29376568 
3123.418 29294254 29215216 29139454 29066856 28996324 28927292 28859266 
3126.793 28792556 28727664 28665434 28606294 28550558 28497766 28447102 
3130.168 28397224 28347138 28295610 28242530 28187690 28131654 28075520 
3133.543 28020242 27966314 27914334 27864092 27815022 27766840 27719264 
3136.919 27672294 27626318 27581688 27538686 27497066 27456228 27415144 
3140.294 27372900 27328790 27282286 27233776 27184072 27133772 27084116 
3143.669 27035662 26988554 26942862 26898480 26854980 26812544 26771240 
3147.044 26731208 26693084 26656934 26623254 26591832 26562206 26533606 
3150.420 26504796 26474862 26442462 26407178 26368942 26328596 26287442 
3153.795 26247138 26208950 26173898 26142120 26112878 26085116 26057284 
3157.170 26028436 25997934 25966278 25934128 25902684 25873038 25845922 
3160.545 25821412 25799402 25779324 25761006 25744446 25730382 25719204 
3163.921 25711996 25708902 25709956 25714670 25722368 25732386 25744060 
3167.296 25757596 25773734 25793740 25819092 25851162 25891710 25941900 
3170.671 26002544 26074244 26157356 26251644 26357216 26473946 26602012 
3174.046 26742096 26895060 27061934 27244112 27442744 27658592 27892110 
3177.422 28143356 28411302 28694600 28990694 29296452 29607426 29918980 
3180.797 30225428 30520790 30799776 31057052 31287666 31487696 31653848 
3184.172 31783524 31875830 31930998 31950862 31939022 31899686 31837538 
3187.547 31757038 31662476 31557418 31445090 31328938 31211792 31096560 
3190.923 30985878 30880916 30782312 30689098 30599922 30512400 30424754 
3194.298 30335028 30241734 30143948 30040930 29932470 29818888 29701438 
3197.673 29582064 29463436 29348418 29239528 29138992 29047726 28965862 
3201.048 28893012 28828176 28770252 28718424 28671558 28628696 28588918 
3204.424 28551300 28515244 28480676 28448058 28418096 28391812 28370164 
3207.799 28353894 28343320 28338508 28339110 28344628 28354532 28368042 
3211.174 28384738 28403840 28424922 28447988 28472928 28500172 28529894 
3214.549 28562482 28597800 28635350 28674638 28715096 28756196 28797796 
3217.925 28839612 28881858 28924424 28967386 29010528 29054420 29099238 
3221.300 29145796 29195052 29247822 29304390 29364940 29428580 29493648 
3224.675 29558408 29621012 29679370 29732766 29780846 29824780 29866518 
3228.050 29908544 29953734 30004146 30060706 30123208 30189978 30259104 
3231.426 30328348 30396500 30463278 30529356 30595976 30664384 30735152 
3234.801 30808526 30883798 30960258 31037016 31113680 31190322 31267192 
3238.176 31344182 31421830 31500306 31580224 31661690 31745308 31831012 
3241.551 31918086 32005466 32091506 32175206 32256104 32334662 32412700 
3244.927 32492180 32575208 32663006 32755394 32851550 32949842 33048618 
3248.302 33146772 33244200 33340826 33436972 33532850 33628360 33723424 
3251.677 33818652 33914760 34013220 34115788 34223644 34337276 34455916 
3255.052 34577528 34699864 34820108 34936228 35047128 35152708 35253892 
3258.427 35351900 35448312 35544312 35640952 35739260 35839144 35940920 
3261.803 36044052 36147640 36250424 36351216 36448712 36542272 36631808 
3265.178 36717584 36800664 36882216 36963020 37043480 37123304 37201704 
3268.553 37277728 37350628 37420108 37486316 37550036 37612288 37673392 
3271.928 37734068 37793708 37851616 37907220 37960340 38010748 38059068 
3275.304 38105728 38150944 38194612 38236440 38275772 38312104 38345436 
3278.679 38376168 38404724 38432344 38459748 38487840 38517060 38547404 
3282.054 38579160 38611968 38645396 38678684 38711028 38741492 38769568 
3285.429 38794964 38818116 38839348 38859784 38879568 38899248 38918056 
3288.805 38935560 38951036 38963648 38973324 38979852 38983764 38985720 
3292.180 38986664 38988044 38990940 38996848 39006780 39021280 39039876 
3295.555 39061336 39083816 39104916 39122828 39136168 39144072 39146792 
3298.930 39144908 39139140 39130476 39120108 39108540 39097156 39086824 
3302.306 39078484 39072940 39070472 39070908 39073628 39077940 39083380 
3305.681 39089472 39096032 39103140 39111368 39121012 39132980 39147808 
3309.056 39165904 39187444 39212320 39239444 39268132 39297040 39325588 
3312.431 39353412 39381056 39409464 39440012 39473468 39510772 39551528 
3315.807 39595264 39640528 39686524 39732160 39777548 39822688 39868632 
3319.182 39916608 39968192 40024504 40085948 40152088 40221800 40293016 
3322.557 40363768 40432240 40497636 40560236 40620772 40680408 40739944 
3325.932 40799484 40858380 40915424 40969276 41019236 41065232 41107592 
3329.308 41146932 41183652 41217716 41248752 41276520 41300972 41322140 
3332.683 41340728 41356616 41369700 41378992 41383000 41380996 41371960 
3336.058 41356652 41336172 41312268 41285884 41257388 41226056 41190280 
3339.433 41148640 41100232 41044908 40983732 40918704 40851248 40783252 
3342.809 40715560 40648060 40580316 40511128 40438752 40361876 40279128 
3346.184 40189632 40093288 39990828 39883992 39774936 39665612 39558276 
3349.559 39453984 39352940 39254604 39158068 39061988 38965244 38866744 
3352.934 38765436 38661404 38554320 38444832 38334292 38223920 38115024 
3356.310 38008324 37903676 37800720 37698108 37595196 37491372 37386956 
3359.685 37282892 37180008 37079204 36980300 36882972 36785948 36688736 
3363.060 36590860 36492604 36394808 36298076 36203312 36110368 36018668 
3366.435 35928032 35837308 35746456 35655408 35564312 35473480 35382992 
3369.811 35292780 35202400 35111824 35021088 34930444 34840468 34751836 
3373.186 34664800 34579792 34496988 34416172 34337488 34260360 34184644 
3376.561 34109944 34036260 33963232 33890688 33818720 33747236 33676012 
3379.936 33604552 33532746 33459730 33385440 33309772 33232968 33155642 
3383.312 33078474 33002142 32926678 32852732 32780260 32709554 32641142 
3386.687 32575350 32512714 32453510 32397668 32344550 32293082 32241796 
3390.062 32189086 32133638 32074240 32010886 31943944 31875048 31806018 
3393.437 31739072 31675376 31615466 31558704 31502764 31446014 31386174 
3396.813 31322710 31256192 31188436 31121476 31057016 30996340 30938552 
3400.188 30882838 30826702 30769188 30709012 30646002 30580262 30512008 
3403.563 30441848 30369494 30295484 30220066 30144410 30069728 29997542 
3406.938 29928672 29863288 29800152 29738336 29675538 29610372 29541526 
3410.313 29468330 29390748 29309248 29224786 29138390 29051234 28964482 
3413.689 28879060 28795706 28714742 28635810 28558096 28480784 28402036 
3417.064 28321072 28236732 28148694 28056788 27961506 27863774 27765004 
3420.439 27666646 27570320 27477016 27387122 27300528 27216772 27135042 
3423.814 27054528 26974802 26895518 26816704 26738044 26659470 26580524 
3427.190 26500746 26419892 26337748 26254002 26168654 26081104 25990900 
3430.565 25897830 25801790 25703910 25605700 25509658 25417744 25331540 
3433.940 25251536 25177022 25105610 25034844 24962296 24886080 24805524 
3437.315 24721056 24633692 24544980 24456708 24369362 24283894 24200506 
3440.691 24119204 24039736 23962838 23888758 23817766 23750010 23684324 
3444.066 23619002 23551134 23478136 23397946 23309590 23214368 23115252 
3447.441 23016018 22920510 22831028 22747956 22669962 22594388 22518688 
3450.816 22440840 22360702 22278732 22196252 22114348 22033538 21953198 
3454.192 21872696 21790746 21707282 21622018 21535974 21450226 21365816 
3457.567 21283544 21203934 21126980 21052300 20979098 20906390 20832758 
3460.942 20756844 20677746 20595292 20509902 20423348 20336638 20251194 
3464.317 20167156 20084208 20001068 19917254 19832376 19747344 19662850 
3467.693 19580000 19499000 19419544 19340652 19261120 19180738 19099398 
3471.068 19017796 18936420 18855094 18772742 18687812 18598820 18505384 
3474.443 18408408 18310658 18215384 18125728 18043792 17969988 17903376 
3477.818 17841886 17783302 17725420 17666300 17604256 17538322 17467120 
3481.194 17390552 17308926 17223834 17137244 17051290 16967490 16885910 
3484.569 16805792 16725861 16644258 16560674 16475625 16390594 16307196 
3487.944 16226737 16149629 16075285 16002467 15930315 15858380 15787316 
3491.319 15718257 15652232 15590097 15531783 15475983 15421598 15366876 
3494.695 15310892 15253130 15194003 15134131 15074163 15015060 14957201 
3498.070 14900994 14845858 14791450 14736979 14681453 14623809 14563637 
3501.445 14500082 14432871 14362211 14289098 14214627 14140991 14069797 
3504.820 14003064 13941575 13885569 13833743 13783975 13733632 13680285 
3508.196 13622501 13560040 13494239 13427218 13361369 13298878 13240597 
3511.571 13187038 13137413 13091823 13049277 13009363 12971297 12934292 
3514.946 12896881 12857937 12816267 12771256 12723487 12673676 12623359 
3518.321 12573662 12525539 12479467 12435038 12391498 12347930 12303309 
3521.697 12256239 12206345 12153287 12097852 12041300 11985572 11932303 
3525.072 11882276 11834775 11788164 11739652 11686175 11626307 11559675 
3528.447 11488189 11414571 11342020 11273017 11209126 11150786 11097585 
3531.822 11049048 11004594 10963746 10925690 10889063 10852642 10814595 
3535.198 10774207 10731514 10687567 10644543 10604273 10567843 10535218 
3538.573 10505515 10477035 10448592 10419778 10390931 10362798 10336194 
3541.948 10310747 10285028 10256869 10223147 10181492 10129970 10068350 
3545.323 9997718 9921166 9842729 9767153 9699045 9642228 9598155 9566179 
3549.181 9542943 9523841 9503113 9475986 9439448 9393160 9339430 9282356 
3553.038 9226711 9176892 9135100 9102143 9077241 9058530 9043408 9029537 
3556.896 9014484 8996791 8975581 8950653 8922850 8893223 8863193 8834246 
3560.753 8807871 8785048 8766959 8754315 8747519 8745356 8744949 8740859 
3564.610 8725883 8692449 8634682 8550462 8444197 8325595 8208411 8104929 
3568.468 8023748 7967116 7931379 7909479 7893486 7877459 7857383 7832451 
3572.325 7803337 7771998 7740392 7710104 7682145 7656784 7634325 7613958 
3576.183 7594468 7573967 7550771 7523563 7492751 7459850 7428469 7402449 
3580.040 7385598 7379599 7384957 7400225 7423043 7451154 7481896 7513517 
3583.897 7542612 7564763 7573866 7562065 7522754 7451693 7350448 7227293 
3587.755 7096360 6974960 6877630 6813372 6784226 6784797 6805395 6834274 
3591.612 6861607 6878203 6879280 6863660 6833433 6793447 6749999 6709180 
3595.470 6676271 6653997 6643601 6643601 6650902 6660390 6667220 6666211 
3599.327 6653829 6628764 6592700 6549877 6505713 6466127 6436096 6418542 
3603.185 6414238 6422308 6440434 6464244 6488594 6506722 6511061 6494883 
3607.042 6454088 6388951 6306006 6216253 6133240 6067715 6024272 6000621 
3610.899 5988795 5978751 5962223 5936727 5905288 5876572 5859746 5861358 
3614.757 5882315 5917581 5957251 5989937 6005391 5996119 5959166 5896589 
3618.614 5815350 5726169 5641000 5571689 5526987 5509873 5519369 5550613 
3622.472 5596459 5650500 5708811 5769985 5834693 5903676 5974216 6038114 
3626.329 6081323 6084885 6030588 5908748 5727512 5515813 5314883 5165077 
3630.187 5087058 5077671 5116527 5177315 5236133 5276076 5291236 5283992 
3634.044 5262963 5238112 5217219 5203068 5194584 5188347 5181473 5173258 
3637.901 5165010 5159075 5157398 5160248 5166217 5173392 5180299 5187710 
3641.759 5198273 5216750 5247871 5294825 5357886 5434041 5516886 5597734 
3645.616 5665941 5711531 5725128 5700183 5633548 5526920 5385897 5221881 
3649.474 5050853 4891085 4761993 4679693 4652397 4679257 4749899 4847558 
3653.331 4950334 5036908 5089204 5095439 5054474 4977313 4884182 4797336 
3657.188 4734155 4701832 4697109 4710072 4729566 4747153 4758476 4763199 
3661.046 4763634 4763031 4763735 4767319 4774622 4786950 4805645 4833386 
3664.903 4872153 4922853 4983647 5050417 5115689 5168597 5198071 5193142 
3668.761 5147507 5064429 4959449 4859152 4791473 4778106 4823870 4916687 
3672.618 5029601 5127792 5177181 5148814 5032182 4842030 4621452 4424384 
3676.476 4291749 4238044 4250324 4301454 4362797 4414810 4449154 4468002 
3680.333 4479015 4491503 4511088 4538476 4571926 4609665 4653201 4705885 
3684.190 4772177 4853054 4943061 5030171 5098591 5130508 5113879 5046127 
3688.048 4938034 4809431 4683846 4579594 4504493 4457021 4430610 4419463 
3691.905 4420668 4433589 4458695 4494549 4537069 4580196 4617836 4645866 
3695.763 4664186 4676745 4689707 4708565 4736032 4769530 4802830 4826752 
3699.620 4832481 4814523 4773182 4714125 4648445 4589271 4548152 4532449 
3703.478 4544134 4580799 4636556 4704177 4777570 4851244 4921814 4987368 
3707.335 5047065 5099529 5142980 5173425 5185296 5172185 5129334 5055546 
3711.192 4955629 4841427 4728964 4635116 4573231 4548822 4559938 4598714 
3715.050 4654406 4715800 4773718 4822329 4859487 4885992 4904690 4918496 
3718.907 4929052 4935990 4938235 4933811 4922283 4905125 4886092 4869338 
3722.765 4859152 4857074 4861933 4869506 4875034 4874297 4866858 4856505 
3726.622 4850541 4858884 4888337 4941553 5013847 5095741 5173761 5234155 
3730.479 5267692 5270979 5249011 5212692 5174465 5142243 5114214 5080655 
3734.337 5027958 4946949 4838713 4717475 4606014 4527929 4496357 4512628 
3738.194 4567271 4647875 4744037 4850406 4966085 5090411 5217488 5333801 
3742.052 5415420 5432497 5359999 5190896 4951841 4701196 4512863 4437271 
3745.909 4481794 4616797 4796096 4973325 5109084 5179964 5177080 5108447 
3749.767 4992496 4852584 4709235 4576613 4464654 4382209 4336860 4334082 
3753.624 4372637 4444167 4533889 4625002 4703607 4760586 4793349 4804773 
3757.481 4800619 4785544 4761591 4728729 4688435 4645766 4611138 4596336 
3761.339 4610234 4654205 4720723 4795560 4861966 4907505 4926774 4924730 
3765.196 4913034 4906298 4914475 4938302 4969672 4995345 5002685 4983681 
3769.054 4938805 4876374 4810838 4756465 4723001 4713790 4726217 4753484 
3772.911 4787956 4822899 4854059 4879725 4900870 4919502 4937866 4955964 
3776.769 4971615 4979525 4974028 4950668 4909549 4856270 4802730 4761490 
3780.626 4742664 4749464 4777637 4817404 4856739 4885455 4898591 4895910 
3784.483 4882239 4863675 4846017 4831509 4820319 4811206 4803702 4798040 
3788.341 4795862 4798207 4805109 4815160 4826350 4837607 4850172 4866892 
3792.198 4891018 4924160 4963538 5002082 5030204 5039389 5025713 4993334 
3796.056 4954657 4927075 4926137 4959081 5021322 5097820 5165445 5198541 
3799.913 5177650 5095406 4963638 4812647 4684482 4615759 4622892 4698817 
3803.771 4818376 4947988 5051993 5102513 5085080 5003121 4879391 4749565 
3807.628 4650588 4604407 4614654 4668473 4747555 4833922 4916955 4993770 
3811.485 5067380 5141505 5215610 5282751 5328971 5339336 5301198 5214604 
3815.343 5094836 4974297 4889778 4867361 4914542 5016629 5144590 5261688 
3819.200 5335411 5341583 5272086 5139929 4978352 4831878 4736132 4707426 
3823.058 4739850 4812010 4896078 4966756 5008652 5016797 4997859 4966923 
3826.915 4941720 4935856 4953986 4991524 5037981 5081426 5112202 5126451 
3830.772 5126216 5119008 5113610 5118673 5139561 5177583 5230030 5290733 
3834.630 5351747 5402805 5433571 5434779 5401396 5334640 5242975 5141874 
3838.487 5048976 4978352 4936995 4924428 4933476 4954422 4978017 4997624 
3842.345 5008652 5010428 5004562 4994440 4984955 4981603 4989614 5013411 
3846.202 5055211 5115689 5193478 5286105 5391701 5508161 5633112 5761557 
3850.060 5884532 5985536 6041272 6025078 5912476 5695416 5393680 5061614 
3853.917 4767420 4567807 4485711 4508678 4604842 4738510 4882172 5017266 
3857.774 5134363 5230868 5307000 5364092 5403141 5425183 5432396 5427733 
3861.632 5414883 5396096 5370734 5336518 5291270 5237106 5183217 5144959 
3865.489 5138521 5174465 5251392 5353994 5456185 5529873 5550244 5506786 
3869.347 5408677 5285568 5176142 5109620 5097619 5129200 5182144 5230499 
3873.204 5256255 5254008 5231539 5205684 5194349 5209574 5253170 5316560 
3877.062 5385159 5442932 5475310 5472525 5431960 5359295 5268765 5179629 
3880.919 5112638 5082800 5094903 5141908 5206757 5267725 5302439 5295563 
3884.776 5244920 5164574 5082231 5028126 5025813 5080722 5181372 5303512 
3888.634 5420150 5506450 5544807 5529571 5467593 5377209 5281375 5202062 
3892.491 5154313 5142813 5164741 5212290 5276647 5348762 5420754 5486753 
3896.349 5541183 5579711 5599681 5599748 5581859 5550278 5511987 5474572 
3900.206 5443535 5421191 5405221 5389118 5364696 5325784 5270140 5202364 
3904.063 5132184 5072341 5034595 5024674 5042507 5081996 5134933 5192371 
3907.921 5247502 5297072 5339805 5376638 5408374 5436020 5460043 5481552 
3911.778 5502121 5524370 5549975 5579677 5611025 5638919 5656878 5658858 
3915.636 5641571 5606394 5558298 5505678 5456688 5417165 5389621 5373988 
3919.493 5369224 5374223 5388682 5412333 5443435 5478163 5510846 5534437 
3923.351 5543700 5537357 5518900 5495175 5475444 5467626 5474908 5496551 
3927.208 5527390 5561084 5590988 5612939 5625022 5626902 5619820 5604950 
3931.065 5584275 5559473 5533531 5509974 5492423 5483196 5482692 5489404 
3934.923 5499873 5510477 5518799 5524403 5528632 5534605 5545277 5562527 
3938.780 5585551 5611730 5636435 5654461 5661645 5655871 5637912 5611395 
3942.638 5582127 5556285 5539639 5535310 5543733 5562192 5585752 5609280 
3946.495 5627641 5637878 5639020 5632340 5620155 5605387 5590619 5576959 
3950.353 5565581 5557023 5552392 5552459 5558466 5570045 5586189 5604481 
3954.210 5621766 5635159 5643149 5645196 5642981 5638617 5634354 5631232 
3958.067 5629889 5629017 5627003 5622841 5615859 5606461 5596257 5587229 
3961.925 5581456 5581053 5587061 5599479 5617537 5639120 5661611 5682223 
3965.782 5698505 5709046 5713814 5713780 5710826 5706864 5703876 5702432 
3969.640 5702802 5704883 5708274 5713008 5719185 5727142 5737215 5748798 
3973.497 5761087 5772704 5782274 5788923 5792247 5792784 5791340 5788990 
3977.354 5787109 5786136 5786471 5787814 5789628 5790669 5790367 5788150 
3981.212 5784222 5779487 5774921 5771596 5770253 5770757 5772637 5774484 
3985.069 5775290 5774786 5773208 5771999 5772772 5776432 5783818 5794463 
3988.927 5807358 5821092 5834458 5846950 5858470 5868981 5878217 5885909 
3992.784 5891551 5894574 5895514 5894540 5893331 5893331 5895447 5900183 
3996.642 5907135 5915533 5924366 5932999 5940825 5948047 5954396 5959670 
4000.499 5963399 
##END=
