
##TITLE=Z361_3_b
##JCAMP-DX=5.01  $$ Nicolet v. 1
##DATATYPE=INFRARED SPECTRUM
##ORIGIN=UniL
##OWNER=Nicolet
##LONGDATE=2011/09/14
##TIME=13:34:04
##SPECTROMETER/DATA SYSTEM=Nicolet iS5
##DATA PROCESSING=
Ratio against background
%Transmittance->Absorbance
Truncated
ElementMultiply or ElementDivide
##COMMENTS=
Number of sample scans: 32
Collection length: 51.23 sec
Sample gain: 2.0
Background collected on: Mer Sep 14 13:30:21 2011 (GMT+02:00);
Number of background scans: 32
Background gain: 2.0
Sample spacing:  1.000
Number of scan points: 12415
Resolution points: 8192
Number of FFT points: 65536
Apodization: N-B fort;
Phase correction: Mertz;
Laser frequency: 15798.0 cm-1
Number of rejected sample scans: 0
Number of rejected background scans: 0
Bench serial number: ASB1000141;
##RESOLUTION=4.000
##XUNITS=1/CM
##YUNITS=ABSORBANCE
##FIRSTX=649.893372
##LASTX=4000.122314
##FIRSTY=0.098365
##MAXX=4000.122314
##MINX=649.893372
##MAXY=0.209992
##MINY=0.002905
##XFACTOR=1.000000
##YFACTOR=1.000000E-009
##NPOINTS=6950
##DELTAX=0.482117
##ZPD=6100
##XYDATA=(X++(Y..Y))
649.893 98364920 98566344 98847080 99186104 99552608 99922208 100286288 
653.268 100657776 101064992 101538064 102090064 102714832 103383832 
656.161 104061952 104720392 105346760 105945616 106531400 107118112 
659.054 107709528 108301528 108885448 109454544 110008888 110552784 
661.946 111090224 111622464 112147448 112663416 113175952 113698352 
664.839 114249360 114847448 115502184 116210376 116956816 117728432 
667.732 118537072 119446720 120554248 121980072 123846552 126258936 
670.624 129334064 133189272 137915120 143534272 149933824 156839696 
673.517 163748256 169986864 174828464 177552064 177675648 175082224 
676.410 170078224 163318032 155628288 147849728 140605296 134272880 
679.302 128985168 124668448 121126944 118110968 115395896 112797136 
682.195 110192392 107525072 104784960 102001296 99222704 96508080 93910616 
685.570 91467824 89204496 87132504 85254344 83570072 82076992 80770432 
688.945 79641192 78675848 77855800 77158704 76562424 76046456 75592856 
692.320 75189632 74827720 74500736 74204480 73935584 73689936 73464200 
695.694 73254664 73058176 72872856 72697168 72531192 72375456 72230768 
699.069 72097400 71975208 71862992 71759168 71662504 71572056 71487320 
702.444 71408184 71333560 71260976 71186016 71103232 71006648 70892216 
705.819 70757576 70603336 70432304 70248768 70055960 69856400 69651008 
709.194 69438792 69218600 68988848 68748616 68497848 68237312 67968320 
712.569 67693224 67414160 67132216 66847332 66556880 66256544 65939984 
715.943 65602004 65238176 64847684 64432672 63997940 63550068 63096024 
719.318 62642916 62197012 61763516 61346712 60947464 60563816 60189532 
722.693 59815492 59432276 59031780 58610120 58168028 57710568 57244632 
726.068 56776968 56313352 55858100 55415752 54991644 54591840 54222364 
729.443 53887000 53586112 53316564 53074104 52855200 52658704 52486524 
732.817 52340876 52222552 52129556 52057604 52001952 51961880 51940892 
736.192 51946904 51989140 52074792 52207232 52386364 52611536 52885216 
739.567 53215276 53615876 54104652 54700592 55423884 56298560 57355372 
742.942 58640988 60222264 62185468 64651452 67771064 71722504 76723624 
746.317 82994608 90722088 99995912 110723528 122545904 134738192 146299776 
749.692 155988496 162519248 164933968 162774144 156268960 146235888 
752.584 133925896 120701744 107692632 95765048 85399200 76736904 69708928 
755.959 64115756 59724960 56306104 53669264 51663220 50154956 49035112 
759.334 48209768 47600040 47152868 46835500 46632888 46540896 46558676 
762.709 46686200 46924896 47279868 47761856 48384480 49161772 50103004 
766.083 51211028 52485848 53929088 55550612 57371552 59419852 61720356 
769.458 64282388 67085044 70069744 73130824 76132128 78913048 81299640 
772.833 83138312 84297984 84684464 84255976 83022040 81048392 78442744 
776.208 75351112 71935992 68347672 64728900 61198900 57848152 54751816 
779.583 51961508 49504796 47387204 45591152 44082192 42813556 41739816 
782.958 40821144 40025848 39332552 38724864 38188208 37708988 37274156 
786.332 36873088 36500500 36155200 35839216 35554924 35302084 35076872 
789.707 34873784 34686620 34511232 34346632 34193388 34052136 33922676 
793.082 33803212 33691124 33585040 33485286 33393744 33312346 33241730 
796.457 33179924 33123850 33069890 33017084 32967034 32924068 32892116 
799.832 32873600 32867242 32868706 32872316 32873924 32872028 32868564 
803.206 32867204 32871388 32883178 32902766 32929036 32961852 33001606 
806.581 33049692 33107650 33175562 33251424 33331952 33414356 33497058 
809.956 33580424 33666456 33756728 33850852 33946216 34038196 34122132 
813.331 34195040 34256348 34307976 34352908 34393504 34431168 34465888 
816.706 34497780 34528020 34558548 34592280 34630996 34674632 34721328 
820.081 34768672 34815052 34861436 34911056 34969120 35039984 35125332 
823.455 35224212 35333532 35450144 35572580 35702136 35842128 35996280 
826.830 36166616 36352692 36551640 36759844 36974312 37193904 37419244 
830.205 37652104 37894420 38147472 38412324 38690456 38984672 39298272 
833.580 39634068 39992460 40369692 40757448 41144560 41517912 41865568 
836.955 42179252 42453520 42686612 42879268 43034916 43159468 43262864 
840.329 43361344 43475224 43628664 43847912 44156060 44573020 45115348 
843.704 45795228 46624148 47614348 48777900 50129220 51683372 53454784 
847.079 55457952 57704516 60201216 62945744 65919660 69083312 72361872 
850.454 75643760 78782264 81586896 83856216 85396904 86043656 85702216 
853.829 84360752 82102000 79087488 75547896 71759360 67985480 64473912 
857.204 61420908 58945284 57104028 55892208 55262648 55139688 55436608 
860.578 56070528 56956412 58015768 59174832 60354856 61479572 62476300 
863.953 63275380 63822092 64078808 64027124 63670748 63034072 62161148 
867.328 61106248 59933616 58707932 57482664 56300336 55188220 54157948 
870.703 53213068 52352276 51573548 50876264 50260404 49725472 49268572 
874.078 48885280 48569308 48314152 48114292 47964884 47861328 47799216 
877.452 47773104 47777280 47807428 47860436 47935540 48033608 48155936 
880.827 48303780 48477200 48675668 48898888 49147336 49422220 49724692 
884.202 50055184 50411944 50791228 51188996 51600976 52024776 52460464 
887.577 52908980 53370996 53845664 54329816 54817932 55304568 55785532 
890.952 56258956 56725612 57187816 57647188 58104540 58558360 59007224 
894.327 59450208 59888164 60324284 60763660 61211604 61672884 62151936 
897.701 62653556 63183620 63751288 64367728 65045728 65799320 66640308 
901.076 67578816 68622984 69778728 71049224 72434840 73930320 75521520 
904.451 77181696 78872720 80539312 82113128 83521112 84682128 85518568 
907.826 85966064 85973256 85515416 84599264 83268216 81599968 79699784 
911.201 77697112 75719336 73887544 72308728 71061120 70199968 69755768 
914.575 69733080 70111408 70842480 71854512 73043464 74279808 75427496 
917.950 76343168 76906520 77041728 76723664 75989064 74923944 73657032 
921.325 72327744 71064280 69974520 69124768 68544640 68234096 68173728 
924.700 68336312 68693504 69223688 69909328 70738160 71703512 72802984 
928.075 74041232 75429744 76988208 78743168 80724712 82967696 85509000 
931.450 88386192 91641440 95317784 99456192 104094888 109259248 114955936 
934.824 121161760 127821448 134837792 142065440 149332032 156435264 
937.717 163163440 169335344 174807712 179505952 183437088 186695936 
940.610 189455744 191925024 194334128 196867488 199614720 202536208 
943.502 205435344 207974192 209668720 209991968 208453936 204667568 
946.395 198473328 189963936 179495328 167606448 154957008 142235168 
949.288 130011784 118743416 108728112 100094200 92858824 86948488 82239520 
952.663 78575024 75785128 73706304 72171928 71034120 70174576 69499064 
956.037 68950944 68503592 68150704 67897152 67748872 67708632 67774008 
959.412 67939728 68199048 68545616 68971488 69466632 70019056 70616240 
962.787 71247624 71907720 72595216 73311736 74058168 74831824 75626448 
966.162 76435808 77255600 78087952 78940392 79824080 80748368 81718656 
969.537 82736328 83802848 84923392 86110472 87380368 88747720 90217080 
972.912 91777600 93402440 95055328 96704504 98329224 99928016 101516720 
976.286 103123432 104779776 106513368 108349200 110308904 112412800 
979.179 114684152 117148136 119837064 122800496 126111312 129873384 
982.072 134218528 139264016 145064304 151528656 158377328 165086624 
984.964 170916688 175092496 176904992 175951984 172269920 166347328 
987.857 159006304 151143072 143620784 137053408 131753384 127788632 
990.750 125029672 123253720 122209568 121689824 121542208 121655928 
993.643 121956776 122385432 122892352 123443216 124019464 124616976 
996.535 125238288 125881776 126533912 127171648 127768176 128304376 
999.428 128776136 129193160 129571824 129924760 130256128 130562096 
1002.321 130837920 131085992 131319600 131560104 131829504 132139992 
1005.213 132490816 132869888 133263840 133665696 134080544 134522416 
1008.106 135006912 135542176 136123296 136734656 137356288 137974112 
1010.999 138582160 139183024 139780704 140374480 140956320 141514960 
1013.891 142043232 142545888 143041712 143560368 144132112 144779552 
1016.784 145515392 146344048 147270288 148307440 149478512 150814944 
1019.677 152348656 154103552 156095808 158336304 160834992 163601040 
1022.570 166631136 169891248 173285104 176639872 179720976 182234480 
1025.462 183904304 184533104 184040352 182494624 180091392 177123792 
1028.355 173898496 170698192 167748928 165182624 163053168 161344272 
1031.249 159992528 158905856 157983632 157140672 156308304 155444080 
1034.142 154531680 153571536 152575328 151557168 150534128 149524832 
1037.035 148552224 147648720 146852224 146202720 145739792 145495200 
1039.928 145492928 145751232 146280576 147082336 148140096 149411568 
1042.821 150815744 152229648 153511184 154506288 155088256 155191968 
1045.714 154823824 154067072 153052912 151947104 150905696 150048960 
1048.607 149459024 149168272 149169344 149423872 149876464 150463552 
1051.500 151117024 151776528 152389216 152911664 153313632 153572448 
1054.393 153671264 153598448 153345264 152909168 152294624 151513856 
1057.286 150583744 149520480 148335456 147032224 145607504 144056112 
1060.179 142377168 140577648 138674176 136689488 134647408 132571880 
1063.072 130482344 128395976 126330392 124302320 122329264 120426080 
1065.965 118602200 116861616 115203056 113623496 112120600 110694536 
1068.858 109347936 108083552 106901448 105797968 104765856 103796104 
1071.751 102881160 102015584 101196144 100419712 99680384 98969536 98275872 
1075.127 97587880 96897088 96200360 95499512 94799496 94107160 93429432 
1078.502 92772992 92146088 91559656 91026424 90560952 90175816 89879608 
1081.877 89675888 89564256 89542304 89608896 89764128 90009752 90346304 
1085.252 90770552 91274152 91843008 92460696 93110016 93774416 94440032 
1088.628 95094752 95726552 96326464 96889056 97416560 97920200 98422600 
1092.003 98955048 99551520 100249432 101084520 102090232 103303672 104765640 
1095.378 106521416 108625384 111133872 114101656 117577296 121588192 
1098.271 126127360 131129144 136458784 141886848 147076384 151636320 
1101.164 155131072 157160096 157461936 155950832 152761584 148202416 
1104.057 142720944 136801712 130865056 125262560 120219984 115843960 
1106.950 112155728 109110384 106628848 104613000 102966536 101599936 
1109.844 100428856 99384088 98407056 97448856 96474480 95456656 94376240 
1113.219 93223312 91995816 90701624 89357520 87987928 86621352 85283944 
1116.594 83999000 82782952 81645072 80590528 79620856 78735504 77932040 
1119.969 77205368 76546616 75943200 75380352 74842568 74314760 73784880 
1123.344 73243448 72682560 72096888 71482864 70840296 70172472 69488096 
1126.720 68800056 68123296 67474688 66870676 66325136 65851600 65462136 
1130.095 65167644 64978732 64904272 64950832 65123140 65424308 65857344 
1133.470 66427900 67144440 68019584 69069952 70312032 71761984 73433712 
1136.845 75336376 77475464 79851440 82458568 85281920 88293488 91452688 
1140.221 94698000 97950424 101118352 104089248 106741704 108951952 110591768 
1143.596 111553480 111763528 111198072 109896936 107965256 105569328 
1146.489 102900776 100165928 97563664 95250400 93349488 91942296 91068352 
1149.864 90739352 90944800 91662144 92860912 94508240 96573048 99021592 
1153.240 101817496 104916648 108251616 111727608 115214336 118529456 
1156.133 121461080 123775440 125229088 125621616 124809664 122736272 
1159.026 119447464 115093080 109914904 104192760 98232832 92317728 86660632 
1162.401 81417608 76670680 72438480 68696688 65392532 62463596 59843024 
1165.776 57471316 55299412 53285392 51398144 49615660 47922628 46311220 
1169.151 44778896 43326964 41958732 40679172 39494844 38413412 37445788 
1172.527 36605636 35906944 35362864 34979788 34752444 34658912 34659632 
1175.902 34702484 34723660 34661784 34468468 34112668 33589268 32917886 
1179.277 32141916 31316868 30503904 29764026 29145548 28684406 28402636 
1182.652 28306326 28387708 28624130 28981200 29410108 29851364 30244044 
1186.028 30525658 30644722 30569916 30291824 29826484 29209794 28494688 
1189.403 27738478 26994724 26310642 25718324 25235558 24868010 24611040 
1192.778 24454184 24383138 24384048 24443036 24547540 24687210 24853168 
1196.153 25038178 25236856 25444586 25657510 25872052 26084622 26291844 
1199.529 26490920 26679446 26855862 27018312 27165270 27294282 27402650 
1202.904 27487006 27544618 27572474 27568096 27528802 27451462 27332426 
1206.279 27168020 26955306 26693470 26384328 26033890 25651746 25249744 
1209.654 24842082 24442792 24064214 23717008 23409278 23146250 22931058 
1213.030 22764752 22646364 22573482 22542804 22550726 22594458 22671532 
1216.405 22780952 22921452 23092012 23290816 23515456 23764042 24034762 
1219.780 24327100 24641688 24979950 25343484 25733548 26150740 26595248 
1223.155 27066412 27563436 28085064 28629792 29195902 29781484 30385414 
1226.531 31007478 31648822 32312286 33001638 33721028 34475000 35267836 
1229.906 36103384 36985244 37916260 38897760 39929252 41006892 42124232 
1233.281 43270884 44433816 45598144 46746452 47860140 48921324 49912764 
1236.656 50821392 51640568 52371828 53025168 53619060 54179048 54733584 
1240.031 55313712 55951752 56677020 57517652 58499140 59641176 60959056 
1243.407 62461800 64152852 66030980 68092560 70333656 72751232 75344016 
1246.782 78111872 81054944 84173240 87466440 90934088 94575664 98388280 
1250.157 102363640 106485592 110724720 115034008 119352368 123596632 
1253.050 127657456 131406800 134682032 137291504 139041712 139735408 
1255.943 139211920 137378336 134216768 129797232 124261344 117820424 
1258.836 110723056 103230288 95617224 88127976 80964984 74288688 68195824 
1262.212 62733180 57907584 53694984 50053584 46930580 44271580 42020120 
1265.587 40120800 38524736 37186216 36065616 35131728 34357320 33720200 
1268.962 33203174 32790658 32470078 32231410 32065858 31966590 31927608 
1272.337 31942978 32007426 32115086 32260530 32438978 32647144 32883178 
1275.713 33146918 33439796 33764144 34121988 34514532 34940644 35396472 
1279.088 35874660 36364760 36855416 37334416 37792476 38225008 38633264 
1282.463 39024760 39411132 39806020 40220528 40659628 41120264 41591636 
1285.838 42057752 42501204 42909624 43278716 43614816 43932812 44254812 
1289.214 44605328 45006184 45476496 46030784 46678712 47427336 48280820 
1292.589 49240556 50304524 51466140 52714700 54033504 55402392 56798832 
1295.964 58197768 59575608 60910596 62184240 63384676 64507468 65556496 
1299.339 66541968 67479480 68386912 69280776 70177024 71090192 72033488 
1302.715 73020376 74063232 75170960 76347048 77586768 78875976 80190024 
1306.090 81495384 82751888 83908912 84911432 85700568 86213504 86397328 
1309.465 86211928 85638328 84683376 83379088 81779968 79950168 77962968 
1312.840 75891704 73800672 71749744 69791328 67968824 66324712 64898544 
1316.216 63725656 62838396 62256512 61980460 61982980 62206344 62563888 
1319.591 62940112 63214668 63272156 63015988 62389304 61376556 60005400 
1322.966 58336528 56456752 54465768 52455116 50509600 48694312 47050016 
1326.341 45600132 44351024 43297716 42428568 41728544 41181792 40770804 
1329.717 40478648 40289344 40186724 40156596 40185636 40260588 40369296 
1333.092 40499964 40641804 40786308 40928172 41064868 41197676 41329648 
1336.467 41466148 41612676 41776296 41965152 42188636 42458892 42789276 
1339.842 43192260 43679004 44255620 44921992 45669584 46480524 47326088 
1343.218 48163120 48939496 49594824 50065560 50299312 50258728 49928972 
1346.593 49320612 48468604 47429928 46271300 45068516 43894316 42806900 
1349.968 41852652 41060168 40442168 39999980 39725444 39604916 39619728 
1353.343 39749916 39975968 40278144 40639216 41043164 41473216 41912788 
1356.719 42343412 42744080 43094296 43373024 43561076 43643648 43610016 
1360.094 43455484 43181500 42798012 42324164 41787676 41226564 40682664 
1363.469 40193268 39788188 39482284 39276908 39163364 39127684 39155280 
1366.844 39232192 39347716 39493100 39660672 39843604 40035220 40228816 
1370.219 40417984 40596288 40757120 40895220 41006636 41091492 41155272 
1373.595 41210828 41276920 41373636 41520356 41729784 42007932 42356380 
1376.970 42776076 43271248 43852420 44536856 45346604 46306612 47437536 
1380.345 48752396 50248276 51902092 53661536 55442632 57143256 58642732 
1383.720 59821880 60582712 60846176 60567856 59745944 58435716 56754800 
1387.096 54866620 52966584 51225756 49763148 48641720 47871424 47432292 
1390.471 47291208 47414884 47773732 48342480 49103184 50041504 51145048 
1393.846 52401544 53792328 55290568 56862392 58469908 60075676 61646800 
1397.221 63150020 64551524 65819136 66921004 67835552 68556240 69092632 
1400.597 69465424 69699896 69822192 69853984 69811640 69703992 69527328 
1403.972 69261968 68871416 68313152 67546872 66551588 65334984 63935324 
1407.347 62416312 60852580 59331412 57941700 56766468 55889492 55380260 
1410.722 55286280 55630640 56407812 57591116 59139292 61009004 63157796 
1414.098 65540120 68110896 70817400 73596824 76389272 79132408 81768808 
1417.473 84252688 86545760 88620224 90454232 92037952 93369536 94451688 
1420.848 95291576 95895224 96265912 96401128 96294736 95941048 95339320 
1424.223 94499296 93441016 92188856 90759816 89155872 87361328 85350320 
1427.599 83099112 80604616 77894688 75036720 72128776 69275368 66578084 
1430.974 64116404 61939608 60070800 58505768 57218736 56168860 55309688 
1434.349 54600900 54015940 53554324 53244868 53139516 53289592 53721004 
1437.724 54418368 55327712 56367556 57435916 58426084 59218464 59695040 
1441.100 59766668 59381480 58544672 57312796 55785724 54082848 52318152 
1444.475 50599124 49009112 47604032 46420752 45477048 44778088 44319244 
1447.850 44086484 44054140 44182360 44425008 44733716 45063668 45383788 
1451.225 45676504 45941460 46193164 46458732 46770808 47161880 47663376 
1454.601 48305560 49118400 50127996 51346156 52753500 54291256 55871892 
1457.976 57405132 58818128 60059312 61089968 61873160 62379436 62581988 
1461.351 62454572 61971972 61103316 59818344 58102724 55985900 53564820 
1464.726 50992804 48455344 46110068 44044344 42277196 40777756 39498540 
1468.102 38397160 37447272 36636028 35957656 35406108 34972176 34645208 
1471.477 34419116 34297360 34293024 34422700 34700076 35132624 35722064 
1474.852 36471344 37387788 38481148 39762080 41236696 42904212 44758800 
1478.227 46791988 48996052 51361036 53872892 56511432 59243260 62026932 
1481.603 64817712 67567744 70232920 72769256 75126600 77252744 79091224 
1484.978 80585664 81693896 82391272 82676640 82568352 82101168 81319016 
1488.353 80265792 78992608 77559000 76033272 74492864 73007528 71621280 
1491.728 70342376 69139800 67952664 66698296 65288080 63638984 61685452 
1495.104 59397360 56791464 53936064 50931476 47885928 44888700 41998732 
1498.479 39250400 36665084 34258784 32046844 30040078 28240020 26641150 
1501.854 25230114 23987874 22892426 21916848 21027262 20180100 19325516 
1505.229 18419262 17438078 16406903 15398391 14502618 13779187 13233902 
1508.604 12829849 12517115 12251603 12005021 11766375 11536571 11323042 
1511.980 11132563 10969286 10832735 10720102 10628210 10554908 10498522 
1515.355 10457213 10429348 10413940 10412481 10429925 10472488 10544553 
1518.730 10645766 10768976 10901022 11027670 11139771 11240509 11345965 
1522.105 11479377 11659116 11889700 12163782 12466715 12784428 13106473 
1525.481 13429268 13755999 14093002 14445066 14811985 15188273 15565575 
1528.856 15935814 16292300 16630728 16946474 17231144 17471950 17651116 
1532.231 17750822 17762454 17696566 17586556 17475262 17402518 17387930 
1535.606 17429938 17512104 17611538 17706988 17778574 17811956 17798942 
1538.982 17738432 17638416 17515070 17391138 17288168 17221078 17193396 
1542.357 17197980 17220284 17243210 17255036 17252692 17244452 17245624 
1545.732 17272138 17332512 17425006 17538944 17660434 17779058 17891154 
1549.107 18002762 18125590 18273542 18454940 18671418 18919150 19194104 
1552.483 19495708 19828840 20202420 20625902 21105274 21641070 22229416 
1555.858 22864624 23544522 24271280 25052744 25902754 26840142 27882182 
1559.233 29028526 30270224 31590770 32972790 34412336 35912452 37482232 
1562.608 39131816 40869956 42698932 44603272 46552000 48498800 50387420 
1565.984 52166732 53791052 55217344 56405964 57312304 57893504 58122420 
1569.359 58001944 57573148 56901184 56059448 55105796 54073992 52980020 
1572.734 51826560 50607908 49318684 47958484 46543112 45127036 43809276 
1576.109 42722840 42000996 41725992 41915924 42541728 43557304 44925444 
1579.485 46628832 48673408 51080564 53881856 57111476 60801236 64975844 
1582.860 69648088 74809928 80423944 86420696 92683440 99057800 105360400 
1586.235 111364392 116827144 121507624 125188384 127745984 129192528 
1589.128 129709240 129602536 129259496 129071056 129326120 130192536 
1592.021 131682528 133666504 135880336 137958224 139503216 140086368 
1594.914 139332336 136994528 132981536 127400752 120519224 112724488 
1597.807 104425816 95991968 87749656 79938536 72724752 66209964 60417724 
1601.183 55305396 50774764 46705088 42974988 39490596 36206732 33118736 
1604.558 30252852 27642102 25314752 23284002 21548614 20097778 18914996 
1607.933 17980210 17266518 16741047 16367815 16106747 15922477 15786869 
1611.308 15678098 15581957 15486971 15381225 15250625 15077901 14844316 
1614.684 14533349 14135993 13657444 13120200 12563805 12032784 11562193 
1618.059 11169993 10856617 10611573 10418454 10259074 10115081 9968425 
1621.434 9804126 9613839 9398341 9168602 8941588 8734233 8555565 8405718 
1625.292 8277232 8160229 8045552 7927802 7805597 7680593 7556570 7437604 
1629.149 7328206 7233021 7156550 7103197 7074906 7070629 7085111 7109225 
1633.006 7131152 7137451 7115928 7059650 6969371 6855447 6736269 6631119 
1636.864 6552803 6505309 6484894 6484154 6494109 6506621 6516341 6521454 
1640.721 6524515 6531141 6548262 6580757 6629538 6689932 6753061 6807280 
1644.579 6840300 6842992 6812430 6753532 6678997 6605887 6551693 6528787 
1648.436 6543183 6594953 6679468 6787423 6903316 7005804 7063152 7038131 
1652.293 6903551 6664360 6372576 6100040 5900048 5782878 5730365 5715291 
1656.151 5715391 5717876 5718144 5717775 5720864 5730667 5747086 5766929 
1660.008 5784121 5792717 5787848 5767265 5731003 5682390 5626969 5571924 
1663.866 5524638 5491652 5476115 5477827 5492222 5511316 5524135 5519437 
1667.723 5488229 5426693 5338195 5233383 5127289 5034394 4965046 4923758 
1671.581 4909314 4916620 4936593 4958779 4970342 4959583 4920072 4855064 
1675.438 4779178 4712048 4671253 4663583 4684951 4723169 4764840 4800720 
1679.295 4828260 4853221 4885489 4934381 5001378 5077806 5143685 5173325 
1683.153 5142779 5043613 4892928 4730169 4596538 4513130 4478413 4476136 
1687.010 4487519 4496893 4494549 4477341 4445874 4403865 4356204 4309518 
1690.868 4271069 4248383 4247011 4267891 4305335 4346264 4372838 4366311 
1694.725 4315542 4225765 4121890 4039544 4005198 4025565 4085832 4159054 
1698.583 4211779 4215159 4156312 4048306 3929495 3842706 3814693 3845146 
1702.440 3916923 4006636 4094696 4167619 4218772 4248885 4265147 4278096 
1706.297 4297337 4328560 4373574 4430576 4496223 4567003 4640675 4715833 
1710.155 4792512 4871013 4951707 5034294 5117164 5198071 5274601 5344669 
1714.012 5406596 5458668 5498027 5519101 5514336 5476317 5401463 5295060 
1717.870 5172185 5053736 4957539 4892827 4857878 4843002 4834659 4819683 
1721.727 4789530 4740219 4673697 4595533 4513130 4432484 4357275 4288470 
1725.584 4226099 4169693 4118813 4072353 4028808 3986004 3942836 3900674 
1729.442 3864067 3839229 3831975 3842940 3865504 3884560 3878543 3826493 
1733.299 3717166 3559993 3385544 3235100 3138704 3102861 3115242 3153789 
1737.157 3196112 3223416 3224384 3196579 3145779 3083873 3023577 2974299 
1741.014 2939771 2919056 2908548 2905313 2906847 2911584 2918989 2928163 
1744.872 2938670 2950146 2962990 2977435 2994083 3012634 3032086 3050571 
1748.729 3065587 3074162 3074563 3066554 3052340 3036891 3027147 3030151 
1752.586 3050638 3089880 3145045 3209597 3273824 3328746 3366877 3386045 
1756.444 3390353 3389919 3395929 3416234 3452403 3498862 3546262 3583244 
1760.301 3601085 3596107 3571184 3534437 3496123 3466096 3449898 3448395 
1764.159 3459216 3478187 3500031 3519405 3531898 3534938 3529159 3518603 
1768.016 3510453 3511255 3524416 3547666 3572387 3587120 3579770 3544225 
1771.874 3483899 3412760 3349180 3308779 3297828 3312586 3343604 3380268 
1775.731 3415265 3446458 3475348 3504875 3536809 3569914 3600483 3623904 
1779.588 3638104 3644219 3647093 3652806 3665069 3683682 3705035 3723115 
1783.446 3732873 3732405 3723449 3710549 3699054 3692537 3692337 3698285 
1787.303 3709480 3726123 3748381 3776155 3806905 3835552 3853938 3854172 
1791.161 3831240 3786884 3729632 3673089 3629985 3608401 3609471 3629016 
1795.018 3660826 3699354 3740861 3783608 3826995 3870185 3911941 3950760 
1798.875 3985937 4017739 4048574 4081885 4120318 4165678 4217835 4275654 
1802.733 4338064 4404869 4477107 4556489 4644560 4741090 4844744 4952847 
1806.590 5062117 5169570 5272823 5369828 5458869 5538061 5605689 5660302 
1810.448 5702197 5732044 5752256 5765385 5773577 5778010 5778681 5775357 
1814.305 5767768 5756923 5744534 5733018 5724490 5719890 5718379 5717742 
1818.163 5714989 5707200 5692965 5672320 5646539 5617705 5587866 5557862 
1822.020 5527289 5494235 5455916 5409716 5354665 5292444 5227884 5168128 
1825.877 5119209 5084644 5063391 5049512 5033422 5004897 4956266 4885355 
1829.735 4797336 4702870 4614587 4542226 4488791 4451464 4423781 4398777 
1833.592 4371432 4340273 4306640 4273177 4242394 4214724 4189331 4164942 
1837.450 4141358 4120284 4105433 4100984 4110116 4133263 4167786 4207765 
1841.307 4246208 4274416 4284354 4270434 4230382 4167920 4092054 4015833 
1845.165 3951094 3905255 3879813 3870853 3871355 3873962 3874363 3872258 
1849.022 3871087 3875935 3890979 3916823 3949958 3983964 4012221 4030748 
1852.879 4039611 4042755 4045263 4052152 4065463 4084562 4106737 4130119 
1856.737 4153568 4178056 4204453 4232992 4261600 4287031 4306406 4318286 
1860.594 4324577 4329597 4338633 4355434 4380770 4413070 4448887 4485477 
1864.452 4521568 4557929 4595198 4632470 4666296 4690210 4697612 4684817 
1868.309 4652665 4608258 4561646 4523309 4498935 4489427 4490867 4498366 
1872.167 4507673 4517148 4527293 4539849 4556188 4576312 4598948 4622758 
1876.024 4646569 4670114 4693927 4718077 4741559 4762931 4780719 4795326 
1879.881 4808895 4825512 4849469 4883143 4925802 4973526 5020886 5063089 
1883.739 5097518 5125009 5149082 5173962 5202364 5234758 5269134 5302204 
1887.596 5331319 5354967 5374524 5392472 5412199 5436288 5466855 5503900 
1891.454 5547324 5595720 5647378 5700250 5751820 5800071 5844331 5885338 
1895.311 5925878 5969580 6019468 6077022 6141641 6210943 6282070 6352873 
1899.168 6422645 6491991 6562693 6636199 6713218 6794154 6878909 6968731 
1903.026 7064634 7168912 7282953 7407741 7543455 7689800 7847059 8016187 
1906.883 8198889 8396124 8607204 8828497 9052576 9270610 9471347 9643955 
1910.741 9779150 9868286 9904420 9882997 9802364 9665231 9478865 9255006 
1914.598 9007446 8748939 8490924 8239240 7997187 7766432 7549928 7352975 
1918.456 7183835 7048570 6950483 6885777 6845651 6817950 6792000 6760802 
1922.313 6724154 6686702 6655781 6638184 6637242 6651811 6678223 6712982 
1926.170 6753331 6798126 6847233 6899242 6952166 7002638 7048200 7087569 
1930.028 7122193 7154226 7185890 7217152 7245621 7267285 7279313 7281099 
1933.885 7275776 7268498 7264758 7267015 7274765 7284031 7290804 7292994 
1937.743 7291747 7291039 7295049 7304821 7317760 7327229 7325140 7305697 
1941.600 7268127 7218129 7165072 7119161 7088512 7075815 7079924 7097875 
1945.458 7126100 7162377 7205328 7252865 7301619 7348291 7388732 7420548 
1949.315 7444075 7461300 7475862 7490863 7507921 7527305 7549085 7572483 
1953.172 7597401 7624444 7651928 7676782 7694724 7701369 7694387 7676513 
1957.030 7654592 7638675 7637967 7657829 7696984 7749128 7804180 7853571 
1960.887 7892203 7919838 7939208 7954698 7969917 7986049 8002688 8019293 
1964.745 8034414 8048118 8059358 8066548 8067290 8060135 8044743 8025030 
1968.602 8007007 7996646 7999009 8015783 8043426 8077316 8112964 8149222 
1972.459 8187610 8233196 8289727 8359710 8442407 8535391 8635156 8741705 
1976.317 8854772 8974466 9097812 9217436 9322233 9401998 9449471 9464473 
1980.174 9452688 9425260 9392518 9362418 9338821 9321319 9308929 9301786 
1984.032 9302192 9314583 9341902 9384086 9436434 9490447 9536541 9568211 
1987.889 9583080 9584029 9577559 9571631 9571462 9580065 9597748 9623425 
1991.747 9655339 9691895 9731946 9772609 9811549 9844865 9869574 9884082 
1995.604 9887607 9880590 9863845 9837476 9800399 9752276 9693353 9626677 
1999.461 9557778 9492919 9437484 9393770 9359879 9330662 9301279 9268173 
2003.319 9231787 9196792 9170192 9157908 9164405 9190497 9233513 9289465 
2007.176 9353345 9420079 9485604 9545280 9594631 9630200 9649917 9652323 
2011.034 9639449 9613737 9577661 9534238 9486688 9436840 9389233 9348538 
2014.891 9319491 9305442 9306390 9318238 9333980 9347014 9352973 9352499 
2018.749 9351381 9356257 9373794 9406298 9451401 9501487 9550191 9590363 
2022.606 9620783 9642905 9660251 9676784 9695351 9715545 9736418 9757224 
2026.463 9776710 9794739 9811514 9827545 9842255 9856490 9871066 9888217 
2030.321 9910217 9938083 9970866 10004668 10033389 10050920 10053972 
2033.696 10042171 10018774 9988292 9955033 9919912 9881438 9836731 9783149 
2037.553 9721712 9656930 9595207 9543248 9505822 9482794 9470839 9464642 
2041.411 9458818 9449539 9436265 9419605 9401287 9382767 9364923 9348605 
2045.268 9335198 9327717 9330222 9346303 9378026 9423601 9478086 9531664 
2049.126 9572614 9589212 9572851 9519471 9432168 9319694 9195100 9072741 
2052.983 8966347 8884938 8831845 8803441 8791743 8787212 8782276 8772301 
2056.841 8759116 8745897 8736566 8733625 8736160 8740859 8743835 8742008 
2060.698 8733996 8721454 8707053 8692483 8679063 8666185 8652394 8635764 
2064.555 8615891 8591624 8563641 8532789 8499674 8465414 8432102 8402137 
2068.413 8378254 8362209 8353562 8349542 8346334 8339105 8325730 8307256 
2072.270 8287194 8270748 8262609 8264196 8273483 8286012 8296448 8300366 
2076.128 8296989 8287836 8276421 8267201 8263014 8265175 8273855 8287971 
2079.985 8306074 8326675 8347719 8366499 8380247 8386766 8384908 8375754 
2083.843 8362243 8347549 8334410 8324007 8314854 8304519 8290031 8270106 
2087.700 8245555 8219013 8193925 8173397 8159283 8151079 8147467 8147467 
2091.557 8150775 8158608 8173262 8197302 8232723 8280980 8341909 8413960 
2095.415 8494741 8580606 8666658 8748838 8822851 8886797 8941317 8989958 
2099.272 9037860 9090808 9153983 9229722 9318644 9419199 9529124 9647004 
2103.130 9771728 9902013 10036644 10172978 10307150 10434574 10551106 
2106.505 10653372 10739563 10808922 10861747 10898644 10920389 10927932 
2109.880 10922326 10905948 10880365 10847853 10809568 10765580 10714770 
2113.255 10656190 10588621 10512508 10429178 10340571 10247879 10151711 
2116.631 10051530 9946320 9836154 9722492 9608452 9498304 9395598 9302294 
2120.488 9218215 9140853 9067361 8995438 8924203 8854366 8787517 8724801 
2124.345 8665677 8609435 8554214 8499303 8445143 8394097 8348394 8310497 
2128.203 8281284 8259299 8242617 8228739 8215974 8203953 8194263 8189332 
2132.060 8192473 8207296 8236707 8282635 8345624 8423994 8513326 8607947 
2135.918 8700833 8785690 8858999 8918994 8967058 9005248 9035999 9060764 
2139.775 9080387 9095613 9107489 9118689 9132732 9152832 9182172 9221363 
2143.633 9269358 9323553 9381175 9438465 9493258 9542977 9584571 9617125 
2147.490 9639584 9652764 9660894 9668686 9680714 9699451 9724423 9750955 
2151.347 9774032 9788774 9793180 9789316 9782742 9777998 9779997 9791214 
2155.205 9812701 9847102 9901538 9985309 10111792 10290083 10520281 10789730 
2159.062 11076103 11349740 11584550 11763311 11879519 11936560 11945518 
2162.438 11918510 11869404 11808966 11746698 11689545 11642983 11608950 
2165.813 11585400 11567195 11545826 11512991 11463285 11394570 11310663 
2169.188 11217762 11123453 11033040 10949169 10871939 10799105 10730087 
2172.563 10666004 10609570 10564822 10534912 10520587 10519501 10526460 
2175.938 10535150 10538375 10530907 10509249 10473574 10426871 10374336 
2179.314 10324047 10283976 10260465 10256292 10270949 10298498 10330833 
2182.689 10360253 10380411 10387843 10382888 10366430 10340199 10305963 
2186.064 10264502 10216736 10165380 10113284 10064314 10021215 9984394 
2189.439 9952490 9922590 9892047 9859473 9827172 9798602 9777659 9766781 
2193.297 9766442 9773084 9783759 9794976 9805143 9814158 9823411 9832392 
2197.154 9839950 9842899 9837577 9821852 9795383 9760986 9723305 9688372 
2201.012 9660183 9641990 9634538 9636773 9647275 9663842 9684204 9706194 
2204.869 9728252 9748922 9769593 9792705 9821580 9860049 9910725 9973103 
2208.727 10044646 10121729 10200454 10278683 10356927 10437528 10522454 
2212.102 10613916 10710219 10807869 10901939 10986753 11058123 11113391 
2215.477 11151874 11173733 11180873 11175501 11160984 11141096 11120904 
2218.852 11104077 11093235 11088068 11085484 11080861 11068897 11045683 
2222.228 11009386 10960553 10901192 10833653 10759636 10679588 10593612 
2225.603 10503070 10409901 10317939 10232036 10156052 10092258 10040849 
2228.978 9999753 9965441 9934455 9903437 9869336 9830765 9786402 9736384 
2232.835 9681900 9626135 9573427 9528921 9496712 9478865 9474734 9480999 
2236.693 9492275 9504264 9512664 9515746 9513578 9507347 9498473 9488821 
2240.550 9479339 9470636 9463388 9458038 9454415 9451943 9449437 9444561 
2244.408 9436028 9422889 9405214 9384763 9364111 9345931 9332220 9324671 
2248.265 9322707 9325652 9331881 9339295 9345897 9350433 9352126 9352329 
2252.123 9353548 9359236 9373455 9399391 9437145 9484419 9536508 9586637 
2255.980 9628406 9657439 9671905 9672888 9664452 9650494 9635181 9621800 
2259.837 9611738 9605370 9602829 9603710 9607707 9614855 9624747 9636874 
2263.695 9650392 9664520 9677733 9689388 9698706 9705008 9709073 9711242 
2267.552 9712597 9713817 9715478 9716731 9716697 9713784 9706769 9695283 
2271.410 9680138 9663063 9646157 9631285 9618954 9608758 9599984 9591108 
2275.267 9581726 9572411 9564180 9558083 9554831 9554052 9553815 9552291 
2279.125 9547854 9539082 9526380 9510090 9491497 9471347 9450724 9430204 
2282.982 9410903 9393838 9379516 9368275 9359472 9351381 9342749 9332051 
2286.839 9318780 9303953 9289261 9275992 9265634 9257748 9251419 9245224 
2290.697 9238286 9230230 9222005 9215271 9210972 9209788 9211277 9213815 
2294.554 9216421 9217809 9217910 9216862 9215440 9213883 9212496 9211514 
2298.412 9210769 9210634 9211684 9214323 9218824 9224646 9230636 9236052 
2302.269 9240181 9243329 9246375 9251249 9259305 9271287 9287298 9306017 
2306.126 9325957 9345795 9364687 9381751 9396716 9409108 9417946 9422483 
2309.984 9421839 9415846 9405079 9391231 9375724 9360590 9347623 9337467 
2313.841 9330967 9328631 9330831 9338111 9350975 9369426 9393466 9422449 
2317.699 9455769 9492750 9532578 9574951 9619123 9664757 9710666 9755258 
2321.556 9796467 9831545 9857100 9869879 9867167 9847373 9810294 9758309 
2325.414 9695047 9625864 9556694 9492987 9438872 9397089 9367971 9351381 
2329.271 9345490 9348503 9358660 9374031 9392213 9411377 9429086 9444019 
2333.128 9455668 9465150 9474022 9484690 9498947 9517439 9539386 9563197 
2336.986 9586197 9606623 9622884 9634538 9641719 9645310 9645920 9645107 
2340.843 9644091 9643854 9644464 9644971 9642296 9632471 9611061 9575155 
2344.701 9525127 9465996 9406027 9356866 9329241 9330730 9364788 9430272 
2348.558 9521910 9631996 9752650 9875675 9993989 10102669 10198656 10281364 
2352.416 10351871 10413024 10467634 10518719 10568284 10617379 10666106 
2355.791 10713955 10759466 10801788 10839360 10871463 10897455 10917365 
2359.166 10931975 10942033 10949407 10955285 10961062 10967553 10975063 
2362.541 10983932 10993957 11005274 11017848 11031442 11045649 11059347 
2365.917 11071038 11079094 11081949 11078448 11068115 11051121 11028452 
2369.292 11001229 10970815 10938703 10906187 10874148 10843640 10814595 
2372.667 10787047 10759772 10731514 10700710 10666954 10630486 10592491 
2376.042 10555044 10520824 10491428 10468278 10451409 10439768 10431893 
2379.417 10426158 10420694 10415162 10409528 10404573 10401689 10402741 
2382.793 10409324 10422730 10443943 10472725 10508264 10548729 10591880 
2386.168 10635715 10678602 10719389 10758209 10795777 10833210 10872109 
2389.543 10913831 10959500 11009862 11065090 11124745 11187842 11253261 
2392.918 11319301 11384672 11448283 11509623 11568727 11625626 11680490 
2396.294 11733286 11783602 11831064 11875602 11917727 11958051 11997663 
2399.669 12037382 12077444 12116999 12154923 12189340 12218579 12242095 
2403.044 12259749 12272496 12282278 12291481 12302082 12316329 12335589 
2406.419 12360543 12390782 12425252 12462043 12498870 12534168 12566738 
2409.795 12596957 12626497 12657437 12692542 12733791 12782346 12837699 
2413.170 12898553 12962728 13027800 13092266 13155172 13216584 13277969 
2416.545 13341004 13407944 13481251 13562331 13652007 13749911 13854746 
2419.920 13964089 14076129 14188814 14301152 14413039 14525195 14638133 
2423.296 14752850 14869517 14987930 15107645 15228216 15349198 15470833 
2426.671 15593394 15717948 15845733 15978713 16118852 16268529 16430199 
2430.046 16605321 16795184 17000016 17218838 17451220 17696290 17953930 
2433.421 18224818 18510018 18810180 19126370 19458352 19805188 20165002 
2436.797 20534844 20911050 21288832 21662628 22026184 22372738 22695690 
2440.172 22988768 23246246 23463306 23636074 23761698 23839014 23868032 
2443.547 23850774 23791062 23693914 23565022 23410606 23235934 23046100 
2446.922 22844858 22635996 22422314 22207166 21993452 21783850 21581172 
2450.298 21387116 21203168 21030390 20869642 20722090 20589178 20472320 
2453.673 20372610 20290910 20226892 20179718 20148204 20131302 20128352 
2457.048 20139320 20164900 20205614 20261886 20333442 20419076 20516988 
2460.423 20625276 20742212 20866340 20997040 21134424 21278984 21431704 
2463.799 21593882 21766570 21951070 22148692 22360494 22587686 22831308 
2467.174 23092152 23370672 23666970 23980380 24310524 24656172 25016312 
2470.549 25389816 25775596 26172244 26578516 26993208 27415214 27844166 
2473.924 28280404 28724830 29179354 29646376 30128072 30626304 31143046 
2477.300 31678654 32233660 32806848 33395820 33995912 34600172 35199488 
2480.675 35783120 36338644 36854076 37316940 37714660 38034908 38264664 
2484.050 38391004 38402192 38288544 38044528 37669196 37166872 36546920 
2487.425 35822124 35008952 34124640 33187258 32215278 31225392 30233456 
2490.801 29253918 28299180 27380206 26506662 25686158 24924326 24224644 
2494.176 23588110 23013188 22496426 22033294 21618538 21247600 20916786 
2497.551 20623714 20366812 20145218 19957286 19800818 19671862 19565476 
2500.926 19476024 19398650 19328840 19264100 19203282 19146696 19094724 
2504.302 19047950 19006166 18968712 18933928 18900116 18865716 18828828 
2507.677 18788864 18745170 18697706 18646790 18593114 18537196 18479486 
2511.052 18420472 18360120 18298840 18237050 18175202 18114398 18055294 
2514.427 17998374 17943950 17891464 17840124 17789172 17738120 17686972 
2517.802 17636692 17588556 17543428 17502272 17465190 17431560 17400484 
2521.178 17371102 17342376 17314168 17286480 17258864 17231902 17205150 
2524.553 17178642 17152410 17126492 17100780 17075860 17052256 17030304 
2527.928 17010904 16994468 16981410 16972348 16967146 16965492 16967008 
2531.303 16971038 16977136 16985614 16996812 17011526 17029786 17051324 
2534.679 17075138 17099504 17123458 17146034 17167404 17188950 17211768 
2538.054 17237314 17265586 17295788 17326100 17354514 17379482 17400072 
2541.429 17416590 17429456 17439492 17447254 17452634 17455600 17456704 
2544.804 17456600 17456670 17458636 17463602 17472296 17484300 17498686 
2548.180 17514416 17530284 17546362 17563024 17581070 17601876 17625822 
2551.555 17653428 17684314 17717894 17753032 17789034 17825072 17860426 
2554.930 17895194 17929688 17964772 18001898 18042446 18087592 18137784 
2558.305 18192858 18251392 18311938 18372700 18432192 18489998 18546150 
2561.681 18601656 18657686 18715384 18775406 18837964 18902468 18968228 
2565.056 19034240 19099294 19162972 19225100 19286302 19347618 19410256 
2568.431 19475262 19543086 19613622 19686044 19759064 19831648 19902926 
2571.806 19972480 20041318 20110410 20180900 20253936 20330422 20410394 
2575.182 20493784 20580492 20669544 20761048 20854936 20951312 21050876 
2578.557 21154322 21262142 21374724 21492280 21614114 21739850 21869282 
2581.932 22002374 22139938 22283440 22434526 22595226 22766706 22950096 
2585.307 23145304 23352176 23570198 23799042 24038650 24289358 24551116 
2588.683 24824154 25107824 25400812 25701346 26006906 26314372 26620472 
2592.058 26921534 27214160 27495196 27761402 28009922 28238464 28444062 
2595.433 28624414 28776942 28899598 28991048 29050630 29079220 29078228 
2598.808 29050346 28999088 28927860 28840002 28738990 28626678 28504808 
2602.184 28374162 28234964 28087538 27932388 27770408 27603296 27432896 
2605.559 27261398 27090816 26923156 26759718 26601766 26450422 26306592 
2608.934 26170906 26043986 25925790 25816032 25713790 25618144 25527930 
2612.309 25442618 25361890 25285530 25214032 25147248 25085040 25027330 
2615.685 24974090 24925800 24883482 24849378 24825206 24813524 24815804 
2619.060 24832434 24862816 24905588 24958402 25020066 25089428 25166628 
2622.435 25252624 25349314 25457936 25579870 25715688 25864560 26025340 
2625.810 26195964 26374222 26558122 26745938 26936164 27127424 27318594 
2629.186 27507692 27692672 27871088 28040352 28198332 28343108 28473636 
2632.561 28588846 28688230 28770640 28834584 28877892 28898608 28895066 
2635.936 28866170 28811780 28733078 28631774 28510432 28371898 28219406 
2639.311 28056256 27885962 27711460 27536216 27362100 27191550 27025964 
2642.687 26866436 26714188 26570380 26436686 26314550 26205852 26111542 
2646.062 26032306 25968246 25918652 25882954 25860200 25849966 25851936 
2649.437 25865898 25891922 25929450 25978060 26036740 26104082 26178508 
2652.812 26258544 26342290 26428306 26515256 26601836 26687516 26771556 
2656.188 26853852 26934400 27012988 27090146 27166046 27241606 27317640 
2659.563 27395520 27476134 27560400 27648706 27740598 27835830 27933590 
2662.938 28033884 28136638 28242884 28353682 28469922 28592386 28721292 
2666.313 28856290 28996856 29142392 29292234 29446204 29604056 29765836 
2669.688 29931368 30100372 30272676 30447924 30626162 30807280 30991500 
2673.064 31179002 31370040 31564690 31762776 31964376 32169320 32377712 
2676.439 32589566 32804594 33022948 33244022 33467140 33691520 33915800 
2679.814 34138760 34359148 34575916 34788520 34997208 35202544 35405568 
2683.189 35607324 35808808 36010604 36213216 36416716 36620924 36826128 
2686.565 37032544 37240688 37451316 37665368 37883360 38106340 38334832 
2689.940 38569492 38810980 39059744 39316412 39581108 39854576 40136752 
2693.315 40428056 40728772 41039012 41358656 41687732 42025340 42370736 
2696.690 42722988 43080980 43443476 43809572 44178252 44548860 44920856 
2700.066 45293828 45667596 46042316 46417840 46794020 47170488 47546396 
2703.441 47920628 48292452 48660916 49025244 49384868 49739072 50086828 
2706.816 50427272 50758788 51080080 51390164 51688036 51973268 52245536 
2710.191 52504808 52750732 52983204 53202320 53408056 53600956 53781380 
2713.567 53949420 54104804 54246352 54372436 54481356 54571176 54640576 
2716.942 54688788 54715356 54720020 54702356 54661696 54597104 54506936 
2720.317 54390124 54245152 54071404 53868504 53637132 53378604 53095108 
2723.692 52789156 52463452 52120624 51762464 51391320 51009164 50618892 
2727.068 50224024 49829364 49440264 49061860 48698612 48353964 48030164 
2730.443 47728536 47449628 47194272 46962884 46755748 46573500 46415996 
2733.818 46282800 46173156 46085936 46020288 45974500 45947280 45936856 
2737.193 45941056 45957776 45984736 46020804 46065228 46117808 46178940 
2740.569 46248852 46327512 46414740 46510064 46613672 46726156 46848824 
2743.944 46984000 47133772 47300040 47483888 47685528 47904132 48138392 
2747.319 48386892 48647908 48919836 49200624 49488532 49781984 50079504 
2750.694 50380388 50684236 50991388 51301892 51615640 51931632 52248336 
2754.070 52563740 52875856 53182392 53481988 53772980 54053840 54322984 
2757.445 54578616 54819100 55043244 55250080 55439660 55612376 55768808 
2760.820 55909992 56037164 56152348 56257904 56357072 56453472 56549888 
2764.195 56648180 56748760 56849928 56948100 57038656 57116200 57175308 
2767.571 57211028 57219116 57196440 57140876 57051392 56928420 56773644 
2770.946 56589220 56378348 56143824 55888248 55614108 55323424 55018384 
2774.321 54701192 54374616 54041980 53707168 53373848 53045984 52726936 
2777.696 52419188 52124884 51845528 51581984 51335156 51105388 50892992 
2781.072 50698124 50520280 50358284 50210484 50074708 49948636 49830184 
2784.447 49717444 49608972 49503016 49397716 49290212 49176912 49054292 
2787.822 48918244 48765704 48594692 48404112 48194772 47967032 47722396 
2791.197 47461600 47185408 46894592 46590172 46273584 45946984 45612868 
2794.573 45274036 44933384 44593436 44256172 43923096 43595216 43272712 
2797.948 42955384 42642640 42334536 42031256 41733688 41443544 41162664 
2801.323 40892816 40635216 40390276 40157284 39935608 39724064 39522564 
2804.698 39331684 39152704 38987352 38837500 38704184 38587812 38488060 
2808.073 38403964 38334180 38277688 38233364 38200800 38179888 38170660 
2811.449 38173448 38188608 38216324 38256524 38308340 38370592 38441540 
2814.824 38519304 38601940 38687556 38774860 38862684 38950276 39036868 
2818.199 39122248 39205972 39288480 39370356 39452460 39536068 39622232 
2821.574 39711936 39805876 39904548 40008808 40119744 40238740 40367840 
2824.950 40509020 40664288 40835120 41022696 41228388 41452768 41697360 
2828.325 41963036 42251048 42561716 42894596 43247636 43617308 43998072 
2831.700 44383132 44764312 45132332 45478556 45794492 46073556 46311588 
2835.075 46506600 46659120 46771320 46846496 46888096 46899208 46882708 
2838.451 46841368 46778740 46698964 46607364 46509588 46412232 46321172 
2841.826 46242108 46180412 46140540 46126836 46143124 46192684 46278452 
2845.201 46401948 46563948 46763168 46996556 47258848 47541956 47835320 
2848.576 48126620 48401484 48646316 48849460 49002248 49101000 49146596 
2851.952 49144740 49104224 49036152 48953104 48866108 48786352 48723076 
2855.327 48682932 48671592 48692200 48746392 48834480 48956256 49110348 
2858.702 49295668 49510404 49752260 50018416 50304932 50607724 50921828 
2862.077 51243240 51567244 51889656 52206784 52513932 52806592 53080352 
2865.453 53330536 53553464 53746016 53906428 54033428 54127172 54188164 
2868.828 54218084 54219700 54196464 54153296 54094820 54026260 53951520 
2872.203 53874132 53797056 53722956 53655164 53597692 53555036 53531764 
2875.578 53532208 53559236 53614528 53698320 53810140 53948408 54111632 
2878.954 54297716 54504272 54728176 54966112 55214292 55469552 55729136 
2882.329 55991140 56254396 56518452 56782744 57047312 57312152 57577456 
2885.704 57843760 58111624 58381400 58653424 58926992 59200996 59474068 
2889.079 59744996 60012704 60277040 60538220 60796624 61052972 61307524 
2892.455 61560620 61812148 62061680 62308520 62550992 62786704 63012280 
2895.830 63225016 63421368 63599012 63756892 63894904 64013108 64112456 
2899.205 64192876 64254268 64295948 64317732 64319424 64302020 64267060 
2902.580 64216344 64152436 64077504 63994332 63905344 63813188 63720324 
2905.956 63629048 63540824 63457260 63379152 63307612 63243716 63189336 
2909.331 63146068 63115568 63099056 63097180 63109288 63133656 63168064 
2912.706 63208952 63251764 63291400 63321420 63334876 63325324 63286720 
2916.081 63215168 63109016 62969492 62799952 62605484 62391908 62164548 
2919.457 61927036 61681324 61426708 61160488 60878348 60576048 60250240 
2922.832 59899612 59525900 59133104 58727540 58315836 57904592 57498664 
2926.207 57101156 56713680 56336320 55968824 55610600 55260880 54919032 
2929.582 54584216 54255924 53934036 53618876 53311732 53014052 52727608 
2932.958 52453660 52192548 51943956 51706736 51480016 51262480 51053620 
2936.333 50853016 50660108 50473720 50292656 50114792 49938896 49763812 
2939.708 49589584 49416948 49247308 49082116 48922472 48769304 48622708 
2943.083 48482756 48349112 48221356 48098820 47980392 47864508 47749616 
2946.458 47633868 47516080 47395740 47273512 47150504 47028788 46910872 
2949.834 46798816 46695092 46601644 46520280 46453124 46402132 46369648 
2953.209 46358184 46370312 46408324 46473668 46566456 46684504 46823392 
2956.584 46976176 47133552 47285000 47419984 47528800 47603476 47639264 
2959.959 47633648 47587096 47502736 47385652 47242776 47081812 46911388 
2963.335 46740032 46575272 46423700 46290688 46179640 46093120 46031780 
2966.710 45995532 45982896 45991188 46016788 46054508 46099308 46145368 
2970.085 46187380 46220844 46241736 46247008 46234220 46201380 46147432 
2973.460 46071860 45975528 45859924 45727632 45581620 45425212 45260948 
2976.836 45091128 44917176 44740144 44560244 44377664 44192448 44004636 
2980.211 43814296 43621812 43427912 43233876 43041684 42854328 42675096 
2983.586 42507744 42355540 42220916 42104992 42007200 41925668 41857576 
2986.961 41800008 41750796 41709068 41675480 41651884 41640720 41644588 
2990.337 41664904 41702760 41757984 41830616 41921104 42030888 42162312 
2993.712 42318684 42502336 42714140 42951800 43209096 43475188 43734664 
2997.087 43970352 44162332 44292788 44348344 44320928 44211412 44028764 
3000.462 43790952 43521112 43245512 42991784 42783020 42637668 42567824 
3003.838 42577544 42663548 42814760 43014572 43239912 43464128 43661088 
3007.213 43805100 43875768 43860888 43756320 43566312 43302328 42980660 
3010.588 42619316 42235232 41844260 41459108 41089088 40741728 40421624 
3013.963 40131556 39872660 39644340 39444912 39271908 39122792 38994964 
3017.339 38886056 38794312 38717728 38654596 38602736 38560220 38525136 
3020.714 38495772 38470936 38449972 38432200 38417396 38405048 38394804 
3024.089 38386156 38378340 38371204 38364656 38358828 38354160 38351012 
3027.464 38349636 38349888 38351156 38352568 38353036 38351808 38348516 
3030.840 38343480 38337404 38331468 38326292 38321948 38318076 38313192 
3034.215 38305880 38294916 38279752 38260284 38237124 38210964 38182456 
3037.590 38151704 38118748 38083228 38045248 38005216 37963668 37921288 
3040.965 37878444 37835456 37792548 37750044 37708880 37670464 37636352 
3044.341 37607808 37585588 37569292 37558200 37550904 37546428 37544436 
3047.716 37545560 37550760 37561056 37577096 37598488 37624900 37655356 
3051.091 37689652 37728104 37771696 37821612 37878912 37944032 38016644 
3054.466 38096468 38183144 38277144 38379784 38492980 38618632 38757724 
3057.842 38910120 39073444 39243144 39413020 39575120 39720108 39838304 
3061.217 39920096 39956456 39939784 39864960 39729328 39533600 39281700 
3064.592 38981264 38641772 38275264 37894420 37511020 37136152 36779028 
3067.967 36445544 36139932 35863756 35616888 35397732 35204304 35034092 
3071.343 34884304 34752804 34637456 34536380 34448668 34373600 34310988 
3074.718 34260792 34222680 34195364 34177224 34165432 34156900 34148688 
3078.093 34138188 34123780 34105248 34082668 34057152 34029884 34002040 
3081.468 33974880 33949296 33926508 33907736 33893732 33885420 33882556 
3084.844 33885060 33891652 33900536 33909172 33914188 33911928 33898208 
3088.219 33868548 33819188 33747276 33651632 33533066 33394818 33241588 
3091.594 33079152 32913954 32751892 32597174 32453082 32321348 32202114 
3094.969 32094750 31998332 31911488 31832938 31761528 31695798 31634428 
3098.344 31575520 31517192 31457380 31394188 31326592 31254124 31177328 
3101.720 31097164 31015556 30933748 30852884 30773490 30695250 30617700 
3105.095 30540128 30462426 30384384 30306392 30228768 30152046 30076154 
3108.470 30000952 29926116 29851044 29775454 29698954 29621366 29543050 
3111.845 29464002 29384614 29305206 29226168 29147674 29069726 28992252 
3115.221 28915182 28838266 28761152 28684158 28607638 28532194 28458530 
3118.596 28386896 28317254 28249072 28181326 28112670 28041836 27967832 
3121.971 27890554 27810254 27728236 27645844 27564564 27485558 27409850 
3125.346 27337400 27268102 27201144 27136172 27072266 27009428 26947444 
3128.722 26886458 26826784 26768244 26710700 26653728 26597116 26540474 
3132.097 26483490 26426300 26369224 26312542 26256676 26201876 26148700 
3135.472 26097290 26048208 26001524 25957306 25915380 25874936 25835338 
3138.847 25795498 25754642 25712174 25667738 25621306 25572700 25522026 
3142.223 25469426 25414898 25358904 25302458 25246690 25192928 25142544 
3145.598 25096166 25053972 25015292 24979248 24944576 24910150 24875376 
3148.973 24840082 24804120 24767708 24730700 24693032 24654524 24614932 
3152.348 24574046 24532288 24489974 24447944 24406828 24367646 24330638 
3155.724 24296262 24264306 24234244 24205376 24176720 24147962 24118572 
3159.099 24088942 24059488 24031122 24004472 23980276 23958742 23939870 
3162.474 23923626 23910252 23899644 23892292 23888336 23888196 23891592 
3165.849 23898630 23908852 23922086 23938226 23957796 23981292 24009550 
3169.225 24043518 24084354 24133108 24190838 24258700 24337926 24428980 
3172.600 24532498 24648352 24776442 24916430 25068576 25233380 25411808 
3175.975 25605348 25815328 26042684 26287688 26549316 26826042 27114692 
3179.350 27411720 27712660 28012890 28307068 28589802 28855972 29100478 
3182.726 29318322 29505848 29659538 29777476 29858640 29904000 29915644 
3186.101 29897044 29852286 29785922 29701828 29603916 29495528 29379794 
3189.476 29260156 29139950 29022184 28909904 28804416 28706388 28614468 
3192.851 28526638 28440100 28352304 28260990 28164816 28063290 27956418 
3196.227 27844944 27729788 27612584 27495054 27379606 27268174 27162696 
3199.602 27064614 26974592 26892592 26818430 26751330 26690476 26635480 
3202.977 26585772 26540898 26500006 26462640 26428164 26395982 26366126 
3206.352 26338594 26313846 26292264 26274418 26260620 26251150 26246082 
3209.728 26245310 26248582 26255586 26265830 26278888 26294096 26311520 
3213.103 26330954 26352852 26377674 26405560 26436686 26470706 26506980 
3216.478 26544772 26583272 26621880 26660280 26698510 26736740 26775752 
3219.853 26816210 26859282 26905704 26956116 27010450 27067964 27127460 
3223.229 27187422 27246194 27302784 27356314 27407416 27456228 27503456 
3226.604 27549772 27595636 27641608 27688328 27736676 27787610 27842046 
3229.979 27900412 27962354 28026780 28092558 28158064 28222342 28285318 
3233.354 28347102 28408650 28470806 28534634 28600312 28668478 28738956 
3236.729 28811498 28886070 28962110 29038762 29115570 29191898 29267882 
3240.105 29343526 29419822 29497408 29576674 29657588 29739544 29821622 
3243.480 29903362 29984868 30066814 30150554 30237258 30327992 30422302 
3246.855 30519368 30617628 30715592 30812332 30907670 31002140 31096026 
3250.230 31190074 31284500 31378802 31472980 31566970 31661190 31756752 
3253.606 31854402 31955176 32059218 32165858 32273952 32381926 32488466 
3256.981 32592244 32692940 32790874 32886538 32980942 33075184 33170198 
3260.356 33266772 33364940 33464812 33565676 33666600 33766396 33864000 
3263.731 33958432 34049340 34136536 34220708 34302456 34382676 34462120 
3267.107 34541148 34619620 34696848 34772368 34845240 34914972 34981548 
3270.482 35045116 35106616 35166504 35225432 35283360 35340076 35395000 
3273.857 35447808 35498180 35546184 35592256 35636348 35678464 35718216 
3277.232 35755092 35788660 35819028 35846876 35873256 35899708 35927640 
3280.608 35957728 35989908 36023424 36057120 36089884 36120776 36149692 
3283.983 36176556 36202052 36226472 36250172 36273292 36295772 36317748 
3287.358 36338928 36359716 36379352 36398016 36414844 36428856 36439884 
3290.733 36447488 36452176 36455160 36458152 36462732 36470372 36481648 
3294.109 36496568 36514232 36533368 36552508 36570456 36586496 36599940 
3297.484 36610900 36619264 36625248 36629108 36631052 36631484 36630836 
3300.859 36629500 36627552 36624888 36621356 36616812 36611548 36606216 
3304.234 36601960 36600088 36601960 36608052 36618256 36632024 36648176 
3307.610 36665880 36684916 36705216 36727496 36752016 36778920 36807336 
3310.985 36836588 36865512 36893608 36921136 36949164 36978968 37012088 
3314.360 37049216 37090500 37135180 37182352 37230184 37278128 37325352 
3317.735 37371864 37417980 37464640 37513012 37564848 37621140 37682572 
3321.111 37748884 37818792 37890008 37960196 38027240 38089920 38148484 
3324.486 38204092 38258296 38312140 38366248 38419676 38471332 38519920 
3327.861 38564820 38606464 38645432 38682920 38719140 38753952 38786308 
3331.236 38814892 38839096 38858372 38873268 38884316 38891888 38895988 
3334.612 38896020 38891384 38881200 38865908 38846088 38822356 38795180 
3337.987 38764388 38729176 38688752 38642716 38591436 38535960 38478032 
3341.362 38419024 38359768 38300380 38239764 38177028 38111152 38041852 
3344.737 37968944 37892720 37813192 37730056 37643252 37552096 37456916 
3348.113 37358360 37257256 37155388 37053656 36952884 36852888 36753712 
3351.488 36654736 36555824 36457112 36358672 36260940 36164132 36068316 
3354.863 35973348 35878980 35784772 35690052 35594088 35496204 35395612 
3358.238 35292348 35186768 35079888 34973108 34867968 34765760 34666952 
3361.614 34571572 34478620 34387552 34297540 34208376 34120588 34034468 
3364.989 33950692 33869300 33789784 33711500 33633196 33553970 33473224 
3368.364 33390522 33306264 33220664 33134292 33047866 32961496 32875460 
3371.739 32789730 32704302 32619104 32534208 32449796 32366328 32284550 
3375.115 32204966 32127932 32053690 31982068 31912916 31845846 31780458 
3378.490 31716648 31653672 31590916 31527064 31461154 31391944 31318932 
3381.865 31242768 31164370 31085846 31008794 30934854 30864302 30797142 
3385.240 30732484 30669504 30607710 30546988 30487768 30430832 30376566 
3388.615 30325150 30276050 30228518 30181454 30133898 30085174 30034574 
3391.991 29981920 29927214 29870528 29812396 29753134 29693134 29632754 
3395.366 29571566 29509678 29446486 29382488 29318038 29254272 29192464 
3398.741 29133606 29078086 29025442 28974470 28922974 28869640 28812880 
3402.116 28752090 28687310 28619034 28547868 28474060 28398110 28320438 
3405.492 28241612 28162942 28085948 28011866 27942070 27876564 27814844 
3408.867 27755326 27696204 27635782 27572508 27505786 27435756 27362700 
3412.242 27287190 27209822 27130846 27050402 26968776 26886564 26804368 
3415.617 26723104 26643758 26566294 26490250 26414608 26337606 26257310 
3418.993 26172630 26082794 25989000 25892976 25797290 25704228 25615402 
3422.368 25531514 25451892 25375694 25301336 25227586 25153464 25078722 
3425.743 25003044 24926678 24849520 24771040 24691594 24610796 24528608 
3429.118 24445316 24360882 24275028 24187894 24099448 24009900 23920196 
3432.494 23831698 23745284 23662490 23583912 23509544 23438440 23369204 
3435.869 23300116 23229956 23157642 23083138 23006688 22929066 22850866 
3439.244 22772190 22693106 22613308 22532334 22450296 22367854 22286336 
3442.619 22207166 22131536 22059544 21989932 21920124 21847328 21768972 
3445.995 21683736 21592420 21497572 21403058 21312498 21228358 21150878 
3449.370 21078422 21008168 20937370 20864046 20787846 20709890 20631670 
3452.745 20554818 20479716 20405530 20331150 20254804 20175590 20093786 
3456.120 20010506 19927624 19846944 19769538 19695438 19623988 19553622 
3459.496 19482366 19408974 19332444 19252600 19170036 19086310 19002530 
3462.871 18920292 18840558 18763090 18687570 18612620 18536988 18460196 
3466.246 18381998 18302986 18223918 18145456 18067764 17990536 17912942 
3469.621 17834534 17755378 17675722 17596320 17517484 17439252 17360446 
3472.997 17279412 17195394 17107776 17017624 16927284 16839442 16756613 
3476.372 16680339 16610691 16546285 16485192 16425071 16363928 16300108 
3479.747 16232653 16160978 16084947 16004978 15921928 15837520 15754126 
3483.122 15673701 15597722 15526323 15458369 15392005 15324450 15253748 
3486.498 15178871 15100028 15018215 14935389 14853504 14773932 14697801 
3489.873 14625522 14557196 14493059 14433317 14377589 14325396 14275744 
3493.248 14226610 14176045 14122267 14063876 14000805 13934321 13866411 
3496.623 13799811 13737052 13679841 13628860 13582910 13540077 13497315 
3499.999 13451824 13401280 13344251 13280600 13210811 13136525 13060442 
3503.374 12984577 12911558 12842921 12780027 12722430 12669105 12618038 
3506.749 12566465 12512068 12453314 12389657 12322295 12253887 12186784 
3510.124 12123678 12066543 12015240 11969564 11928114 11889837 11853298 
3513.500 11817479 11781730 11745200 11707176 11667216 11624673 11579650 
3516.875 11532318 11483324 11433280 11382903 11332701 11283423 11235409 
3520.250 11188760 11143510 11098979 11054146 11007789 10958752 10907206 
3523.625 10854069 10801109 10750194 10702612 10658160 10614900 10570016 
3527.000 10520383 10464036 10400739 10332394 10262094 10193262 10128818 
3530.376 10069842 10016604 9968153 9923268 9880963 9840628 9801415 9762511 
3534.233 9723203 9682341 9639619 9595343 9550598 9507177 9466776 9430305 
3538.091 9397563 9367666 9339058 9310520 9281747 9252908 9224781 9198111 
3541.948 9172426 9146639 9118486 9085123 9043747 8992563 8931170 8860589 
3545.805 8784304 8706782 8633432 8569015 8516941 8478220 8450751 8430075 
3549.663 8410481 8385719 8351603 8306512 8252005 8192676 8133861 8080792 
3553.520 8037181 8003532 7978388 7959287 7943257 7927667 7911402 7893249 
3557.378 7873005 7850568 7825164 7796691 7764847 7729835 7693241 7657593 
3561.235 7625355 7600133 7583880 7577643 7579429 7585094 7587454 7577508 
3565.093 7547163 7490155 7405213 7297677 7178209 7061469 6960213 6883487 
3568.950 6833837 6807651 6797755 6795500 6794019 6787995 6775004 6754643 
3572.807 6728394 6698008 6665572 6632835 6600807 6570396 6541770 6514189 
3576.665 6487282 6460208 6432666 6405427 6379200 6356033 6337171 6323857 
3580.522 6316327 6314242 6317167 6324396 6335927 6351528 6370323 6389758 
3584.380 6405192 6410371 6397391 6359799 6293870 6201464 6091000 5975761 
3588.237 5871433 5790434 5740505 5722106 5729391 5752626 5780629 5803865 
3592.094 5814040 5807189 5783113 5745004 5698605 5651070 5608710 5576220 
3595.952 5555547 5546485 5545982 5550110 5553533 5551788 5541183 5520276 
3599.809 5489672 5452796 5414984 5381268 5356276 5342690 5340476 5348024 
3603.667 5362347 5380362 5398175 5412199 5418372 5412099 5389621 5348627 
3607.524 5290163 5219634 5145897 5079113 5027422 4993099 4972822 4959014 
3611.382 4942357 4915849 4878218 4833721 4791674 4762395 4752881 4764974 
3615.239 4794019 4830337 4862469 4880094 4875168 4844007 4787889 4713421 
3619.096 4630729 4551802 4488021 4447849 4434057 4445405 4476136 4519291 
3622.954 4568209 4619041 4671051 4725983 4785242 4847659 4906030 4947418 
3626.811 4953283 4905125 4792378 4621184 4418258 4223021 4075330 3996838 
3630.669 3986271 4025230 4089110 4154639 4204954 4233159 4240085 4232490 
3634.526 4218605 4204754 4193111 4182706 4170763 4155375 4137411 4119415 
3638.384 4105332 4098308 4098910 4105734 4116404 4128379 4141091 4156077 
3642.241 4176986 4207330 4249822 4304465 4367985 4434526 4495989 4543531 
3646.098 4568811 4564726 4526757 4453774 4348573 4216932 4069711 3920935 
3649.956 3786750 3683715 3625107 3616587 3656215 3732974 3830906 3929595 
3653.813 4009847 4055363 4055965 4012021 3934577 3843541 3760880 3703398 
3657.671 3678202 3682245 3705804 3737218 3767364 3790126 3803596 3808978 
3661.528 3809078 3806805 3804933 3806036 3812387 3826192 3849726 3884226 
3665.385 3929428 3982794 4039711 4092723 4132193 4147547 4129784 4074059 
3669.243 3984767 3877874 3779196 3715328 3705303 3752558 3843876 3953000 
3673.100 4046467 4092522 4064761 3954840 3777993 3575627 3398067 3282538 
3676.958 3240708 3259402 3312419 3372688 3422746 3455308 3473277 3484533 
3680.815 3497927 3518537 3546363 3579202 3614716 3653408 3698619 3754463 
3684.673 3822515 3898635 3972194 4029310 4053992 4035096 3970120 3868781 
3688.530 3749049 3632291 3535974 3467532 3425918 3405413 3400538 3407617 
3692.387 3425618 3453672 3490011 3530596 3569948 3603190 3627479 3643350 
3696.245 3654510 3666740 3684183 3708310 3736048 3761047 3775219 3771208 
3700.102 3745640 3700190 3641980 3581941 3532266 3503171 3499631 3522144 
3703.960 3566841 3627212 3695912 3767130 3835752 3899103 3955675 4005165 
3707.817 4046433 4078140 4097004 4098409 4077805 4031751 3960423 3869081 
3711.675 3768568 3673056 3596741 3550639 3538479 3558355 3602488 3661026 
3715.532 3723817 3782104 3830170 3865438 3888405 3901678 3908598 3911139 
3719.389 3910002 3904753 3893888 3877306 3856545 3835084 3817133 3806170 
3723.247 3803930 3808276 3814627 3817568 3812888 3800220 3784076 3772612 
3727.104 3775987 3801256 3850495 3918027 3993829 4063958 4114832 4138381 
3730.962 4132093 4102322 4060614 4019946 3988278 3963867 3937854 3897498 
3734.819 3833847 3747712 3650768 3562498 3502804 3482629 3502770 3555315 
3738.677 3630052 3718804 3817936 3926620 4043959 4163270 4270668 4342884 
3742.534 4351920 4274850 4106503 3873260 3630954 3448829 3373322 3410122 
3746.391 3530729 3691835 3850662 3970990 4032320 4027471 3964704 3861727 
3750.249 3739791 3617356 3506378 3414631 3349681 3317794 3323637 3366143 
3754.106 3437674 3524616 3611609 3685820 3738689 3768267 3777792 3773748 
3757.964 3761281 3743702 3721678 3695979 3670483 3652773 3651804 3673958 
3761.821 3719272 3780266 3843842 3895024 3923008 3924011 3904252 3876336 
3765.678 3855375 3852467 3868480 3895927 3921704 3932771 3920367 3883825 
3769.536 3830103 3772445 3724385 3695511 3689630 3704634 3734778 3773080 
3773.393 3813323 3851230 3884259 3912142 3935245 3954237 3968348 3975471 
3777.251 3972026 3954772 3922105 3876804 3825490 3779564 3749484 3742498 
3781.108 3759176 3793334 3834783 3871689 3894991 3900608 3889976 3868613 
3784.966 3843943 3822515 3806972 3797680 3792666 3790393 3789959 3791463 
3788.823 3795240 3800955 3807640 3814025 3819774 3826460 3836956 3854272 
3792.680 3879813 3910872 3941063 3961861 3965974 3950025 3918428 3882287 
3796.538 3857448 3857481 3888070 3944507 4012288 4070246 4095131 4069644 
3800.395 3987542 3860490 3716498 3594436 3527556 3530696 3597610 3705269 
3804.253 3823819 3921236 3972695 3965071 3901310 3800721 3694275 3614182 
3808.110 3579502 3593434 3644687 3717367 3795908 3870686 3939592 4005098 
3811.968 4070548 4135538 4193747 4232490 4238178 4199267 4115602 4000918 
3815.825 3884460 3799785 3771074 3805635 3890578 3999882 4100516 4163002 
3819.682 4165578 4100650 3979951 3833713 3701994 3617255 3594670 3629183 
3823.540 3701827 3787385 3862997 3914249 3935647 3932069 3915920 3902447 
3827.397 3903249 3923175 3958384 3999949 4037671 4063055 4072588 4068173 
3831.255 4056935 4046768 4046166 4060380 4090482 4134100 4184948 4235267 
3835.112 4275118 4294794 4286462 4246710 4178424 4090783 3999346 3920534 
3838.969 3865972 3840199 3840399 3858317 3883624 3907829 3925081 3932939 
3842.827 3932738 3927154 3920668 3918160 3923777 3941231 3972695 4018776 
3846.684 4078273 4149119 4228642 4315107 4407480 4504760 4604340 4699856 
3850.542 4778207 4819950 4801959 4702167 4512461 4249287 3959086 3701426 
3854.399 3526320 3454373 3474713 3559725 3677567 3804231 3923610 4027973 
3858.257 4115568 4187055 4243732 4286027 4313735 4327288 4327891 4317617 
3862.114 4298509 4270601 4233360 4186688 4133798 4083859 4050112 4046166 
3865.971 4079243 4146711 4233828 4316780 4370930 4375281 4322302 4222386 
3869.829 4103694 4001754 3942769 3935714 3969051 4021852 4070079 4097372 
3873.686 4099011 4082722 4063724 4058574 4078039 4123429 4186821 4254640 
3877.544 4311928 4345260 4345327 4309318 4242829 4159222 4077002 4016134 
3881.401 3991287 4007071 4056768 4123830 4187223 4225029 4222017 4175380 
3885.259 4097606 4014863 3955909 3943839 3985001 4069678 4176283 4280472 
3889.116 4359183 4396468 4386594 4334818 4256715 4171800 4099078 4051584 
3892.973 4033892 4044327 4077170 4125971 4184212 4246108 4307243 4362764 
3896.831 4408383 4440384 4455883 4454109 4437037 4409220 4376519 4344423 
3900.688 4316211 4291414 4266251 4234999 4193312 4139987 4079076 4018976 
3904.546 3970354 3942635 3940127 3961728 4001487 4051650 4104530 4154706 
3908.403 4199635 4238981 4273880 4305101 4333212 4358112 4380301 4400585 
3912.260 4420902 4442928 4467164 4491804 4512628 4524078 4521433 4501982 
3916.118 4467399 4422107 4373641 4328694 4292050 4265950 4250491 4245205 
3919.975 4250056 4265381 4291247 4325950 4364839 4401756 4429237 4441589 
3923.833 4437338 4419631 4395229 4372972 4360220 4360554 4373507 4394962 
3927.690 4420066 4443765 4463315 4476873 4483836 4484204 4477275 4462712 
3931.548 4441221 4415045 4388301 4366211 4352656 4350012 4357810 4372972 
3935.405 4391280 4409321 4424852 4437873 4449556 4461909 4476371 4492373 
3939.262 4507974 4519793 4524145 4518521 4501647 4475299 4443162 4410593 
3943.120 4382778 4364470 4357777 4362596 4376386 4394962 4414007 4429606 
3946.977 4439648 4443765 4443096 4439547 4435262 4432015 4429940 4429338 
3950.835 4430242 4432651 4437171 4444334 4453908 4465323 4476974 4486749 
3954.692 4493010 4494851 4492675 4488189 4483535 4480823 4481091 4484405 
3958.550 4489594 4494616 4497830 4497730 4493846 4487050 4478881 4471416 
3962.407 4467164 4468035 4474931 4488121 4506334 4527494 4549257 4568878 
3966.264 4584114 4594093 4598513 4598145 4594361 4588903 4583043 4578154 
3970.122 4575140 4574203 4575743 4579392 4584951 4591849 4599417 4607019 
3973.979 4614185 4620380 4625103 4628049 4629289 4628853 4626743 4624299 
3977.837 4621787 4620414 4621017 4623595 4627782 4632905 4637326 4640441 
3981.694 4641512 4640374 4637460 4633441 4628552 4623160 4617367 4611138 
3985.552 4605244 4600489 4598279 4600053 4606450 4617802 4633274 4651727 
3989.409 4671286 4690344 4707627 4722499 4733988 4742262 4747086 4748727 
3993.266 4747622 4744875 4741190 4738075 4736635 4737271 4740219 4744707 
3997.124 4750335 4756097 4761993 4767721 4773986 4781222 4789731 4799614 
##END=
