
##TITLE=Z382_2_c
##JCAMP-DX=5.01  $$ Nicolet v. 1
##DATATYPE=INFRARED SPECTRUM
##ORIGIN=UniL
##OWNER=Nicolet
##LONGDATE=2011/09/09
##TIME=10:21:26
##SPECTROMETER/DATA SYSTEM=Nicolet iS5
##DATA PROCESSING=
Ratio against background
%Transmittance->Absorbance
Truncated
ElementMultiply or ElementDivide
##COMMENTS=
Number of sample scans: 32
Collection length: 51.19 sec
Sample gain: 2.0
Background collected on: Ven Sep 09 10:10:32 2011 (GMT+02:00);
Number of background scans: 32
Background gain: 2.0
Sample spacing:  1.000
Number of scan points: 12415
Resolution points: 8192
Number of FFT points: 65536
Apodization: N-B fort;
Phase correction: Mertz;
Laser frequency: 15798.0 cm-1
Number of rejected sample scans: 0
Number of rejected background scans: 0
Bench serial number: ASB1000141;
##RESOLUTION=4.000
##XUNITS=1/CM
##YUNITS=ABSORBANCE
##FIRSTX=649.893372
##LASTX=4000.122314
##FIRSTY=0.078374
##MAXX=4000.122314
##MINX=649.893372
##MAXY=0.213400
##MINY=0.001095
##XFACTOR=1.000000
##YFACTOR=1.000000E-009
##NPOINTS=6950
##DELTAX=0.482117
##ZPD=6100
##XYDATA=(X++(Y..Y))
649.893 78373960 78397064 78486688 78664808 78927992 79253408 79612176 
653.268 79987656 80379568 80799928 81258848 81752008 82256504 82741616 
656.643 83181288 83567936 83915784 84252280 84603328 84979448 85372864 
660.018 85763328 86133216 86476208 86802432 87132352 87487760 87881880 
663.393 88318016 88791816 89298784 89835104 90389432 90932336 91401072 
666.767 91689240 91679944 91294384 90552544 89574808 88522800 87521160 
670.142 86617344 85797968 85013176 84212016 83360904 82456688 81521248 
673.517 80587104 79677576 78794768 77922952 77039672 76133352 75210392 
676.892 74294864 73417432 72603872 71863032 71190312 70571480 69995232 
680.267 69456832 68959288 68507008 68099232 67726760 67375120 67030408 
683.642 66686780 66349528 66031636 65746308 65498544 65282992 65085836 
687.016 64893544 64699716 64509356 64335600 64193188 64089216 64017832 
690.391 63963308 63906184 63831380 63732752 63613900 63482372 63344992 
693.766 63202748 63053460 62895568 62732452 62574604 62435556 62325580 
697.141 62246836 62191504 62146428 62097992 62041228 61980308 61925544 
700.516 61885996 61863072 61847864 61825940 61784068 61717836 61634468 
703.890 61549320 61478312 61429684 61400680 61379876 61355492 61320916 
707.265 61279516 61241364 61218092 61215536 61232472 61262616 61302984 
710.640 61359612 61450104 61598804 61829032 62154916 62576056 63078784 
714.015 63638792 64227528 64811944 65352200 65805064 66123680 66271172 
717.390 66240220 66068204 65844200 65685288 65716244 66016780 66585728 
720.765 67325160 68055000 68566216 68657176 68206296 67194800 65705484 
724.139 63888804 61922108 59976336 58172196 56580800 55226000 54096584 
727.514 53163372 52391300 51749548 51211104 50755060 50366616 50035220 
730.889 49754044 49517272 49318200 49147448 48994092 48847308 48699984 
734.264 48550376 48402412 48261900 48133172 48016212 47907424 47800804 
737.639 47692960 47584692 47481560 47390828 47316960 47259880 47213996 
741.013 47172260 47128604 47081700 47034252 46990572 46952656 46918180 
744.388 46881156 46835464 46778704 46714720 46652184 46600984 46567896 
747.763 46553180 46551848 46556348 46562104 46569592 46583864 46610608 
751.138 46652220 46704684 46759884 46808080 46844284 46870744 46896584 
754.513 46932428 46985036 47053676 47130300 47203732 47264684 47310424 
757.888 47345816 47380108 47422128 47476864 47544916 47624292 47714296 
761.262 47817192 47937872 48081500 48250048 48441788 48653284 48884164 
764.637 49140808 49438928 49800380 50245672 50790928 51441636 52195872 
768.012 53049580 54005660 55081384 56317384 57778768 59557252 61779024 
771.387 64586088 68127328 72529312 77842328 83989304 90699136 97518120 
774.762 103781624 108702872 111573792 111859712 109384328 104366608 97384008 
778.136 89225824 80683128 72491296 65172376 59008284 54088964 50338456 
781.511 47589244 45630420 44267032 43336484 42710116 42302504 42054540 
784.886 41926072 41892460 41937456 42050124 42223912 42452936 42732676 
788.261 43059096 43429336 43841824 44296272 44792960 45333288 45919840 
791.636 46557380 47253708 48018800 48863956 49798856 50830072 51960832 
795.010 53193144 54531088 55985748 57575604 59328488 61279936 63467764 
798.385 65935092 68730872 71909048 75537056 79691704 84448472 89873248 
801.760 95996352 102793248 110153704 117871536 125649456 133073808 139676800 
805.135 144980896 148536464 150040576 149383248 146688784 142286400 
808.028 136668016 130417960 124080664 118149720 113009200 108885192 
810.920 105872584 103920216 102859120 102410024 102226176 101958216 
813.813 101263248 99882840 97678160 94629344 90834960 86474064 81780968 
817.188 76988208 72302896 67897496 63882924 60320096 57224936 54577412 
820.563 52335008 50442420 48845936 47494568 46346316 45370584 44543868 
823.938 43848608 43271760 42801744 42429188 42147632 41953988 41849296 
827.312 41837036 41922564 42111052 42405368 42805804 43308804 43906304 
830.687 44584108 45323652 46100380 46886768 47658088 48394040 49081592 
834.062 49714880 50287636 50786160 51183964 51436452 51488336 51288056 
837.437 50797076 50007412 48944724 47668700 46258768 44799096 43372292 
840.812 42040856 40847060 39813680 38945272 38234160 37664104 37216720 
844.186 36872292 36612884 36425508 36300420 36231116 36213360 36241312 
847.561 36307804 36404212 36521616 36653872 36799400 36960348 37141460 
850.936 37347020 37578796 37835784 38114916 38413812 38733088 39075696 
854.311 39446944 39851120 40289960 40762288 41266536 41802048 42372964 
857.686 42987464 43657316 44395096 45212336 46120276 47132300 48266308 
861.060 49550552 51022952 52729032 54722876 57058648 59784728 62939308 
864.435 66534824 70544896 74880280 79383904 83813336 87841640 91122208 
867.810 93310136 94137688 93483920 91389584 88060720 83806424 79010768 
871.185 74052704 69240752 64819252 60932712 57637008 54924972 52742912 
874.560 51015608 49656852 48588356 47743996 47069704 46528284 46094336 
877.935 45751416 45489372 45301180 45180936 45124100 45126008 45182628 
881.309 45290368 45444784 45641644 45877084 46148500 46455964 46802176 
884.684 47191912 47630428 48121400 48666552 49265528 49917932 50624436 
888.059 51389568 52223148 53141428 54167108 55330912 56671096 58225196 
891.434 60025296 62082280 64372912 66825188 69314160 71682792 73745296 
894.809 75330024 76315920 76641480 76319552 75421432 74061264 72364888 
898.183 70451288 68432024 66398136 64426488 62585244 60925924 59485012 
901.558 58281088 57312796 56563252 56006180 55615464 55368212 55247632 
904.933 55242892 55344312 55541728 55825392 56186588 56621228 57130260 
908.308 57718780 58393376 59158884 60018336 60974156 62031748 63202864 
911.683 64505280 65960892 67591512 69413480 71436072 73662176 76089960 
915.058 78714728 81527088 84511552 87639528 90867184 94139504 97387192 
918.432 100533256 103496560 106176528 108454280 110193152 111235872 
921.325 111442848 110725664 109080520 106612720 103533520 100147232 96778080 
924.700 93745424 91324936 89702648 88990280 89223704 90376784 92371584 
928.075 95083992 98360184 101998912 105771168 109447672 112791720 115596952 
931.450 117703056 118985208 119366888 118816864 117349912 115035128 
934.342 112002656 108458232 104657856 100905376 97536992 94858816 93148824 
937.717 92626560 93421960 95580144 99040864 103643464 109094928 114975928 
941.092 120791968 125951784 129876152 132096376 132290720 130378592 
943.985 126516920 121082928 114576168 107527832 100451280 93734864 87642768 
947.359 82322184 77809184 74069680 71024712 68581656 66643320 65119400 
950.734 63937248 63033232 62356176 61868080 61537256 61339232 61255900 
954.109 61271236 61371864 61546188 61782768 62072340 62407244 62781268 
957.484 63189984 63629316 64095132 64582972 65087572 65603816 66128544 
960.859 66660048 67199168 67747784 68308032 68881080 69466552 70062816 
964.233 70668400 71282168 71904000 72534408 73173640 73820768 74473832 
967.608 75130224 75788256 76447712 77110704 77780816 78462032 79158056 
970.983 79871904 80606488 81365736 82155488 82982616 83854288 84776200 
974.358 85751176 86778680 87856112 88980272 90148408 91358624 92608920 
977.733 93895568 95211864 96548464 97893552 99235816 100565672 101874384 
981.108 103153984 104395056 105585680 106713192 107765872 108736584 
984.000 109624200 110433776 111174016 111853104 112477664 113051192 
986.893 113575808 114054696 114493560 114899856 115281472 115643736 
989.786 115987616 116311456 116612776 116892016 117155168 117412440 
992.678 117676296 117958656 118267384 118606120 118975968 119377280 
995.571 119811472 120280424 120785104 121322432 121885480 122464192 
998.464 123048472 123631512 124212072 124793240 125380216 125976328 
1001.356 126581848 127195136 127814728 128443672 129090296 129767360 
1004.249 130488936 131265808 132103888 133006112 133975280 135019712 
1007.142 136156064 137407104 138802192 140372096 142144992 144148032 
1010.035 146404112 148926448 151709376 154711056 157843456 160950704 
1012.927 163822848 166227440 167928720 168757824 168647888 167653232 
1015.820 165937312 163738496 161335824 158976528 156858576 155114112 
1018.713 153798208 152910912 152412080 152245648 152349584 152669024 
1021.605 153163968 153805984 154578688 155474608 156489232 157618064 
1024.498 158854944 160190320 161613968 163117360 164694336 166341104 
1027.391 168055072 169831296 171661568 173535440 175441616 177372064 
1030.284 179322816 181293456 183283664 185290928 187307216 189321632 
1033.177 191322592 193301632 195255824 197186176 199093536 200974224 
1036.070 202816176 204600240 206303472 207900096 209364672 210669440 
1038.963 211777296 212642064 213205536 213400480 213164384 212444384 
1041.856 211203936 209428064 207119168 204296528 200993632 197261216 
1044.750 193168304 188795584 184238736 179596144 174954944 170394992 
1047.643 165977888 161748496 157741536 153980576 150480464 147248112 
1050.536 144280576 141565808 139083872 136810928 134722240 132794712 
1053.429 131009728 129350440 127799792 126340048 124949512 123605568 
1056.322 122286496 120972728 119648736 118303240 116927240 115512992 
1059.215 114054952 112550136 111000160 109412552 107800696 106181768 
1062.108 104573544 102993376 101454640 99967216 98539032 97175952 95882544 
1065.483 94662640 93518024 92447704 91448472 90515808 89644400 88830112 
1068.858 88070184 87362992 86706824 86099280 85535992 85011600 84520680 
1072.234 84058184 83621160 83208056 82818192 82451480 82107928 81788248 
1075.609 81494824 81233240 81012856 80846304 80749048 80738512 80830736 
1078.984 81041128 81381632 81859608 82475312 83219456 84071328 84995728 
1082.359 85943688 86859448 87679344 88344248 88807632 89037584 89024968 
1085.735 88783648 88351872 87786152 87157896 86550336 86042120 85707264 
1089.110 85608744 85791264 86286128 87113064 88283656 89807808 91697544 
1092.485 93967384 96632808 99703440 103174024 107011192 111142736 115453376 
1095.860 119765504 123857616 127477992 130350944 132238792 132968664 
1098.753 132464336 130766584 128026648 124486368 120415672 116097080 
1101.646 111786496 107673688 103898072 100539312 97624640 95147176 93076392 
1105.022 91371592 89987416 88881792 88019536 87370200 86910288 86621800 
1108.397 86488824 86497800 86636240 86891504 87252840 87711984 88264656 
1111.772 88910984 89653776 90493608 91422464 92412776 93407776 94323128 
1115.147 95039648 95418728 95332880 94677808 93409184 91556296 89226832 
1118.523 86586248 83821576 81123400 78639040 76460312 74626496 73128664 
1121.898 71930560 70985536 70255464 69716440 69361120 69195744 69237096 
1125.273 69508072 70032832 70835968 71934584 73329544 74993320 76858504 
1128.648 78818488 80715648 82363392 83572360 84157352 83980144 82965496 
1132.024 81109576 78485136 75229624 71536456 67611560 63659392 59862384 
1135.399 56349488 53205428 50468656 48139096 46192132 44589248 43290100 
1138.774 42253564 41442560 40824852 40368896 40046232 39832200 39705148 
1142.149 39648768 39651672 39704748 39800568 39931356 40088312 40263384 
1145.525 40450352 40645620 40848548 41060204 41282132 41514448 41756340 
1148.900 42006580 42264888 42532664 42813044 43108932 43421980 43750860 
1152.275 44092128 44440680 44792376 45144648 45497096 45850424 46204184 
1155.650 46556348 46902600 47237236 47554600 47849968 48119844 48360664 
1159.026 48568012 48735528 48855168 48919284 48921248 48856836 48724152 
1162.401 48522472 48251088 47908644 47493388 47004640 46444240 45817504 
1165.776 45132480 44398804 43626612 42824672 42000264 41160772 40313664 
1169.151 39468168 38635184 37825120 37047520 36308704 35611528 34956088 
1172.527 34341400 33766900 33233542 32743778 32300506 31906284 31561732 
1175.902 31265910 31016838 30812082 30649664 30527402 30443128 30393516 
1179.277 30375072 30384810 30422052 30489546 30593488 30742548 30946274 
1182.652 31212646 31547908 31956748 32442764 33010040 33663160 34406740 
1186.028 35244692 36180660 37219352 38370920 39653088 41092184 42723172 
1189.403 44580472 46688484 49051064 51641800 54401092 57232612 60022180 
1192.778 62644796 64979428 66936112 68462200 69555480 70263104 70680136 
1196.153 70936456 71168680 71518256 72104832 73007912 74264944 75858912 
1199.529 77722120 79731712 81726896 83527904 84938104 85784640 85933432 
1202.904 85299504 83862968 81663184 78794376 75383984 71586080 67570376 
1206.279 63493000 59501884 55720964 52235072 49099032 46332120 43924892 
1209.654 41846380 40053756 38502940 37151276 35964636 34919780 34000104 
1213.030 33196234 32502714 31916410 31435932 31060932 30791738 30628222 
1216.405 30568636 30608846 30742052 30959866 31253700 31617000 32045628 
1219.780 32537460 33091382 33705020 34374676 35095084 35860624 36666236 
1223.155 37508420 38383476 39286956 40212132 41149808 42091084 43029428 
1226.531 43963420 44898808 45846780 46823280 47844528 48926220 50082552 
1229.906 51325348 52666148 54115424 55682012 57371628 59186260 61124480 
1233.281 63182704 65357828 67649048 70058072 72587384 75238680 78010104 
1236.656 80896080 83888248 86973792 90135896 93348216 96565472 99722784 
1240.031 102727968 105462736 107804696 109631928 110845176 111389752 
1242.925 111261640 110518128 109267648 107672968 105928408 104228016 
1245.818 102766704 101706040 101161560 101211168 101889168 103198856 
1248.711 105124056 107639592 110717064 114319968 118400800 122883944 
1251.604 127647144 132527944 137305872 141708096 145450320 148229776 
1254.497 149766704 149852912 148360688 145279680 140714224 134877696 
1257.390 128055168 120551760 112689144 104755224 96989168 89596712 82724904 
1260.765 76469552 70882384 65968492 61697860 58012852 54842484 52108372 
1264.140 49732640 47649804 45804212 44153456 42670568 41339160 40153360 
1267.516 39115576 38235644 37529300 37015300 36715272 36647816 36824036 
1270.891 37242672 37885096 38713020 39664052 40659704 41607792 42404820 
1274.266 42956992 43184576 43034292 42492396 41584744 40375440 38948968 
1277.641 37403860 35834356 34313572 32895546 31609728 30464914 29456662 
1281.017 28573134 27799938 27122204 26525892 25998534 25528562 25107122 
1284.392 24728246 24389268 24089362 23828512 23605532 23417668 23260718 
1287.767 23130698 23025208 22943774 22887294 22856278 22848770 22860714 
1291.142 22886140 22919008 22955300 22994462 23038202 23089218 23149220 
1294.518 23218668 23296342 23381512 23475128 23580520 23701996 23843950 
1297.893 24008640 24195148 24400836 24622786 24859728 25112492 25383598 
1301.268 25674910 25986434 26315744 26658556 27011332 27372546 27743740 
1304.643 28127730 28527026 28941176 29366924 29799300 30233066 30665522 
1308.019 31097164 31530018 31965912 32404490 32842546 33275750 33700040 
1311.394 34114388 34521240 34926568 35338172 35763904 36212532 36692992 
1314.769 37213796 37782104 38398464 39052092 39714116 40338276 40867224 
1318.144 41236840 41395540 41314016 40990216 40449188 39735248 38903268 
1321.520 38004060 37081944 36172340 35300468 34486512 33747096 33093956 
1324.895 32534852 32071528 31700612 31414990 31206772 31069224 30996768 
1328.270 30984170 31025734 31112860 31235752 31385072 31553108 31735220 
1331.645 31929176 32132212 32340232 32546104 32740600 32915276 33064708 
1335.021 33187080 33284158 33358640 33411994 33443234 33449460 33428420 
1338.396 33380934 33312596 33233040 33152462 33079188 33016834 32964532 
1341.771 32919388 32879178 32844726 32819782 32810170 32821142 32856982 
1345.146 32920174 33013188 33139836 33305656 33517818 33783264 34106612 
1348.521 34489956 34933640 35438032 36004196 36634116 37328712 38084636 
1351.897 38893232 39741204 40611640 41488200 42356820 43202912 44009840 
1355.272 44754284 45403136 45919144 46264552 46410132 46344472 46077240 
1358.647 45640948 45082412 44462044 43844756 43290320 42857584 42599180 
1362.022 42557772 42768360 43251300 44009912 45031284 46287956 47740480 
1365.398 49333420 50997276 52644076 54161516 55435632 56361332 56865828 
1368.773 56931740 56597748 55952504 55103160 54164968 53238424 52394888 
1372.148 51684344 51132856 50746012 50509636 50388352 50328632 50256572 
1375.523 50093520 49770840 49235840 48468124 47480636 46321648 45063152 
1378.899 43790072 42588580 41524584 40645004 39978476 39539624 39337668 
1382.274 39379532 39670804 40219728 41042872 42169800 43649508 45541660 
1385.649 47895952 50719796 53940268 57391140 60808516 63893212 66371152 
1389.024 68025008 68739264 68490760 67337432 65393456 62810592 59762032 
1392.400 56407060 52905612 49417728 46092240 43076000 40485816 38382644 
1395.775 36762940 35564668 34697924 34062492 33575380 33182644 32856162 
1399.150 32591674 32396958 32280662 32243830 32278412 32369182 32499642 
1402.525 32655254 32827322 33014830 33224706 33470466 33767188 34130268 
1405.901 34571968 35099612 35716884 36422556 37209316 38059176 38940160 
1409.276 39809032 40608948 41284464 41794352 42119596 42270368 42279492 
1412.651 42194444 42060636 41913480 41775968 41657276 41559660 41481932 
1416.026 41423352 41383916 41364124 41365912 41394740 41464068 41594336 
1419.402 41810368 42130292 42556092 43073004 43653176 44267032 44887932 
1422.777 45501404 46108300 46721912 47361080 48039788 48759960 49509068 
1426.152 50265536 51005176 51710916 52373284 52991624 53572240 54126912 
1429.527 54674132 55238452 55855764 56570004 57423360 58452928 59679224 
1432.903 61106744 62729544 64543760 66557148 68787592 71254056 73953416 
1436.278 76835840 79800432 82722136 85493392 88050136 90366376 92428144 
1439.653 94215400 95682680 96763544 97392880 97516168 97110352 96188416 
1443.028 94796856 93006368 90896144 88552736 86051368 83446424 80774904 
1446.404 78058288 75320680 72611320 70011928 67630808 65583468 63955940 
1449.779 62794016 62099368 61836024 61937160 62308060 62840192 63405880 
1453.154 63872448 64119592 64027356 63486212 62407664 60753560 58589376 
1456.529 56112828 53641708 51486660 49833380 48713104 48050040 47737856 
1459.905 47683380 47823744 48116848 48528144 49024912 49569456 50118288 
1463.280 50632852 51080752 51446556 51735884 51976068 52207232 52468428 
1466.655 52793984 53205952 53714628 54319904 55012216 55774908 56579704 
1470.030 57388192 58148444 58787212 59221160 59370840 59185540 58666208 
1473.406 57863256 56855064 55716816 54512160 53294048 52109156 51010132 
1476.781 50050836 49273660 48707096 48358256 48217356 48267528 48493576 
1480.156 48888872 49457640 50211564 51164468 52325736 53695732 55266300 
1483.531 57024940 58964068 61086340 63408868 65962704 68783984 71902248 
1486.906 75330936 79061176 83066776 87316680 91783696 96449240 101290232 
1490.282 106271144 111328216 116373912 121309552 126044392 130506112 
1493.175 134620080 138311680 141490400 144037216 145837584 146812912 
1496.068 146970208 146414976 145341728 143981696 142529424 141132016 
1498.961 139884704 138844288 138056848 137561552 137384144 137531296 
1501.854 137975936 138656576 139462880 140238096 140775488 140779440 
1504.747 139879776 137663968 133776408 128128680 121035856 113141856 
1507.640 105117344 97391960 90089128 83137312 76408592 69818840 63360324 
1511.015 57121716 51254424 45905700 41197236 37178384 33825064 31064882 
1514.391 28800488 26936234 25381840 24066492 22941294 21976026 21160828 
1517.766 20495938 19978622 19594764 19314360 19092092 18882500 18654088 
1521.141 18407994 18180246 18024450 17980692 18055224 18224196 18447992 
1524.516 18691896 18934828 19178348 19440888 19748178 20117350 20549574 
1527.892 21032444 21549276 22089454 22652682 23248414 23888932 24582182 
1531.267 25328098 26117382 26935316 27768924 28611426 29464570 30331830 
1534.642 31213394 32099746 32973614 33809984 34581836 35266040 35839540 
1538.017 36285288 36590676 36749096 36757284 36617676 36344584 35965396 
1541.393 35516556 35032728 34533436 34018128 33467248 32856088 32168962 
1544.768 31412960 30619442 29833262 29092434 28409536 27770832 27143366 
1548.143 26492962 25799928 25072122 24341502 23653358 23041242 22513454 
1551.518 22053792 21633094 21226444 20824206 20437310 20090282 19807546 
1554.894 19598162 19450382 19333552 19207090 19023370 18731470 18287330 
1558.269 17669580 16907854 16088696 15322803 14689439 14212676 13874245 
1561.644 13636279 13458011 13303149 13145438 12973311 12791048 12617014 
1565.019 12475034 12384271 12348816 12357646 12389010 12421297 12439334 
1568.395 12440595 12434594 12439675 12474318 12549446 12668354 12829440 
1571.770 13030156 13269395 13546127 13857858 14197612 14555654 14922804 
1575.145 15296271 15684076 16104203 16579468 17122906 17735532 18410380 
1578.520 19138766 19915794 20741622 21619234 22547586 23516436 24505750 
1581.896 25483198 26410136 27249438 27964794 28526320 28912562 29109300 
1585.271 29112418 28928144 28573842 28076544 27470346 26796438 26093420 
1588.646 25393152 24715794 24065758 23435714 22811438 22180456 21535592 
1592.021 20876874 20209086 19538510 18871218 18213450 17575342 16973484 
1595.396 16427860 15960529 15586422 15308456 15117800 14998528 14935801 
1598.772 14921227 14956377 15049052 15208244 15437460 15734266 16092891 
1602.147 16510731 16993538 17557296 18222642 19010632 19935464 21002708 
1605.522 22211144 23556556 25034808 26638544 28352658 30150412 31987454 
1608.897 33808088 35554884 37174772 38633228 39918388 41041052 42027676 
1612.273 42909956 43713704 44448900 45106380 45658064 46064792 46281324 
1615.648 46268684 46006068 45497464 44766660 43843912 42751796 41499464 
1619.023 40087584 38513220 36775420 34875940 32827788 30655104 28399276 
1622.398 26129838 23934830 21906008 20119814 18614796 17388930 16407661 
1625.774 15621214 14977606 14432803 13959880 13546196 13192503 12905380 
1629.149 12691075 12550265 12477388 12461770 12490107 12549071 12623803 
1632.524 12699331 12758972 12783439 12753752 12656789 12492971 12281426 
1635.899 12057821 11861130 11715823 11626851 11581828 11561308 11545554 
1639.275 11520035 11478527 11422905 11361134 11302467 11254621 11219734 
1642.650 11193996 11168599 11132190 11073655 10982539 10852166 10681455 
1646.025 10477749 10257819 10045527 9867473 9743297 9681900 9679935 9724864 
1649.883 9796230 9866286 9903335 9869303 9728692 9467622 9116624 8752185 
1653.740 8455042 8267944 8182749 8166542 8182850 8206182 8222323 8225395 
1657.597 8216210 8197875 8174139 8146927 8115698 8077417 8027293 7960435 
1661.455 7873005 7764679 7640395 7511157 7390451 7292050 7224901 7190404 
1665.312 7183464 7194042 7209471 7216613 7204351 7165746 7098953 7007858 
1669.170 6901330 6791495 6690773 6609150 6553341 6524380 6518393 6525490 
1673.027 6532352 6522699 6482371 6405595 6299652 6185231 6086834 6023398 
1676.885 5999747 6008079 6033377 6061331 6083944 6101148 6120235 6150177 
1680.742 6196826 6256757 6317234 6356268 6350485 6283112 6156059 5994809 
1684.599 5841476 5733353 5684136 5686553 5721871 5772201 5822771 5864481 
1688.457 5893365 5908580 5912409 5909621 5908143 5916910 5943613 5992289 
1692.314 6060827 6140499 6216287 6271145 6290609 6269968 6220286 6168124 
1696.172 6145070 6169267 6239715 6335826 6429437 6487854 6483986 6407412 
1700.029 6274204 6126553 6010430 5954867 5960107 6007776 6072587 6131526 
1703.886 6167620 6170980 6141036 6086263 6021484 5960879 5914525 5885842 
1707.744 5872474 5869485 5871601 5875597 5880669 5887958 5899444 5916372 
1711.601 5939045 5966321 5996790 6029076 6062877 6097822 6133173 6165368 
1715.459 6188289 6193532 6173636 6127057 6061062 5991248 5937466 5913752 
1719.316 5925273 5967698 6031058 6103870 6176559 6243648 6303484 6358050 
1723.174 6411110 6466396 6526903 6593608 6666346 6743908 6824782 6905840 
1727.031 6983378 7053151 7110977 7155135 7187002 7211358 7233930 7258896 
1730.888 7284974 7303945 7300137 7253100 7145434 6971728 6749326 6515400 
1734.746 6315856 6180929 6115934 6106054 6127157 6155588 6170712 6159588 
1738.603 6117513 6048966 5965683 5882281 5811051 5758266 5723718 5702936 
1742.461 5690649 5681820 5673763 5666109 5660100 5657717 5660537 5668761 
1746.318 5681148 5695920 5710423 5722006 5729056 5729157 5720394 5700519 
1750.176 5668358 5624955 5575314 5528162 5492659 5476115 5480578 5502222 
1754.033 5532054 5557795 5567897 5554439 5516551 5461050 5400893 5349566 
1757.890 5315051 5298347 5293048 5289559 5277284 5249112 5202666 5141572 
1761.748 5073783 5009221 4956936 4922752 4908678 4913068 4932002 4959181 
1765.605 4986698 5007210 5014986 5008417 4991122 4970677 4955394 4949898 
1769.463 4952411 4954556 4944435 4910554 4847391 4759045 4660066 4568075 
1773.320 4497060 4451933 4429170 4419764 4415781 4412534 4409656 4409689 
1777.177 4414978 4425254 4437338 4445941 4446008 4435497 4416249 4393890 
1781.035 4374645 4362797 4358814 4359952 4361793 4360421 4353861 4343185 
1784.892 4331472 4321967 4317985 4321398 4333412 4354899 4386225 4426660 
1788.750 4473994 4522471 4565095 4593457 4600589 4583746 4546210 4496826 
1792.607 4447079 4407547 4383883 4376653 4382042 4395062 4411631 4428367 
1796.465 4443397 4455448 4463583 4466562 4463549 4454009 4438007 4416785 
1800.322 4392083 4365809 4339939 4316412 4296735 4282480 4275285 4276055 
1804.179 4284822 4300818 4322068 4346331 4371164 4394794 4415882 4433455 
1808.037 4446677 4454845 4457390 4454310 4446978 4436869 4426526 4418091 
1811.894 4413003 4411664 4413371 4417120 4422476 4428769 4436702 4446309 
1815.752 4458126 4472253 4488925 4508008 4530038 4555050 4583277 4614286 
1819.609 4647139 4681334 4716369 4752010 4788156 4823971 4857409 4885221 
1823.467 4903618 4910353 4906466 4897016 4890381 4894235 4913403 4946580 
1827.324 4987334 5024808 5047668 5048205 5024472 4981837 4930326 4881300 
1831.181 4842231 4815294 4797168 4782696 4766884 4746315 4720456 4690410 
1835.039 4658157 4625806 4595164 4568108 4547081 4535128 4535596 4550931 
1838.896 4582206 4628184 4686023 4751206 4818376 4882138 4936090 4974028 
1842.754 4991457 4987334 4966387 4939006 4919233 4918999 4944301 4993770 
1846.611 5059770 5132184 5201291 5261957 5314111 5361945 5410857 5465378 
1850.469 5526316 5591323 5655803 5716197 5771025 5821730 5871400 5922452 
1854.326 5976063 6031361 6086431 6140600 6194910 6252320 6316999 6391204 
1858.183 6475544 6567873 6665134 6764503 6865074 6967419 7072515 7180230 
1862.041 7288647 7393888 7491504 7578283 7652535 7714252 7763464 7798176 
1865.898 7813964 7804214 7761609 7682246 7567325 7425672 7271295 7119903 
1869.756 6984725 6871907 6781095 6706791 6642491 6582035 6521219 6457720 
1873.613 6390162 6317941 6240454 6158075 6071747 5982849 5893063 5803127 
1877.470 5712941 5621028 5526216 5428370 5329071 5231472 5139527 5055881 
1881.328 4981603 4914810 4853389 4795393 4740755 4691616 4651325 4623026 
1885.185 4607890 4604641 4609832 4619342 4629356 4637192 4641613 4642182 
1889.043 4639603 4635183 4631533 4632102 4640307 4658492 4686827 4722331 
1892.900 4759648 4792177 4815561 4827858 4831308 4830505 4830437 4834156 
1896.758 4841795 4851244 4859822 4866624 4872990 4882172 4897217 4919435 
1900.615 4947418 4977782 5006573 5032182 5055881 5080990 5111733 5149921 
1904.472 5194819 5242740 5289559 5332057 5369426 5403375 5436423 5469808 
1908.330 5502222 5530813 5552090 5564239 5568031 5567226 5566253 5569306 
1912.187 5577831 5591693 5609280 5628748 5648553 5667553 5683599 5693033 
1916.045 5691387 5674435 5641436 5595418 5544841 5500041 5469405 5455984 
1919.902 5456655 5464372 5470881 5470445 5462325 5450112 5440281 5438100 
1923.760 5445717 5461855 5483028 5505443 5527826 5551888 5579879 5614080 
1927.617 5654360 5698941 5744803 5789695 5833081 5876336 5921175 5968706 
1931.474 6017452 6064758 6107667 6143893 6173299 6197061 6216018 6230673 
1935.332 6238841 6238370 6228253 6210136 6188457 6170745 6163351 6170107 
1939.189 6190743 6221530 6256925 6292289 6324866 6354890 6383840 6412624 
1943.047 6441140 6468145 6492260 6513819 6535312 6559497 6589705 6627115 
1946.904 6670551 6718198 6768239 6820474 6876822 6939911 7011057 7089354 
1950.761 7171540 7252865 7330667 7404303 7475930 7549557 7627311 7708654 
1954.619 7789674 7864806 7928848 7979570 8017336 8045418 8067392 8086025 
1958.476 8103275 8120323 8139229 8163267 8196660 8241401 8296718 8357683 
1962.334 8416426 8465549 8500316 8520996 8531471 8536844 8541203 8544886 
1966.191 8546306 8543501 8537283 8532789 8538026 8560769 8604974 8667232 
1970.049 8739270 8811219 8874420 8925961 8968986 9009139 9051629 9099199 
1973.906 9151275 9206607 9266345 9336621 9425768 9542977 9690709 9863710 
1977.763 10047054 10221248 10368092 10475644 10539631 10562343 10551920 
1981.139 10516309 10464748 10406168 10348885 10300771 10268471 10254697 
1984.514 10258565 10275358 10299006 10324624 10351668 10383634 10427346 
1987.889 10488814 10570253 10669264 10778793 10891407 11002045 11110196 
1991.264 11219394 11335252 11462673 11602790 11753643 11911632 12072607 
1994.640 12234426 12394840 12551322 12699638 12834286 12950917 13048389 
1998.015 13129831 13202408 13275817 13355629 13443759 13535018 13621235 
2001.390 13693040 13745670 13779460 13800563 13817837 13838703 13868463 
2004.765 13909243 13960769 14022809 14096768 14183542 14283927 14396598 
2008.141 14517280 14641458 14765636 14890605 15019416 15158490 15310549 
2011.516 15476154 15652163 15833018 16015084 16198292 16386947 16586456 
2014.891 16801350 17029684 17264448 17495718 17712406 17907554 18080752 
2018.266 18234562 18373530 18500336 18614554 18713274 18793190 18851182 
2021.642 18886480 18899526 18890184 18857998 18800388 18715210 18600860 
2025.017 18459538 18295278 18114122 17923302 17728386 17534354 17345204 
2028.392 17164336 16995364 16841922 16705854 16587488 16484022 16391385 
2031.767 16305819 16225051 16148873 16080100 16021788 15975241 15940318 
2035.143 15914503 15895326 15882334 15877625 15883708 15903918 15937980 
2038.518 15981188 16026430 16065350 16092513 16106198 16109705 16107125 
2041.893 16103206 16099285 16093440 16081028 16056787 16017010 15960803 
2045.268 15889207 15805975 15715783 15623550 15534118 15452429 15380677 
2048.644 15318615 15261916 15202479 15129430 15033171 14908299 14754324 
2052.019 14577549 14386665 14191621 13999093 13811201 13625680 13437812 
2055.394 13243637 13042106 12837016 12634172 12440664 12261556 12099283 
2058.769 11953215 11821258 11701798 11593568 11496251 11408006 11325967 
2062.145 11245576 11161698 11071005 10974383 10875473 10780899 10696500 
2065.520 10625562 10567470 10518075 10470926 10420524 10363172 10297311 
2068.895 10222707 10138959 10046206 9943676 9832595 9715375 9595783 9479203 
2072.752 9369020 9266345 9169718 9075244 8979404 8880439 8778523 8676258 
2076.610 8575774 8478220 8382342 8285235 8184133 8078126 7969276 7861466 
2080.467 7760091 7669127 7590152 7522518 7463794 7411550 7364163 7321096 
2084.325 7281942 7246126 7212605 7179220 7144828 7108619 7070696 7031699 
2088.182 6990718 6946207 6894832 6833264 6760263 6677819 6589705 6501979 
2092.040 6420257 6347358 6282641 6223614 6166746 6110322 6055081 6003879 
2095.897 5959938 5925744 5900552 5881744 5866227 5850980 5834928 5818641 
2099.754 5802925 5788184 5773879 5758904 5742351 5724792 5707569 5692730 
2103.612 5681048 5671245 5659966 5643619 5619820 5589175 5555815 5525612 
2107.469 5503933 5494303 5496048 5506114 5520947 5537592 5555681 5576355 
2111.327 5601024 5629185 5658624 5684539 5702298 5709348 5705353 5693033 
2115.184 5675945 5658254 5641605 5627003 5614348 5603809 5596794 5594613 
2119.042 5597868 5605320 5612805 5615389 5608273 5589142 5559305 5523699 
2122.899 5488934 5460547 5441489 5431356 5426391 5421358 5411763 5394653 
2126.756 5369258 5336887 5299621 5260951 5223155 5189320 5161690 5141069 
2130.614 5128127 5121791 5120953 5124540 5132922 5146769 5168128 5197837 
2134.471 5234725 5275506 5315420 5350305 5378584 5401128 5421895 5445045 
2138.329 5472492 5502993 5532122 5554707 5566219 5565682 5554640 5536551 
2142.186 5514168 5487726 5455380 5415118 5365736 5309348 5250520 5194249 
2146.043 5144959 5102614 5065301 5028160 4989245 4948189 4908343 4873392 
2149.901 4845146 4821123 4796197 4763902 4720322 4666865 4608526 4553007 
2153.758 4505497 4466160 4430141 4392719 4351384 4312497 4290611 4305268 
2157.616 4373005 4499839 4676343 4880530 5086488 5270710 5421996 5539136 
2161.473 5629050 5699545 5756756 5802422 5834592 5851920 5852122 5835902 
2165.331 5804940 5761087 5705857 5641906 5572965 5504034 5442563 5395190 
2169.188 5365132 5351613 5349097 5349735 5346346 5335344 5317834 5299722 
2173.045 5288419 5290465 5309986 5346749 5398310 5460144 5527256 5594445 
2176.903 5656978 5710624 5753331 5785162 5809271 5832141 5860451 5899746 
2180.760 5952112 6014260 6080517 6144364 6200758 6249496 6293063 6335558 
2184.618 6379805 6426175 6472215 6513953 6547959 6573121 6589739 6599495 
2188.475 6602556 6597948 6584357 6559564 6524885 6483818 6441375 6403006 
2192.333 6371298 6345711 6322042 6296223 6264421 6226404 6185869 6147523 
2196.190 6116404 6095268 6084314 6081021 6083406 6088749 6095436 6103064 
2200.047 6109684 6113245 6112876 6107399 6099132 6091773 6090362 6099065 
2203.905 6119630 6150144 6186811 6225732 6263581 6300459 6337440 6375736 
2207.762 6414137 6450153 6479008 6497237 6504939 6505881 6506251 6513751 
2211.620 6532419 6562323 6599394 6636839 6668768 6691884 6706555 6715203 
2215.477 6720890 6725096 6726678 6723245 6712309 6692624 6665101 6632061 
2219.334 6595559 6557546 6518023 6476587 6433204 6388548 6344602 6303888 
2223.192 6268556 6239345 6216320 6198608 6185634 6177837 6175316 6178072 
2227.049 6184323 6191583 6196557 6196691 6192087 6185197 6179517 6178912 
2230.907 6185163 6197229 6211985 6225228 6234101 6238001 6238572 6238471 
2234.764 6240286 6245799 6254875 6267581 6283986 6305569 6334246 6371433 
2238.622 6416558 6466935 6518393 6566258 6607401 6641179 6669273 6694610 
2242.479 6719746 6745658 6772143 6798126 6822326 6844473 6865276 6884598 
2246.336 6901632 6914358 6919239 6913617 6896549 6870224 6838886 6808121 
2250.194 6782644 6765076 6755249 6750739 6748485 6746263 6743874 6742326 
2254.051 6743706 6749696 6761004 6777427 6797116 6818253 6838919 6856928 
2257.909 6870123 6876486 6873961 6861136 6838010 6806203 6768205 6728091 
2261.766 6689562 6655680 6629168 6611270 6602590 6602825 6610429 6623145 
2265.624 6637579 6650296 6658741 6661669 6659852 6655377 6651507 6650565 
2269.481 6653358 6658843 6664798 6668701 6669071 6665942 6661265 6657631 
2273.338 6657833 6663553 6675531 6693095 6715068 6739869 6766153 6792336 
2277.196 6817142 6839761 6859823 6877866 6895000 6912877 6932874 6954961 
2281.053 6978462 7001022 7020283 7034023 7041195 7042542 7038468 7030958 
2284.911 7020384 7007487 6992066 6974489 6956004 6938631 6924963 6917792 
2288.768 6918330 6926579 6941157 6959439 6978631 6996207 7010215 7019509 
2292.625 7024257 7024593 7021630 7016747 7011932 7008632 7008329 7011528 
2296.483 7018263 7028231 7040656 7055440 7072751 7093093 7116770 7143784 
2300.340 7173224 7203542 7233492 7261759 7288310 7313683 7339158 7365815 
2304.198 7394462 7425335 7458502 7493560 7530778 7570427 7613013 7658437 
2308.055 7706192 7755166 7804079 7851816 7897804 7942043 7985070 8027393 
2311.913 8069181 8110297 8150404 8188759 8225327 8260684 8295502 8331168 
2315.770 8369167 8410379 8455380 8504135 8555970 8609874 8664663 8719494 
2319.627 8773823 8828091 8883111 8939424 8996690 9052813 9103767 9144609 
2323.485 9170632 9179025 9170429 9148974 9122445 9099266 9087898 9094766 
2327.342 9122648 9170903 9236289 9314109 9399323 9487196 9574409 9657710 
2331.200 9734825 9803245 9861676 9909572 9947405 9976358 9998396 10014875 
2335.057 10026844 10034813 10038272 10037017 10031083 10020504 10005720 
2338.432 9987275 9965373 9940150 9911573 9880353 9847067 9812463 9776710 
2342.290 9738620 9695860 9643922 9578271 9494849 9392044 9272167 9141902 
2346.147 9012386 8896402 8807668 8757527 8753166 8797423 8887914 9018374 
2350.005 9179092 9357644 9542401 9722627 9890996 10043731 10180542 10302806 
2353.862 10411632 10507755 10590726 10659824 10715484 10759670 10795199 
2357.237 10826111 10855122 10883389 10910434 10934218 10952261 10962285 
2360.613 10962999 10953994 10935714 10908939 10875269 10837220 10797339 
2363.988 10758718 10723532 10692628 10665121 10638533 10609977 10576738 
2367.363 10537560 10492480 10442721 10389878 10335143 10278989 10221214 
2370.738 10161649 10100464 10038509 9976494 9915471 9854998 9794570 9732860 
2374.596 9668619 9601711 9532071 9460714 9388793 9317426 9246747 9177298 
2378.453 9109383 9043915 8982313 8925961 8876043 8832961 8796274 8764626 
2382.311 8736633 8711075 8687480 8665779 8647053 8631404 8619304 8610854 
2386.168 8605988 8604703 8607306 8613829 8624339 8638536 8655402 8673858 
2390.025 8693125 8712834 8733151 8754754 8778590 8805234 8835125 8868130 
2393.883 8904147 8943043 8984410 9027948 9072774 9117132 9159397 9197875 
2397.740 9231516 9260761 9286452 9309978 9332016 9352499 9369900 9382225 
2401.598 9387608 9384967 9374403 9357712 9336757 9313668 9289972 9266514 
2405.455 9243667 9221904 9201868 9184440 9170429 9160581 9154727 9152663 
2409.313 9153881 9158348 9166097 9177705 9193610 9213579 9237406 9264179 
2413.170 9293425 9325042 9359710 9398409 9442089 9491124 9545110 9602930 
2417.027 9663537 9725948 9789520 9854388 9920183 9986123 10050953 10112369 
2420.885 10168500 10217550 10258837 10292696 10320179 10342879 10362323 
2424.260 10379698 10395580 10410173 10423341 10434710 10443501 10449407 
2427.635 10451918 10451104 10447574 10442246 10436611 10431996 10429416 
2431.010 10429382 10432029 10437392 10445470 10456602 10471095 10489459 
2434.386 10511761 10537357 10565466 10595106 10625698 10656666 10688247 
2437.761 10720272 10752707 10785110 10817278 10848939 10880467 10912574 
2441.136 10945873 10980805 11016862 11052753 11086877 11118218 11146570 
2444.511 11172951 11199640 11228337 11260265 11295428 11332395 11369025 
2447.887 11403074 11433008 11458080 11478152 11493666 11504792 11511733 
2451.262 11514795 11515203 11514318 11513978 11516394 11522212 11531433 
2454.637 11542798 11554707 11566073 11576621 11587239 11600034 11616574 
2458.012 11637912 11663983 11693493 11724605 11755788 11785985 11815470 
2461.388 11845194 11876555 11910882 11949775 11994155 12045046 12103235 
2464.763 12169166 12242980 12324409 12412671 12507089 12606543 12710419 
2468.138 12818041 12928898 13042242 13157324 13273187 13389696 13507023 
2471.513 13626399 13749397 13878316 14015075 14161187 14318069 14486653 
2474.889 14667607 14861974 15070870 15295379 15536281 15794601 16070953 
2478.264 16366405 16682131 17019244 17378826 17761316 18165664 18590174 
2481.639 19031818 19487010 19951180 20419526 20885704 21342286 21780818 
2485.014 22191162 22563464 22888830 23159670 23370742 23519408 23604832 
2488.390 23628238 23592622 23502654 23364134 23184170 22970882 22731826 
2491.765 22474266 22205354 21930822 21656290 21387638 21129658 20887824 
2495.140 20666244 20468324 20295804 20149732 20030666 19939418 19878020 
2498.515 19849718 19858564 19909100 20004886 20148898 20342886 20587684 
2501.891 20883826 21231490 21630866 22081576 22582590 23132166 23727156 
2505.266 24363860 25036704 25737836 26457640 27181284 27890518 28564076 
2508.641 29176482 29702820 30119194 30404212 30542046 30523454 30346150 
2512.016 30015684 29545320 28955308 28269652 27515000 26718630 25903212 
2515.392 25089252 24291602 23520248 22781652 22079170 21413744 20785032 
2518.767 20191798 19631890 19102860 18602242 18128216 17679588 17257002 
2522.142 16860902 16492626 16152931 15841920 15558775 15302277 15070766 
2525.517 14863242 14678677 14516596 14376596 14257630 14158449 14076916 
2528.893 14010865 13957724 13914990 13880950 13853480 13831279 13813835 
2532.268 13800598 13791910 13788216 13790029 13797075 13808875 13824472 
2535.643 13842363 13861553 13881429 13901716 13922620 13944073 13965902 
2539.018 13987938 14009770 14031124 14052514 14074349 14097692 14123158 
2542.394 14151021 14181180 14213257 14247016 14282729 14321218 14362965 
2545.769 14408860 14459179 14513684 14571997 14633404 14697733 14765088 
2549.144 14835367 14908470 14983745 15060544 15137733 15214867 15291980 
2552.519 15369485 15448927 15531680 15618742 15710767 15807830 15909452 
2555.895 16014947 16123356 16234029 16346347 16460035 16575785 16694939 
2559.270 16819638 16952124 17094404 17247554 17411176 17583968 17764146 
2562.645 17950408 18142518 18341316 18548468 18765720 18993254 19229568 
2566.020 19471658 19715826 19957944 20195306 20425814 20648140 20861264 
2569.396 21063674 21253096 21427284 21583818 21721422 21839734 21938802 
2572.771 22019524 22082308 22127282 22154442 22164276 22157756 22137044 
2576.146 22105318 22066062 22022732 21978604 21935980 21897054 21863636 
2579.521 21837294 21819596 21811652 21814752 21829526 21856668 21897054 
2582.896 21951734 22022278 22110128 22216898 22343296 22489796 22656348 
2586.272 22842762 23048722 23273932 23518044 23780002 24058472 24351630 
2589.647 24657294 24973562 25298842 25631604 25970392 26312682 26655102 
2593.022 26993104 27320464 27631014 27918254 28176236 28399912 28585094 
2596.397 28728300 28827466 28880902 28887984 28849066 28765330 28638924 
2599.773 28472400 28269298 28033602 27769630 27482770 27178322 26861642 
2603.148 26538432 26213560 25891148 25575020 25268428 24974300 24696188 
2606.523 24437534 24202014 23993266 23814162 23666620 23551310 23467994 
2609.898 23415816 23393682 23400814 23436728 23501114 23593078 23711094 
2613.274 23852490 24013122 24188106 24371676 24558724 24744836 24926888 
2616.649 25103048 25272958 25436504 25593856 25745044 25890128 26029068 
2620.024 26162354 26290962 26416616 26541002 26666060 26792772 26921320 
2623.399 27050932 27179768 27305574 27425166 27534698 27629602 27704362 
2626.775 27752358 27766912 27741480 27670246 27549596 27378194 27157228 
2630.150 26890194 26582532 26241542 25874126 25487942 25089638 24684894 
2633.525 24278672 23874964 23476912 23087540 22709866 22346156 21998926 
2636.900 21669594 21359236 21067640 20794346 20537936 20297262 20070778 
2640.276 19857488 19656644 19467328 19288520 19119272 18958086 18803570 
2643.651 18654502 18510466 18371076 18237120 18109284 17988428 17875756 
2647.026 17771532 17675998 17589074 17510484 17439908 17376826 17321066 
2650.401 17272586 17231110 17196568 17168782 17147308 17131420 17120700 
2653.777 17114496 17112360 17114290 17120286 17130456 17145102 17164130 
2657.152 17187294 17214390 17244830 17278376 17315066 17355066 17398552 
2660.527 17445598 17496236 17550260 17607362 17667438 17730494 17796662 
2663.902 17866330 17939462 18015988 18095742 18178070 18262726 18349680 
2667.278 18438968 18530972 18625726 18723096 18822738 18924098 19026694 
2670.653 19130386 19235388 19341796 19450174 19560762 19673424 19787986 
2674.028 19904280 20022270 20142234 20264630 20389626 20517406 20647514 
2677.403 20779852 20914214 21051084 21191338 21336616 21488520 21648138 
2680.779 21816110 21992268 22175922 22366494 22563464 22766672 22976472 
2684.154 23193256 23417528 23649614 23890088 24139238 24397926 24667360 
2687.529 24948680 25243246 25552388 25877152 26218418 26577036 26953790 
2690.904 27348974 27763238 28196280 28647490 29115642 29599444 30096610 
2694.280 30604330 31118628 31634070 32144092 32639716 33111404 33548564 
2697.655 33940304 34276600 34548576 34748604 34871092 34912672 34872960 
2701.030 34754240 34561960 34305108 33993940 33641108 33259760 32862342 
2704.405 32460864 32065462 31683716 31321782 30982924 30668722 30378626 
2707.781 30111382 29864708 29636692 29425530 29229960 29049250 28882530 
2711.156 28729114 28588068 28458566 28339782 28231038 28132114 28042684 
2714.531 27962638 27891544 27829012 27774506 27727884 27689316 27659440 
2717.906 27638678 27627836 27626812 27634968 27650860 27672754 27698746 
2721.281 27727070 27756492 27785950 27814880 27843036 27870452 27897268 
2724.657 27924332 27952918 27984124 28019534 28060462 28108182 28163614 
2728.032 28227820 28301268 28384880 28478942 28583574 28698282 28822404 
2731.407 28954814 29094916 29242044 29396172 29557272 29725528 29900380 
2734.782 30081160 30266884 30456170 30648490 30843458 31041322 31242304 
2738.158 31446762 31654168 31863600 32073382 32281372 32485324 32682796 
2741.533 32871530 33049156 33213404 33361972 33492480 33603084 33692488 
2744.908 33760060 33805756 33830400 33835416 33822268 33793184 33750640 
2748.283 33697356 33636164 33570364 33503108 33437758 33377748 33326444 
2751.659 33286694 33260904 33250496 33255648 33275642 33308484 33351380 
2755.034 33401366 33455364 33511092 33566320 33619804 33670468 33717728 
2758.409 33761240 33800348 33834880 33864176 33887640 33904764 33915008 
2761.784 33918700 33916192 33909100 33899320 33889288 33881732 33878900 
2765.160 33882984 33895524 33917660 33950372 33994336 34050596 34119908 
2768.535 34202964 34300448 34412948 34540720 34684608 34844776 35021844 
2771.910 35216020 35427248 35654944 35897980 36155344 36425508 36707304 
2775.285 36999964 37302568 37614564 37935096 38263216 38597520 38936428 
2778.661 39278072 39620564 39961688 40299304 40631508 40956276 41271528 
2782.036 41575704 41866848 42143580 42404088 42647136 42872100 43079076 
2785.411 43269344 43444976 43609172 43765260 43916456 44065836 44216108 
2788.786 44369700 44529036 44696252 44873344 45061680 45261060 45470016 
2792.162 45684860 45900764 46111656 46311180 46493912 46655024 46791728 
2795.537 46902788 46989540 47056000 47107556 47152388 47199372 47257368 
2798.912 47334956 47439644 47576560 47749948 47962480 48215804 48511172 
2802.287 48848272 49226152 49642440 50093856 50576712 51086976 51621012 
2805.663 52175660 52747812 53334584 53931864 54534584 55136904 55732112 
2809.038 56312932 56873308 57406908 57908268 58372644 58795404 59172324 
2812.413 59499792 59774652 59994256 60156536 60259988 60303420 60286064 
2815.788 60208296 60071224 59877820 59632468 59340568 59008856 58645048 
2819.164 58257176 57853260 57441932 57031104 56628892 56242024 55876188 
2822.539 55535624 55222908 54939412 54685256 54459868 54262532 54092156 
2825.914 53947992 53829420 53736116 53668512 53627124 53612876 53626820 
2829.289 53669448 53740612 53839360 53963752 54111484 54279616 54465544 
2832.665 54666992 54882448 55110988 55352440 55607400 55877168 56163620 
2836.040 56468864 56795280 57144884 57519692 57921444 58351912 58813428 
2839.415 59309272 59843444 60421148 61048664 61732428 62479552 63298108 
2842.790 64196220 65183580 66271208 67470504 68792872 70247800 71839656 
2846.166 73564792 75408064 77341384 79318592 81280176 83156528 84868040 
2849.541 86341416 87514064 88340472 88801816 88904480 88680536 88178024 
2852.916 87459792 86594856 85648136 84682448 83752456 82899872 82157168 
2856.291 81544552 81070440 80734280 80528392 80440808 80456920 80562416 
2859.667 80743816 80987904 81281984 81613768 81969568 82336800 82702496 
2863.042 83054296 83381616 83674992 83927200 84133912 84294360 84412136 
2866.417 84494080 84551320 84596448 84641824 84698760 84776160 84879728 
2869.792 85013208 85178632 85376248 85605032 85863008 86145784 86447984 
2873.167 86763992 87088448 87417448 87748680 88080856 88413120 88743616 
2876.543 89069672 89387800 89695200 89991040 90277248 90558872 90843408 
2879.918 91139832 91456408 91801256 92180704 92599864 93062720 93571488 
2883.293 94126784 94726800 95367424 96042392 96743872 97464240 98195904 
2886.668 98932328 99668008 100398048 101118024 101824240 102514144 103186880 
2890.044 103843320 104486712 105121184 105750880 106380088 107012248 
2892.937 107649792 108296088 108953784 109626888 110319240 111034296 
2895.830 111775352 112545072 113345528 114178624 115046184 115948928 
2898.723 116886592 117856632 118854584 119873784 120905760 121942512 
2901.616 122975720 123997736 125001744 125980704 126928240 127838928 
2904.509 128708128 129533336 130314664 131054360 131755952 132423656 
2907.402 133061696 133674424 134266416 134843712 135413088 135982784 
2910.295 136561504 137156752 137774080 138415424 139077584 139752080 
2913.188 140423376 141071344 141668880 142186128 142594704 142869392 
2916.081 142993712 142963008 142784592 142475504 142058352 141557648 
2918.974 140993200 140377728 139716016 139004976 138237104 137403008 
2921.867 136495840 135514016 134463136 133356232 132213976 131062864 
2924.760 129929904 128842728 127824424 126891408 126053560 125313760 
2927.654 124669160 124112496 123634208 123223800 122869920 122562376 
2930.547 122292208 122051384 121834632 121638080 121459496 121297680 
2933.440 121150808 121017168 120893192 120774856 120656600 120533032 
2936.333 120397880 120245024 120068536 119863088 119625000 119352808 
2939.226 119047704 118713584 118355800 117980480 117592536 117195392 
2942.119 116789768 116374904 115948712 115508328 115051408 114575600 
2945.012 114078568 113558200 113013152 112443112 111849760 111237712 
2947.905 110614592 109990232 109377040 108788680 108238816 107741888 
2950.798 107312368 106962824 106705824 106551312 106505912 106573200 
2953.691 106751864 107036160 107414312 107869968 108380960 108918568 
2956.584 109452104 109948152 110374432 110706080 110926624 111031304 
2959.477 111027752 110934360 110776672 110581768 110377040 110184912 
2962.370 110020416 109891944 109799904 109738600 109695944 109656576 
2965.263 109603688 109520320 109392816 109211824 108973416 108678744 
2968.156 108334056 107949496 107536704 107109208 106680488 106261960 
2971.050 105863624 105492056 105149888 104836504 104548160 104279488 
2973.943 104023944 103775312 103528560 103278624 103021688 102754288 
2976.836 102473576 102177800 101866424 101540656 101202720 100856256 
2979.729 100505408 100154744 99809080 99474528 99157208 98864384 98603016 
2983.104 98378592 98194320 98050536 97944280 97870176 97821448 97791240 
2986.479 97772312 97757704 97740280 97711480 97662104 97582120 97460632 
2989.854 97288112 97056656 96760648 96398016 95970312 95483080 94945760 
2993.230 94370928 93773832 93168568 92568240 91981720 91413216 90862360 
2996.605 90325584 89798552 89276768 88758120 88242568 87731728 87228128 
2999.980 86733976 86251248 85780968 85324264 84882024 84455760 84047048 
3003.355 83657272 83287320 82937408 82606624 82293464 81995656 81710648 
3006.731 81435304 81166528 80900512 80634016 80363616 80086496 79800192 
3010.106 79502344 79191576 78866448 78526672 78172080 77804072 77424856 
3013.481 77037416 76645272 76252648 75862976 75479888 75106744 74746168 
3016.856 74400392 74070696 73757384 73459216 73173608 72897384 72626472 
3020.232 72356904 72085232 71807592 71520328 71219664 70901696 70562208 
3023.607 70198288 69808024 69390976 68948296 68482568 67996568 67492840 
3026.982 66973648 66440568 65894404 65335760 64765208 64183236 63590384 
3030.357 62986768 62372972 61749004 61115248 60472332 59820892 59161772 
3033.733 58496064 57825588 57152100 56478224 55806972 55141608 54485524 
3037.108 53841196 53210860 52595796 51996984 51414856 50850152 50303184 
3040.483 49773920 49261932 48766076 48284672 47816196 47359196 46912900 
3043.858 46477280 46052116 45636936 45230648 44831572 44437820 44047756 
3047.234 43661308 43279120 42903372 42535992 42178780 41832256 41495820 
3050.609 41168240 40848372 40535536 40229944 39932012 39642016 39359868 
3053.984 39084432 38814024 38547112 38282180 38018996 37757704 37499028 
3057.359 37243720 36992168 36744912 36502480 36265984 36036816 35816796 
3060.735 35607032 35407796 35217960 35035708 34858996 34686120 34516576 
3064.110 34351008 34190596 34036832 33890152 33749960 33615008 33483244 
3067.485 33353634 33225384 33099358 32976546 32858592 32746568 32641214 
3070.860 32542494 32450796 32366078 32288906 32220170 32160542 32110590 
3074.236 32070388 32039352 32016486 32000866 31991020 31986490 31986240 
3077.611 31989380 31995122 32002148 32009174 32014526 32016844 32014988 
3080.986 32008142 31996262 31979356 31957888 31932100 31902362 31868522 
3084.361 31830620 31788588 31743276 31695440 31646830 31598896 31553108 
3087.737 31509820 31468638 31428202 31386566 31341620 31291868 31236608 
3091.112 31175834 31110050 31040362 30967622 30892798 30816778 30740130 
3094.487 30663638 30587692 30512436 30437760 30363028 30287598 30210758 
3097.862 30131838 30051120 29968786 29885720 29802920 29721198 29641160 
3101.238 29563338 29487904 29414930 29344768 29277666 29213976 29154620 
3104.613 29100620 29052754 29012016 28978968 28953678 28936006 28924884 
3107.988 28920210 28921308 28928320 28942026 28963206 28992924 29031430 
3111.363 29078688 29133712 29195370 29262070 29332502 29405426 29479286 
3114.739 29552628 29623460 29689658 29748840 29799122 29839332 29868506 
3118.114 29886642 29893956 29890548 29876706 29852498 29818500 29775204 
3121.489 29724464 29667628 29606822 29543830 29479960 29416100 29352566 
3124.864 29289576 29227090 29165426 29105048 29046450 28990588 28938238 
3128.240 28890214 28846872 28808204 28772976 28739876 28706636 28671132 
3131.615 28631350 28586262 28535732 28480642 28422234 28362066 28300950 
3134.990 28239136 28176236 28111470 28044064 27973380 27899106 27821310 
3138.365 27739890 27655238 27567566 27477300 27385040 27291706 27198038 
3141.740 27104922 27012882 26922168 26832670 26744318 26657252 26571578 
3145.116 26488208 26407462 26330144 26256186 26186074 26119810 26057462 
3148.491 25999414 25945840 25897022 25852886 25813150 25776932 25743672 
3151.866 25712700 25683804 25657052 25632484 25610376 25590484 25572138 
3155.241 25554180 25535556 25515350 25493422 25470410 25447572 25426774 
3158.617 25409840 25398212 25392416 25392030 25396034 25402462 25409698 
3161.992 25416480 25422136 25427124 25432218 25438192 25445850 25454914 
3165.367 25464998 25474942 25484006 25491702 25498132 25503930 25509904 
3168.742 25516896 25525434 25535696 25547502 25560926 25575476 25591292 
3172.118 25607810 25624400 25640040 25653818 25664996 25673364 25679164 
3175.493 25683276 25686826 25690658 25694948 25699306 25703174 25705740 
3178.868 25706584 25705914 25704262 25702750 25702012 25702892 25705670 
3182.243 25710450 25717480 25726762 25738400 25752320 25768320 25785898 
3185.619 25804112 25822292 25839910 25856718 25873038 25889250 25906024 
3188.994 25924104 25943834 25965748 25989986 26016616 26045640 26077200 
3192.369 26111012 26146870 26184596 26223874 26264984 26307824 26352570 
3195.744 26399608 26449082 26500992 26555374 26612404 26672048 26734558 
3199.120 26800210 26868834 26940604 27015070 27091732 27169926 27248768 
3202.495 27327660 27405932 27483194 27559376 27634510 27708740 27782028 
3205.870 27854130 27924368 27991368 28054136 28111362 28162800 28209080 
3209.245 28251902 28292816 28333912 28376144 28419510 28462740 28504276 
3212.621 28542562 28576496 28605762 28631280 28653930 28674922 28694954 
3215.996 28714282 28733044 28751098 28768340 28785368 28802080 28818828 
3219.371 28835718 28852536 28869250 28886176 28903564 28922158 28942132 
3222.746 28963986 28987328 29011664 29036354 29060904 29085066 29109122 
3226.122 29133784 29159862 29188424 29220176 29256080 29296630 29342110 
3229.497 29392558 29447586 29506416 29567950 29631122 29694838 29758350 
3232.872 29821090 29882738 29943154 30002442 30060814 30118732 30176802 
3236.247 30236014 30296834 30359510 30423900 30489154 30554418 30619158 
3239.623 30683054 30746354 30809522 30872520 30934568 30994170 31049010 
3242.998 31096914 31136428 31166756 31188472 31202498 31210260 31212824 
3246.373 31211080 31205882 31198298 31189826 31182562 31178326 31178326 
3249.748 31182954 31191320 31201680 31212682 31222936 31232548 31242092 
3253.124 31252842 31266124 31282790 31303264 31327802 31356148 31388062 
3256.499 31423074 31460442 31498846 31537004 31573598 31608090 31640626 
3259.874 31672522 31705208 31739712 31776608 31814792 31852976 31889204 
3263.249 31922404 31952430 31980142 32006894 32033928 32062038 32091110 
3266.625 32120544 32149232 32176528 32201826 32225200 32246682 32266100 
3270.000 32283266 32297936 32309928 32319386 32326668 32332092 32335914 
3273.375 32337878 32337878 32335628 32331164 32325168 32318566 32312390 
3276.750 32307108 32302860 32299432 32296184 32292794 32289368 32286194 
3280.125 32283622 32281980 32280590 32278412 32274380 32267384 32256998 
3283.501 32243292 32227270 32209892 32191906 32173566 32155118 32136314 
3286.876 32117228 32098000 32079376 32061860 32045666 32031074 32017772 
3290.251 32006036 31995480 31986848 31980354 31976502 31975326 31976468 
3293.626 31978752 31981032 31982030 31980570 31976074 31968158 31956748 
3297.002 31941980 31924292 31904250 31882428 31859786 31837110 31815324 
3300.377 31795252 31777572 31762454 31750370 31741172 31734866 31730838 
3303.752 31728734 31727876 31727626 31727274 31726736 31725488 31723492 
3307.127 31720820 31717506 31714190 31711194 31709772 31710732 31715296 
3310.503 31723920 31736362 31751796 31769014 31786554 31803348 31819138 
3313.878 31834078 31848840 31864028 31880110 31896726 31913952 31931568 
3317.253 31950076 31970442 31994014 32021694 32054010 32090578 32129928 
3320.628 32170712 32211282 32250576 32288726 32326240 32363686 32401952 
3324.004 32441192 32480824 32520354 32558602 32594710 32628212 32658860 
3327.379 32686584 32711518 32733704 32753498 32770898 32786086 32799200 
3330.754 32810490 32820102 32828394 32835360 32840974 32844796 32846228 
3334.129 32843870 32836936 32824498 32806918 32784406 32758538 32731346 
3337.505 32704160 32678402 32654040 32630712 32607138 32581850 32553564 
3340.880 32521070 32483682 32440796 32392244 32337554 32277272 32211926 
3344.255 32142560 32070670 31997514 31924222 31851266 31778924 31706848 
3347.630 31634678 31562194 31489656 31417552 31346392 31276558 31208194 
3351.006 31141090 31074954 31008936 30942254 30874264 30804080 30731204 
3354.381 30655282 30576528 30495588 30413772 30332542 30253066 30176090 
3357.756 30101758 30029638 29958702 29888632 29819032 29750366 29683592 
3361.131 29619310 29557948 29499004 29441272 29383020 29322646 29258772 
3364.507 29191224 29120602 29048362 28976454 28906186 28838762 28774430 
3367.882 28713080 28653790 28595712 28538526 28481950 28426054 28371226 
3371.257 28317148 28263642 28209080 28152370 28092026 28027734 27959810 
3374.632 27889848 27819932 27751972 27687268 27625682 27566296 27506880 
3378.008 27446026 27382286 27315628 27247004 27177404 27108026 27039786 
3381.383 26972654 26906446 26840918 26776280 26713344 26652918 26595776 
3384.758 26541884 26490356 26439680 26388024 26333876 26276670 26216622 
3388.133 26154752 26092046 26029598 25967508 25905322 25842794 25779360 
3391.509 25715406 25651886 25590554 25532286 25477822 25426422 25376712 
3394.884 25325956 25272080 25213820 25151358 25085952 25020312 24956998 
3398.259 24897728 24843484 24793034 24744942 24696994 24647546 24595506 
3401.634 24540984 24484224 24425966 24366488 24305442 24242934 24178436 
3405.010 24112268 24044778 23976950 23909728 23843318 23777202 23710710 
3408.385 23642826 23572716 23500940 23428230 23356406 23286762 23220520 
3411.760 23157748 23097394 23037994 22978044 22916144 22851912 22785564 
3415.135 22718244 22651216 22585382 22521586 22459682 22398972 22338586 
3418.510 22277266 22214072 22148376 22080354 22010566 21939988 21869978 
3421.886 21801268 21734660 21670464 21608126 21547396 21487474 21427946 
3425.261 21368494 21308948 21249408 21190156 21131224 21072752 21014428 
3428.636 20956008 20897108 20836964 20775368 20712080 20647342 20581812 
3432.011 20516188 20451340 20388134 20326880 20267822 20210822 20155598 
3435.387 20101942 20049578 19998398 19947780 19897342 19846354 19794158 
3438.762 19740270 19683998 19625478 19565094 19503264 19440888 19378590 
3442.137 19317444 19257448 19198848 19140984 19082328 19021120 18955388 
3445.512 18883988 18806546 18724860 18641602 18560536 18484882 18416118 
3448.888 18353552 18294796 18235910 18173404 18104966 18030356 17951444 
3452.263 17870990 17791932 17715790 17643076 17572548 17502374 17431250 
3455.638 17358274 17284206 17210322 17138002 17068244 17001256 16936276 
3459.013 16871786 16806722 16739979 16670907 16599676 16526837 16452877 
3462.389 16378481 16304169 16230142 16156748 16083710 16011063 15938908 
3465.764 15867418 15796799 15727326 15658999 15591574 15524056 15455073 
3469.139 15383629 15308764 15230309 15148746 15065758 14982614 14900686 
3472.514 14821139 14744177 14669321 14595984 14523550 14451471 14379268 
3475.890 14307144 14235033 14163481 14093207 14024862 13958956 13895661 
3479.265 13834530 13774193 13713215 13649922 13583663 13514440 13443622 
3482.640 13373089 13304652 13239504 13177680 13118015 13059076 12999223 
3486.015 12937569 12874081 12809237 12743516 12677736 12611420 12544262 
3489.391 12475955 12406398 12336237 12266668 12199358 12134819 12073698 
3492.766 12015002 11957199 11898860 11838452 11775670 11710853 11645162 
3496.141 11580330 11517823 11458659 11403175 11350999 11301004 11251492 
3499.516 11201136 11148337 11092691 11033890 10972548 10909958 10847343 
3502.892 10786300 10727778 10672694 10621318 10573716 10529514 10488101 
3506.267 10448117 10408476 10367413 10323301 10275189 10222469 10165889 
3509.642 10106739 10046952 9988496 9933133 9881471 9833816 9789756 9748041 
3513.500 9707718 9667535 9626677 9584571 9540843 9495324 9448286 9400101 
3517.357 9351449 9303310 9256868 9213105 9172764 9136217 9102955 9072199 
3521.214 9042393 9011879 8979303 8943955 8905737 8865154 8822478 8778421 
3525.072 8732171 8683390 8631065 8574996 8515927 8454704 8393827 8334951 
3528.929 8279258 8226813 8176638 8127413 8078363 8028879 7979772 7931784 
3532.787 7885320 7839975 7794465 7746531 7694859 7638843 7578958 7517427 
3536.644 7456985 7399989 7347651 7300406 7257211 7217051 7178917 7142200 
3540.501 7106666 7072414 7039242 7006713 6974456 6941830 6908365 6873658 
3544.359 6837135 6797890 6754879 6707430 6655646 6601143 6546009 6493773 
3548.216 6447059 6407042 6373215 6343526 6314444 6282877 6246404 6204187 
3552.074 6156496 6104912 6051083 5996320 5942303 5889737 5840301 5795403 
3555.931 5756017 5722677 5694476 5669399 5644357 5616799 5584544 5547089 
3559.789 5506081 5464271 5425049 5391902 5367614 5353525 5350070 5355336 
3563.646 5365736 5375934 5378986 5367782 5335478 5278726 5198541 5101541 
3567.503 4998395 4900568 4818041 4756231 4715331 4691549 4678788 4671051 
3571.361 4662980 4651325 4634915 4613918 4589639 4563521 4536668 4510017 
3575.218 4483736 4458026 4432618 4407647 4382678 4357643 4332275 4306072 
3579.076 4278832 4250190 4220144 4189665 4160359 4134501 4114765 4103627 
3582.933 4102088 4109948 4124465 4141158 4153769 4155575 4140321 4104062 
3586.791 4046233 3970555 3884727 3798983 3723215 3664835 3627847 3611743 
3590.648 3612578 3624339 3640477 3654577 3661728 3659289 3646959 3626544 
3594.505 3600851 3572888 3545260 3519138 3495155 3473511 3453571 3434668 
3598.363 3415833 3396030 3374190 3350048 3323570 3296360 3270219 3247418 
3602.220 3229759 3218643 3214236 3215872 3222915 3233965 3247117 3260003 
3606.078 3268950 3269785 3258868 3233764 3194710 3146146 3094218 3045733 
3609.935 3005527 2974132 2949045 2924960 2896273 2859984 2816727 2770707 
3613.792 2728093 2695551 2676981 2672714 2679648 2692651 2705220 2710821 
3617.650 2704187 2682049 2643944 2592442 2533614 2475194 2425012 2388695 
3621.507 2369006 2365141 2373803 2391094 2414017 2441339 2474095 2513818 
3625.365 2560944 2612275 2660545 2693518 2696752 2658712 2576443 2460599 
3629.222 2332793 2219546 2139025 2096572 2085452 2092743 2104197 2108758 
3633.080 2101067 2081190 2053891 2025228 2000395 1981855 1968774 1958056 
3636.937 1947505 1935191 1921446 1908466 1897950 1891128 1887933 1887001 
3640.794 1886402 1885370 1884339 1885570 1892359 1907501 1932395 1967043 
3644.652 2008251 2051394 2090879 2121244 2137526 2136627 2116249 2075664 
3648.509 2015275 1937088 1845871 1749384 1659371 1588265 1546498 1539681 
3652.367 1566682 1620224 1687976 1755705 1809137 1835922 1829899 1792468 
3656.224 1732883 1664460 1600603 1550422 1516805 1498119 1490139 1488776 
3660.082 1491070 1495858 1502674 1511318 1521360 1531767 1541643 1550654 
3663.939 1559799 1571338 1588265 1613273 1648262 1692699 1743263 1794165 
3667.796 1837053 1863640 1867966 1850097 1818986 1792501 1790738 1831430 
3671.654 1922211 2059850 2230903 2414783 2588175 2723791 2798018 2796217 
3675.511 2720457 2588909 2428211 2262943 2106194 1961884 1828768 1705672 
3679.369 1593885 1497520 1420989 1366574 1332772 1315822 1310039 1312498 
3683.226 1322336 1342178 1374784 1420989 1477605 1536722 1587932 1619626 
3687.083 1623583 1597210 1545766 1480830 1415736 1361156 1321871 1296679 
3690.941 1281027 1271489 1265873 1264544 1268831 1279332 1294918 1313329 
3694.798 1331044 1345169 1354509 1359993 1364380 1370662 1381099 1395692 
3698.656 1411947 1425443 1430862 1424645 1404634 1372723 1333902 1295449 
3702.513 1264544 1246600 1244274 1257266 1282721 1316752 1355173 1394595 
3706.371 1432491 1467797 1499914 1528442 1552716 1570706 1578953 1573433 
3710.228 1549590 1505101 1440735 1361987 1278202 1200779 1140545 1104601 
3714.085 1094968 1109584 1143169 1188519 1238359 1286875 1329681 1364347 
3717.943 1391005 1410650 1424911 1435250 1442364 1446852 1448681 1449046 
3721.800 1449113 1450975 1456128 1465071 1476707 1488643 1496855 1498551 
3725.658 1492101 1478735 1463242 1452703 1453933 1471587 1506298 1554578 
3729.515 1609382 1661566 1703377 1729324 1738439 1734647 1724267 1712658 
3733.373 1700782 1685082 1658572 1615136 1553049 1478669 1403437 1341480 
3737.230 1302462 1289468 1299770 1327687 1368103 1418895 1480331 1553248 
3741.087 1635324 1719644 1792035 1832794 1823278 1752145 1626876 1476341 
3744.945 1343806 1264511 1251617 1295649 1374252 1462777 1538650 1587367 
3748.802 1603097 1588165 1550854 1500446 1444492 1386252 1328617 1275244 
3752.660 1232278 1207059 1204766 1225234 1263680 1311867 1361356 1404933 
3756.517 1438608 1461946 1476508 1483456 1483057 1474313 1455828 1429432 
3760.375 1399980 1375416 1363184 1368169 1389941 1423017 1458688 1488676 
3764.232 1507195 1513347 1511152 1507461 1508559 1516572 1529273 1540080 
3768.089 1542375 1530238 1502541 1462644 1418230 1378008 1349257 1335697 
3771.947 1337192 1351019 1372923 1398983 1425510 1450775 1474114 1495558 
3775.804 1515940 1534993 1551984 1564854 1571338 1569343 1558968 1542341 
3779.662 1524186 1510454 1505367 1510554 1524585 1542940 1559799 1570606 
3783.519 1572402 1565120 1550654 1532166 1512549 1493663 1476308 1460882 
3787.376 1447983 1438907 1434618 1435915 1441766 1449878 1457989 1463874 
3791.234 1467730 1471786 1479234 1493430 1515209 1542042 1568944 1589628 
3795.091 1599006 1596013 1584474 1573001 1570440 1583576 1613406 1654215 
3798.949 1694728 1720774 1719278 1682621 1613373 1525483 1441999 1385853 
3802.806 1370529 1396988 1454798 1527112 1594251 1638783 1649160 1622619 
3806.664 1567115 1498883 1438209 1399082 1387781 1401343 1432624 1473981 
3810.521 1519930 1569077 1622153 1680126 1741999 1802649 1853125 1883540 
3814.378 1884938 1854656 1799488 1736543 1687078 1668318 1687510 1739137 
3818.236 1808338 1874955 1919648 1927137 1890562 1814693 1716849 1621887 
3822.093 1551020 1516472 1517569 1544735 1584174 1622386 1650357 1663828 
3825.951 1664426 1657841 1651953 1653517 1665424 1686812 1714055 1742198 
3829.808 1766750 1785714 1798989 1808771 1818586 1832062 1851761 1879048 
3833.666 1913525 1952764 1992906 2027858 2051261 2056554 2039243 1999164 
3837.523 1941082 1874156 1809703 1757268 1722138 1704408 1700150 1703078 
3841.380 1707934 1710030 1707335 1699485 1687743 1674039 1660668 1650157 
3845.238 1645069 1647829 1660435 1684184 1720043 1768081 1828169 1899614 
3849.095 1981422 2070537 2162034 2246523 2310575 2337690 2310908 2219712 
3852.953 2068572 1881910 1696890 1549790 1461148 1432025 1450310 1498617 
3856.810 1562060 1629470 1694263 1753376 1805577 1849897 1885138 1910663 
3860.667 1925872 1931929 1931130 1925672 1917119 1905305 1889198 1868665 
3864.525 1846636 1829267 1824509 1839449 1875587 1928102 1985350 2032685 
3868.382 2055522 2044736 2001560 1938819 1877118 1834591 1820782 1833160 
3872.240 1860945 1888732 1904373 1902143 1883973 1859181 1839782 1836155 
3876.097 1852926 1888698 1936555 1987680 2032452 2062913 2074465 2066775 
3879.955 2044569 2016273 1992540 1982920 1992074 2019103 2056554 2093342 
3883.812 2115983 2112754 2079093 2019070 1947073 1882375 1843276 1839549 
3887.669 1870262 1925173 1989278 2046800 2083721 2091611 2069471 2023996 
3891.527 1967342 1913392 1874123 1856486 1861977 1888166 1930731 1984118 
3895.384 2043005 2103164 2160435 2211586 2253983 2285492 2304878 2311874 
3899.242 2307343 2293420 2272868 2248021 2220412 2189940 2155507 2115650 
3903.099 2070204 2020934 1971636 1928135 1895554 1877484 1873790 1882143 
3906.957 1898249 1917851 1937587 1956159 1973600 1991075 2009483 2029389 
3910.814 2050329 2071502 2092544 2113586 2135695 2159803 2185644 2211819 
3914.671 2235099 2252085 2259745 2256981 2244891 2226939 2207157 2188541 
3918.529 2172856 2160435 2150979 2144619 2142421 2145817 2156040 2172523 
3922.386 2192537 2211386 2224375 2227772 2220811 2206491 2189906 2177185 
3926.244 2173189 2179516 2194868 2215949 2238796 2259479 2275866 2286392 
3930.101 2290522 2288224 2279230 2264208 2243991 2221178 2198831 2179883 
3933.958 2167062 2160635 2160102 2163066 2167561 2172124 2176719 2182680 
3937.816 2191904 2205625 2224541 2247189 2270537 2291488 2306344 2312873 
3941.673 2310408 2300548 2286525 2272369 2262276 2259279 2264308 2276566 
3945.531 2293053 2310042 2323100 2329062 2326131 2314805 2297184 2276799 
3949.388 2257347 2241660 2231668 2228005 2229870 2236131 2244957 2254649 
3953.246 2263309 2269738 2272968 2273068 2270836 2268205 2267273 2269937 
3957.103 2276932 2287957 2301214 2314172 2324266 2329595 2329695 2325365 
3960.960 2318602 2311507 2306377 2304512 2306344 2311274 2318269 2325565 
3964.818 2331927 2336091 2337657 2336624 2333526 2329495 2325298 2321834 
3968.675 2319202 2317403 2316004 2314705 2313639 2313106 2313639 2315638 
3972.533 2319002 2323266 2327730 2331627 2334692 2337524 2340722 2345419 
3976.390 2352382 2361443 2371704 2381832 2390328 2395859 2398224 2397624 
3980.248 2394826 2390927 2386930 2383631 2381699 2381566 2383098 2386163 
3984.105 2389828 2393093 2394426 2392627 2386896 2377901 2366707 2355413 
3987.962 2346019 2340222 2338523 2340922 2346585 2354580 2364308 2375302 
3991.820 2387629 2400956 2414650 2427578 2438340 2445204 2447970 2446837 
3995.677 2442838 2438040 2434208 2432642 2433809 2437141 2441272 2444438 
3999.535 2445471 2443472 2438640 
##END=
