
##TITLE=Z382_2_e
##JCAMP-DX=5.01  $$ Nicolet v. 1
##DATATYPE=INFRARED SPECTRUM
##ORIGIN=UniL
##OWNER=Nicolet
##LONGDATE=2011/09/09
##TIME=10:26:03
##SPECTROMETER/DATA SYSTEM=Nicolet iS5
##DATA PROCESSING=
Ratio against background
%Transmittance->Absorbance
Truncated
ElementMultiply or ElementDivide
##COMMENTS=
Number of sample scans: 32
Collection length: 51.19 sec
Sample gain: 2.0
Background collected on: Ven Sep 09 10:10:32 2011 (GMT+02:00);
Number of background scans: 32
Background gain: 2.0
Sample spacing:  1.000
Number of scan points: 12415
Resolution points: 8192
Number of FFT points: 65536
Apodization: N-B fort;
Phase correction: Mertz;
Laser frequency: 15798.0 cm-1
Number of rejected sample scans: 0
Number of rejected background scans: 0
Bench serial number: ASB1000141;
##RESOLUTION=4.000
##XUNITS=1/CM
##YUNITS=ABSORBANCE
##FIRSTX=649.893372
##LASTX=4000.122314
##FIRSTY=0.071719
##MAXX=4000.122314
##MINX=649.893372
##MAXY=0.198365
##MINY=0.001428
##XFACTOR=1.000000
##YFACTOR=1.000000E-009
##NPOINTS=6950
##DELTAX=0.482117
##ZPD=6100
##XYDATA=(X++(Y..Y))
649.893 71718824 71810376 71952056 72154744 72410568 72701712 73008272 
653.268 73323272 73652832 74010584 74404960 74830520 75267056 75691208 
656.643 76086840 76455648 76814968 77189416 77594616 78029736 78475576 
660.018 78904152 79293536 79635296 79936112 80212576 80483400 80765368 
663.393 81073512 81428392 81855296 82381256 83020320 83753016 84505384 
666.767 85126344 85428120 85250112 84555904 83466656 82193880 80932848 
670.142 79786656 78777448 77868648 77005576 76142552 75262288 74373896 
673.517 73502936 72670256 71879144 71114080 70350568 69571696 68777112 
676.892 67984400 67220440 66509528 65861048 65269904 64721092 64200216 
680.267 63700444 63224360 62778620 62368228 61991660 61641492 61309280 
683.642 60991576 60692668 60421984 60188200 59991096 59820168 59658204 
687.016 59488736 59303912 59109604 58921832 58759936 58636664 58551004 
690.391 58490988 58439092 58379996 58306548 58220880 58128744 58034932 
693.766 57938256 57832592 57711896 57575452 57430432 57290224 57167332 
697.141 57068736 56991392 56926528 56862316 56792940 56719724 56649880 
700.516 56589896 56540340 56492792 56434224 56352620 56244928 56119432 
703.890 55993364 55884932 55805124 55753776 55720700 55693088 55661976 
707.265 55626424 55593844 55574148 55573920 55593732 55630072 55680808 
710.640 55750760 55854372 56012248 56244816 56565856 56976848 57467988 
714.015 58019364 58606252 59198184 59756820 60239736 60600696 60803256 
717.390 60839044 60742164 60596160 60510456 60601876 60943384 61531568 
720.765 62270088 62984772 63474096 63545236 63082656 62070776 60593304 
724.139 58799656 56865828 54962008 53209132 51678596 50394976 49346560 
727.514 48502580 47825260 47278908 46831292 46455152 46130812 45843832 
730.889 45586296 45354656 45147516 44962852 44797184 44645904 44505136 
734.264 44372932 44250120 44138196 44037124 43943880 43853700 43761048 
737.639 43663652 43563092 43465372 43377048 43302400 43240612 43186956 
741.013 43135536 43082004 43026756 42974040 42928868 42893972 42868076 
744.388 42845732 42821200 42791944 42760208 42732128 42714432 42710448 
747.763 42718016 42731140 42743316 42752160 42761632 42779732 42814760 
751.138 42869868 42940496 43016588 43086576 43143036 43186956 43226556 
754.513 43273044 43333628 43409200 43492328 43572616 43640788 43694100 
757.888 43736788 43777356 43824380 43882512 43952532 44033016 44125064 
761.262 44233496 44365996 44530980 44732356 44968624 45233808 45523040 
764.637 45836760 46184984 46585708 47059180 47624108 48291336 49064124 
768.012 49942836 50931440 52044572 53317652 54808836 56602696 58818624 
771.387 61593036 65069676 69370408 74541840 80505296 86993472 93562376 
774.762 99566688 104247256 106925648 107094328 104593144 99640832 92800232 
778.136 84836344 76514448 68546312 61437700 55462132 50706652 47096620 
781.511 44467656 42612228 41338288 40485448 39927724 39582380 39392556 
784.886 39320616 39342892 39442588 39606876 39826608 40093540 40401984 
788.261 40748640 41133232 41557328 42024280 42536612 43096272 43704616 
791.636 44363864 45078848 45857048 46708668 47644076 48671556 49797664 
795.010 51027496 52367600 53829724 55431340 57197644 59160024 61352704 
798.385 63815416 66594884 69743704 73328448 77424016 82102280 87423728 
801.760 93411144 100033208 107174216 114627072 122099392 129190608 135452448 
805.135 140431696 143705888 144994896 144204640 141464800 137099184 
808.028 131584864 125485616 119324680 113574864 108602192 104620672 
810.920 101717184 99838184 98817792 98384456 98203296 97937344 97257104 
814.295 95914648 93776720 90824872 87154088 82936816 78398888 73764616 
817.670 69234416 64975576 61096296 57656000 54670676 52120476 49963316 
821.045 48144276 46610204 45310704 44204808 43263412 42464296 41791436 
824.420 41232432 40776264 40413620 40138316 39947704 39844040 39832240 
827.794 39919408 40111568 40412020 40820196 41330960 41934060 42613836 
831.169 43350508 44119492 44894216 45651584 46372932 47047360 47669960 
834.544 48235612 48730900 49129936 49387988 49449844 49263564 48790140 
837.919 48020692 46979940 45726272 44337920 42897920 41487908 40169932 
841.294 38986048 37959000 37093748 36382848 35810572 35358840 35008160 
844.669 34740924 34544596 34410252 34332720 34308732 34334012 34401936 
848.043 34504164 34631140 34775384 34933680 35106580 35297628 35510476 
851.418 35746888 36006216 36286300 36585920 36906564 37252600 37630100 
854.793 38043804 38495156 38982352 39501808 40050884 40630888 41247916 
858.168 41912200 42636240 43432488 44314072 45296876 46400988 47656312 
861.543 49101224 50780056 52744672 55045384 57726348 60821092 64338484 
864.917 68250264 72467800 76837744 81124352 85010752 88161464 90242896 
868.292 90996880 90307880 88217280 84927624 80740704 76031104 71167672 
871.667 66449828 62113476 58297000 55052872 52372760 50204976 48478200 
875.042 47112428 46035760 45187700 44518576 43992864 43584668 43274396 
878.417 43048488 42895840 42807268 42776112 42797356 42867056 42983004 
881.792 43142272 43341756 43579028 43851980 44160644 44507416 44896196 
885.166 45331156 45814740 46347716 46928888 47557744 48235240 48966864 
888.541 49763484 50642496 51627616 52750020 54048060 55559124 57314460 
891.916 59324044 61563864 63961276 66391416 68697656 70695616 72215512 
895.291 73138816 73406440 73034064 72094656 70704432 68990440 67072592 
898.666 65062784 63051812 61115900 59321576 57718324 56340020 55202180 
902.040 54300452 53615312 53117908 52781076 52581056 52501184 52531432 
905.415 52662708 52885552 53190372 53568380 54015076 54531088 55121480 
908.790 55793444 56552572 57403356 58349376 59396980 60557800 61848824 
912.165 63289984 64900964 66695744 68682248 70862728 73235960 75798584 
915.540 78543464 81456928 84511552 87664136 90859056 94026056 97086944 
918.914 99960000 102545576 104727144 106372472 107330392 107468504 106704888 
922.289 105041288 102585480 99547904 96228528 92944544 90006528 87680672 
925.664 86144368 85502064 85783960 86960800 88952992 91636488 94858648 
929.039 98420440 102096392 105661664 108885616 111569200 113559800 114740768 
932.414 115042600 114439320 112948984 110641056 107644056 104159352 
935.306 100437416 96775216 93500560 90910848 89274440 88801088 89611616 
938.681 91743624 95131544 99612952 104897792 110575608 116165560 121096992 
942.056 124813864 126870720 126965520 125028912 121219000 115903488 
944.949 109564968 102714112 95843248 89323728 83408152 78236904 73844264 
948.324 70197592 67221288 64826332 62919164 61412356 60235476 59327008 
951.698 58637272 58129732 57773964 57546816 57430924 57411372 57475440 
955.073 57612152 57810976 58062348 58358468 58692340 59058352 59451500 
958.448 59867096 60300492 60747156 61202908 61665132 62133048 62607592 
961.823 63090660 63584624 64090908 64609656 65140152 65681280 66232152 
965.198 66792420 67361800 67939256 68523144 69110784 69698776 70285584 
968.573 70871312 71458176 72050456 72652712 73269024 73902584 74556072 
971.947 75232464 75936016 76671952 77446040 78262936 79125176 80032712 
975.322 80983904 81976248 83007600 84076192 85179952 86315264 87475232 
978.697 88651312 89832584 91008656 92171248 93312880 94427104 95506696 
982.072 96542056 97523336 98441312 99290496 100070752 100786928 101446976 
985.447 102058544 102627656 103157512 103650320 104108784 104537456 
988.339 104942216 105328352 105698424 106050592 106380264 106682528 
991.232 106955664 107203608 107435832 107664736 107903568 108161960 
994.125 108446080 108758848 109102248 109477776 109887168 110330608 
997.017 110804936 111303080 111815944 112334224 112852512 113370184 
999.910 113891688 114423056 114969240 115532104 116111064 116705232 
1002.803 117316664 117951440 118619312 119331304 120095752 120917448 
1005.695 121799160 122743792 123759664 124862584 126073928 127421064 
1008.588 128933536 130637960 132560808 134724448 137141536 139805840 
1011.481 142675872 145665776 148624768 151350720 153620848 155209648 
1014.374 155956000 155796272 154783024 153073600 150897392 148524192 
1017.266 146193760 144099136 142369680 141060128 140170672 139662176 
1020.159 139478864 139558720 139846256 140300096 140890288 141598736 
1023.052 142416624 143339504 144364064 145486576 146700912 148000400 
1025.945 149379552 150833568 152360000 153956032 155616400 157333984 
1028.838 159098624 160900224 162731152 164587552 166468352 168372912 
1031.731 170298224 172236816 174178976 176114384 178036000 179941536 
1034.624 181831904 183707568 185564736 187391792 189170320 190878640 
1037.517 192491680 193984576 195329904 196491168 197422976 198069312 
1040.410 198364832 198249056 197670096 196591008 194994976 192881648 
1043.303 190266736 187180256 183669472 179799856 175648816 171308720 
1046.196 166874416 162430528 158054096 153805136 149727184 145854096 
1049.089 142209200 138807840 135658128 132759184 130101728 127668752 
1051.982 125439080 123389944 121499560 119749704 118123888 116605576 
1054.875 115178344 113822656 112518144 111245848 109988224 108731184 
1057.768 107464296 106179024 104867928 103525320 102147568 100735192 
1060.661 99293200 97832408 96366752 94911336 93481120 92088168 90741640 
1064.037 89448944 88215576 87045656 85942720 84908048 83941064 83039296 
1067.412 82199208 81416288 80687072 80008968 79379960 78798024 78260672 
1070.787 77764280 77305040 76878984 76483224 76116208 75777720 75467072 
1074.162 75184040 74928040 74698744 74497664 74329224 74201856 74126936 
1077.538 74118560 74192496 74363392 74644800 75047832 75578888 76238784 
1080.913 77019104 77901032 78851544 79824280 80765168 81611888 82305600 
1084.288 82799152 83059560 83076080 82861496 82452640 81905064 81289608 
1087.663 80688800 80180856 79839496 79727768 79890584 80359832 81155904 
1091.039 82290736 83774480 85618592 87836728 90442808 93444672 96835384 
1094.414 100580160 104605792 108797616 112980184 116936648 120421576 
1097.307 123168968 124950616 125602808 125056000 123353936 120645576 
1100.200 117166792 113179096 108954768 104740464 100718856 97024384 93734080 
1103.575 90875232 88442128 86406376 84729400 83367288 82278888 81429152 
1106.950 80787040 80328848 80036256 79894168 79890704 80015104 80257144 
1110.326 80608000 81060896 81612160 82262352 83013984 83867672 84815712 
1113.701 85831680 86860832 87821272 88596456 89050552 89057880 88514144 
1117.076 87373440 85661496 83480184 80989064 78369520 75807664 73448544 
1120.451 71383616 69653336 68251112 67142816 66283868 65637304 65179460 
1123.827 64902580 64812444 64925052 65262584 65848864 66707456 67854416 
1127.202 69289168 70982568 72865992 74832408 76725280 78360752 79553832 
1130.577 80125024 79941768 78933712 77100528 74515480 71314696 67687960 
1133.952 63836596 59960248 56236632 52791588 49707564 47021700 44733716 
1137.328 42819440 41240668 39957840 38930884 38123416 37504268 37042900 
1140.703 36711596 36486840 36347756 36278808 36269296 36311044 36397076 
1144.078 36520212 36672008 36844340 37030780 37227116 37431884 37645460 
1147.453 37868316 38100336 38340116 38586476 38839024 39099656 39371368 
1150.829 39657372 39959072 40275056 40601308 40932868 41265224 41596412 
1154.204 41926544 42256812 42587556 42916904 43240720 43553348 43849048 
1157.579 44123672 44374360 44598828 44793808 44953848 45071424 45138732 
1160.954 45148324 45095312 44977552 44794580 44546804 44234488 43857256 
1164.330 43415644 42911748 42350244 41738320 41084572 40397948 39686596 
1167.705 38957304 38216936 37472660 36732472 36006032 35302480 34629812 
1171.080 33993188 33394780 32834362 32311142 31824772 31376592 30969440 
1174.455 30606286 30289372 30018988 29793834 29611434 29469038 29364584 
1177.831 29295848 29260652 29256044 29278764 29326334 29398584 29498612 
1181.206 29633038 29810620 30040788 30330978 30686930 31112578 31610906 
1184.581 32186020 32842868 33586508 34421624 35352616 36384612 37527460 
1187.956 38798044 40221544 41831492 43661164 45734372 48054924 50597560 
1191.332 53303864 56079804 58813120 61381096 63664764 65575764 67062340 
1194.707 68122408 68802304 69195008 69427672 69633928 69952416 70500544 
1198.082 71356592 72558176 74089248 75883888 77821792 79745088 81477280 
1201.457 82825616 83621480 83734896 83084472 81652352 79478344 76655312 
1204.833 73306992 69583056 65648020 61653788 57744440 54041608 50629204 
1208.208 47561552 44858356 42510484 40487596 38747072 37245020 35938868 
1211.583 34794660 33788852 32904766 32132604 31466998 30904968 30445580 
1214.958 30089258 29836990 29689232 29644462 29698032 29842420 30068306 
1218.333 30366190 30729176 31153014 31636420 32178990 32779582 33435252 
1221.709 34141344 34892276 35682744 36508788 37366048 38249792 39152956 
1225.084 40066836 40982712 41894652 42801744 43709748 44629636 45576724 
1228.459 46566532 47613940 48732600 49934064 51229896 52630876 54145976 
1231.834 55781504 57539668 59419320 61417088 63529588 65755792 68096904 
1235.210 70554728 73130000 75820008 78618264 81515608 84499272 87552288 
1238.585 90649000 93745672 96779360 99660920 102275864 104506184 106234704 
1241.960 107367088 107852128 107688552 106934168 105695552 104131312 
1244.853 102429832 100777648 99362136 98337240 97812736 97861832 98516128 
1248.229 99777520 101629544 104047384 107003944 110463904 114381880 
1251.122 118685240 123257112 127941488 132526952 136751952 140343904 
1254.015 143011680 144486176 144566000 143126480 140155536 135751280 
1256.908 130117592 123528152 116276808 108674232 100998680 93481576 86322096 
1260.283 79663048 73597368 68176488 63406600 59260276 55683180 52607612 
1263.658 49957852 47658088 45643636 43859568 42263716 40829292 39540640 
1267.033 38392492 37388040 36537800 35857928 35367212 35087036 35035780 
1270.409 35224172 35650480 36295952 37122148 38066700 39051296 39984140 
1273.784 40762760 41294520 41501468 41332344 40775060 39856896 38642860 
1277.159 37217116 35677676 34117652 32608602 31203496 29930694 28798540 
1280.534 27802622 26931016 26169710 25503858 24919520 24404200 23945928 
1283.910 23535744 23167392 22838152 22547306 22294916 22080076 21900014 
1287.285 21750336 21626826 21526260 21447544 21390876 21356348 21341974 
1290.660 21343924 21357184 21376674 21399716 21426484 21459484 21501646 
1294.035 21554534 21618014 21690178 21769704 21856876 21954694 22067596 
1297.411 22200018 22354388 22530170 22724808 22935460 23160752 23401198 
1300.786 23659236 23936614 24233054 24546490 24872676 25208272 25551754 
1304.161 25904582 26269490 26648304 27040352 27441790 27847062 28251016 
1307.536 28651028 29048222 29445564 29846074 30250472 30656596 31060506 
1310.912 31458270 31848446 32233302 32618030 33010434 33418540 33851320 
1314.287 34318448 34828728 35389536 36001068 36652324 37313800 37939076 
1317.662 38470680 38844712 39010260 38938420 38627576 38102724 37407508 
1321.037 36595940 35717532 34815408 33924436 33069250 32270308 31544984 
1324.413 30905430 30359936 29910354 29552768 29279190 29080424 28948898 
1327.788 28878104 28862736 28897296 28973726 29083260 29217236 29368590 
1331.163 29533226 29709136 29894026 30084038 30272426 30450520 30610554 
1334.538 30747598 30860782 30952572 31026446 31084672 31126352 31148422 
1337.914 31147602 31123328 31079120 31022708 30962928 30907634 30861064 
1341.289 30823822 30795222 30775020 30765098 30769792 30793942 30841358 
1344.664 30914182 31013136 31139168 31295646 31488158 31724208 32011066 
1348.039 32353118 32751962 33207286 33718444 34286352 34912920 35599552 
1351.415 36343576 37137128 37967464 38817936 39672508 40517348 41338396 
1354.790 42119780 42839116 43464204 43958472 44284604 44413152 44332672 
1358.165 44052892 43606648 43041352 42418156 41802596 41254696 40832680 
1361.540 40587884 40561216 40785728 41279764 42045636 43069964 44325076 
1364.916 45772144 47356460 49009336 50643648 52148496 53411128 54328092 
1368.291 54828236 54894852 54567268 53933776 53100984 52183020 51279148 
1371.666 50459464 49772956 49244452 48878752 48660880 48554968 48507468 
1375.041 48444936 48289376 47972988 47444116 46683024 45703704 44555432 
1378.417 43310892 42055928 40877092 39840156 38991416 38358104 37953068 
1381.792 37783584 37854692 38170916 38740004 39578568 40716688 42203280 
1385.167 44097888 46449144 49263824 52468652 55898460 59291872 62353308 
1388.542 64812212 66454040 67164592 66920348 65777996 63850380 61287528 
1391.917 58261496 54930760 51454652 47992192 44691000 41696340 39123876 
1395.293 37033952 35423436 34231824 33370666 32741386 32261462 31877008 
1398.668 31558558 31300344 31108734 30991500 30949442 30974990 31053530 
1402.043 31168714 31306506 31457522 31620208 31800814 32012026 32268848 
1405.418 32586958 32979582 33455330 34019348 34671760 35406216 36204936 
1408.794 37036444 37856712 38608712 39236364 39698360 39975892 40080132 
1412.169 40045396 39920968 39754416 39583576 39433048 39313328 39226644 
1415.544 39170904 39143748 39142440 39164124 39206372 39269800 39362372 
1418.919 39500904 39709032 40006884 40400712 40880588 41422808 41999496 
1422.295 42584380 43162104 43731880 44305888 44902480 45537020 46213984 
1425.670 46923828 47647884 48364296 49057148 49717188 50342956 50938704 
1429.045 51513856 52083792 52670524 53307836 54038456 54904332 55942820 
1432.420 57175192 58606516 60230868 62043368 64049976 66265032 68703904 
1435.796 71360032 74182784 77074024 79914088 82602056 85079024 87322112 
1439.171 89318768 91049352 92469512 93514208 94120240 94234288 93834160 
1442.546 92932160 91573112 89825368 87765504 85477656 83034960 80489944 
1445.921 77878160 75219888 72537808 69879544 67325352 64982080 62964664 
1449.297 61358772 60210620 59522216 59257960 59351964 59710740 60227896 
1452.672 60778904 61234992 61479572 61396096 60877432 59835760 58231072 
1456.047 56123388 53702444 51276496 49150456 47508804 46385244 45707828 
1459.422 45373452 45291104 45399056 45656444 46030344 46490484 47001872 
1462.798 47524624 48023092 48466716 48840004 49146260 49408368 49661088 
1466.173 49939268 50274240 50686840 51187316 51776684 52446740 53182808 
1469.548 53958388 54737572 55470492 56087268 56508452 56658828 56491544 
1472.923 56009800 55263852 54330080 53280676 52175248 51062380 49983764 
1476.299 48986932 48121512 47427268 46932168 46644548 46556424 46652628 
1479.674 46918880 47348552 47944828 48719144 49685424 50854136 52227188 
1483.049 53797544 55553176 57485840 59596628 61900708 64426756 67208832 
1486.424 70274744 73636384 77283032 81186584 85314064 89636912 94136456 
1489.800 98792120 103574184 108426848 113270904 118015176 122574160 
1492.693 126878040 130853904 134428464 137513152 139991664 141752032 
1495.586 142717264 142892000 142376944 141358832 140060432 138670208 
1498.479 137330656 136134944 135139056 134388976 133924144 133770912 
1501.372 133936720 134396032 135089120 135908512 136700976 137264688 
1504.265 137310640 136476848 134358688 130605328 125125128 118220536 
1507.158 110518128 102674200 95112408 87957048 81140968 74540224 68072720 
1510.533 61730364 55599684 49829176 44564172 39925800 35964856 32659468 
1513.908 29940280 27712272 25880914 24356150 23066120 21960934 21009768 
1517.284 20203322 19543120 19028806 18648380 18373462 18159412 17959940 
1520.659 17741090 17500754 17271930 17106776 17046294 17098918 17243072 
1524.034 17440630 17657188 17871128 18082584 18308620 18574302 18896932 
1527.409 19278648 19708544 20171702 20658426 21169734 21715084 22306810 
1530.785 22951704 23648250 24384924 25144440 25911722 26679378 27450826 
1534.160 28233018 29030898 29839332 30643976 31421792 32147162 32797698 
1537.535 33350666 33788348 34096220 34264164 34285352 34160128 33902688 
1540.910 33541978 33116270 32661040 32195688 31718612 31209620 30643620 
1544.286 30004502 29298968 28557352 27823606 27134972 26504162 25918334 
1547.661 25345836 24753292 24120604 23453690 22781930 22147576 21583366 
1551.036 21098352 20678648 20298202 19933662 19575596 19233170 18927802 
1554.411 18681552 18502790 18381412 18290096 18192166 18043552 17795040 
1557.787 17401864 16838546 16127758 15349817 14612740 13997896 13533138 
1561.162 13203775 12973994 12804255 12658563 12511045 12350316 12180787 
1564.537 12020520 11893242 11817547 11797901 11823641 11873695 11926888 
1567.912 11967928 11992827 12008700 12031216 12076729 12155775 12273382 
1571.288 12430639 12627861 12866197 13146053 13465222 13816024 14187684 
1574.663 14568777 14953736 15347860 15767217 16234545 16764877 17362446 
1578.038 18023172 18740706 19511130 20334902 21214196 22146982 23121646 
1581.413 24117172 25100662 26033466 26878808 27600578 28168916 28562022 
1584.789 28765046 28773156 28591960 28238960 27741446 27134126 26458802 
1588.164 25754748 25054290 24377564 23729012 23100644 22477514 21846250 
1591.539 21199096 20535746 19861130 19182434 18506630 17840816 17195738 
1594.914 16588004 16037500 15565781 15187656 14906310 14713534 14594099 
1598.290 14533246 14522625 14563157 14661952 14827070 15061813 15363787 
1601.665 15727740 16151588 16641296 17212666 17886146 18682106 19614488 
1605.040 20688692 21903952 23255790 24740172 26348874 28066012 29863536 
1608.415 31696010 33506866 35238404 36837628 38270888 39527684 40620884 
1611.791 41579132 42436568 43220660 43942156 44591488 45138876 45542872 
1615.166 45754800 45733044 45455192 44925592 44170328 43222640 42107840 
1618.541 40836868 39410916 37827540 36085600 34186868 32144022 29980004 
1621.916 27734134 25473044 23281308 21249304 19453120 17933176 16690291 
1625.292 15692698 14892525 14238456 13686167 13207532 12788285 12428116 
1628.667 12132980 11908907 11757013 11672288 11644787 11661975 11711704 
1632.042 11780402 11854320 11917898 11951887 11936186 11854830 11703909 
1635.417 11498327 11271385 11062508 10899290 10790511 10727337 10692255 
1638.792 10666581 10635443 10592186 10537492 10478189 10422967 10378883 
1642.168 10348546 10328899 10313054 10291067 10253103 10188819 10090189 
1645.543 9952999 9779387 9581557 9380498 9202884 9071354 8999227 8987759 
1649.400 9027677 9101297 9183018 9242550 9242957 9147147 8935804 8629241 
1653.258 8292564 8001338 7801380 7692734 7649702 7641676 7645790 7648488 
1657.115 7643598 7630683 7612069 7590691 7568707 7546320 7521271 7489245 
1660.973 7444547 7381250 7296093 7190875 7074435 6960011 6863324 6796072 
1664.830 6762585 6760027 6779312 6808021 6832389 6840064 6822224 6774937 
1668.688 6700162 6604810 6500634 6400720 6316898 6258405 6228690 6225329 
1672.545 6239110 6255917 6258102 6229127 6161369 6060592 5947342 5847420 
1676.402 5781938 5757091 5766023 5793590 5824988 5851820 5874053 5899410 
1680.260 5938273 5997731 6075443 6158680 6224488 6246874 6204725 6094932 
1684.117 5939414 5780360 5658925 5593941 5582429 5608072 5652950 5701492 
1687.975 5743191 5772570 5787680 5790333 5785464 5781468 5788251 5814376 
1691.832 5864884 5938340 6026859 6115564 6187415 6226976 6227681 6198002 
1695.689 6162075 6150379 6182508 6259850 6364910 6471508 6547186 6562995 
1699.547 6504468 6382461 6235244 6109415 6038215 6027128 6061633 6118689 
1703.404 6175686 6214808 6224555 6202708 6155723 6096847 6039592 5994002 
1707.262 5963533 5945998 5936660 5931454 5927591 5926348 5930412 5943244 
1711.119 5967161 6002401 6047286 6099032 6154815 6212522 6270842 6328262 
1714.977 6381352 6423384 6446151 6441342 6406100 6346585 6277666 6219379 
1718.834 6187516 6188827 6220824 6274809 6339861 6406638 6469591 6526667 
1722.691 6579580 6631792 6686971 6747980 6815998 6890894 6971493 7056383 
1726.549 7142807 7227327 7306169 7375285 7433019 7480582 7522147 7562976 
1730.406 7606775 7651962 7690239 7705652 7676513 7583509 7418358 7195962 
1734.264 6952941 6737211 6583616 6501273 6478268 6491385 6516476 6531141 
1738.121 6520075 6476620 6403410 6312024 6218102 6135962 6073561 6032067 
1741.979 6007507 5994237 5986813 5981539 5977440 5975459 5977272 5984058 
1745.836 5996152 6012581 6031797 6052226 6072083 6090160 6104172 6110792 
1749.693 6105819 6084918 6046984 5995749 5940355 5892626 5862869 5855984 
1753.551 5869821 5895749 5920940 5932327 5920470 5883155 5826499 5763571 
1757.408 5708811 5670943 5651843 5645364 5641739 5629889 5602366 5556755 
1761.266 5496719 5430652 5368721 5320417 5291471 5283824 5295395 5321860 
1765.123 5356309 5390426 5416191 5427465 5422264 5404382 5382140 5364662 
1768.980 5357919 5360737 5364998 5358154 5327461 5265612 5175438 5070766 
1772.838 4970375 4889543 4835496 4805845 4792478 4786984 4784002 4782361 
1776.695 4783667 4789798 4800452 4812245 4820151 4818845 4806382 4784672 
1780.553 4759715 4738376 4725346 4721728 4724408 4728260 4728461 4721896 
1784.410 4709268 4693559 4679491 4671688 4673530 4687061 4713187 4751474 
1788.268 4799882 4854695 4909113 4955427 4984720 4990284 4969537 4926305 
1792.125 4870075 4813116 4766750 4737037 4724810 4726083 4735563 4748292 
1795.982 4760485 4769899 4775292 4776398 4772344 4763366 4749799 4732347 
1799.840 4712450 4691985 4672157 4654339 4639369 4627614 4619778 4616462 
1803.697 4618237 4625270 4636857 4651895 4668640 4685554 4701564 4715934 
1807.555 4728260 4738443 4745947 4750871 4752915 4752814 4751541 4750268 
1811.412 4750168 4752177 4756130 4761725 4768391 4775929 4784103 4793517 
1815.270 4804103 4816064 4829198 4843236 4858013 4873895 4891018 4910085 
1819.127 4931566 4955696 4983145 5014685 5050417 5089941 5131111 5170173 
1822.984 5201928 5221344 5225972 5217756 5203504 5193746 5197602 5220137 
1826.842 5259408 5307134 5350405 5376168 5375363 5346279 5295328 5234389 
1830.699 5176846 5131346 5100434 5080186 5064564 5047300 5024439 4995479 
1834.557 4961997 4926975 4893431 4863340 4838445 4820252 4810670 4812144 
1838.414 4827020 4857007 4902043 4960522 5029065 5102580 5175236 5239655 
1842.271 5288084 5314380 5316191 5297240 5267658 5242103 5233316 5248676 
1846.129 5288184 5345105 5410421 5474807 5533363 5585483 5634791 5686050 
1849.986 5743426 5807962 5877781 5948820 6017788 6083138 6145204 6205934 
1853.844 6266371 6327051 6386631 6443662 6498213 6551862 6608040 6670619 
1857.701 6742561 6824278 6914324 7010585 7110876 7214457 7321770 7432750 
1861.559 7546320 7659482 7767917 7867201 7954596 8029081 8091156 8140917 
1865.416 8176604 8193148 8184032 8141795 8061957 7945721 7801178 7641811 
1869.273 7483379 7339630 7218129 7119903 7040858 6974893 6915705 6857837 
1873.131 6797351 6731456 6658809 6578773 6492696 6402536 6310679 6219110 
1876.988 6128401 6037811 5945461 5850107 5752055 5653521 5557963 5469170 
1880.846 5389420 5318841 5255182 5196194 5140466 5088868 5044317 5009892 
1884.703 4988206 4978821 4979324 4985659 4993904 5001814 5008652 5014316 
1888.561 5019344 5023367 5026115 5028495 5032551 5041668 5059200 5087460 
1892.418 5124741 5166921 5206858 5238883 5259140 5267893 5268296 5265244 
1896.275 5262125 5260112 5257865 5253773 5247200 5240124 5236770 5240862 
1900.133 5255652 5280772 5313675 5350103 5387306 5424579 5462929 5505007 
1903.990 5551385 5601728 5653152 5702902 5748731 5790836 5830595 5869485 
1907.848 5907505 5942370 5970117 5987418 5992692 5988090 5978179 5968975 
1911.705 5965481 5970353 5983723 6004081 6029648 6058475 6088346 6116976 
1915.563 6139323 6150312 6144632 6120806 6081222 6033981 5989769 5957386 
1919.420 5940825 5938306 5943479 5948920 5949357 5943949 5935821 5930984 
1923.277 5934242 5947443 5969445 5996354 6024574 6052259 6080047 6109079 
1927.135 6141036 6175451 6210976 6246236 6280759 6316327 6355764 6401897 
1930.992 6454929 6512574 6569925 6621699 6664192 6695888 6717794 6731827 
1934.850 6739735 6741720 6738120 6729909 6720318 6714598 6719813 6740542 
1938.707 6778100 6828788 6885238 6938935 6982940 7013582 7031564 7040858 
1942.564 7045338 7049177 7055002 7064331 7079351 7102422 7135329 7178984 
1946.422 7231942 7290298 7349504 7406089 7459480 7511326 7565976 7626063 
1950.279 7693544 7767040 7844394 7923618 8005488 8091663 8184707 8285438 
1954.137 8391226 8495451 8591861 8673925 8739642 8789511 8827550 8857038 
1957.994 8880710 8899582 8913651 8924305 8934519 8949502 8973653 9009139 
1961.852 9054572 9105391 9156791 9204779 9249625 9292849 9335774 9377823 
1965.709 9414865 9440531 9450690 9446017 9433861 9425937 9435283 9469349 
1969.566 9528040 9603811 9685187 9761121 9825884 9879776 9927403 9974934 
1973.424 10026268 10082762 10145267 10215718 10299413 10402910 10532502 
1976.799 10686515 10856821 11026140 11174923 11287197 11354944 11378072 
1980.174 11363549 11322056 11263224 11196240 11128552 11067367 11019547 
1983.550 10992971 10990830 11014653 11059244 11116587 11178935 11241257 
1986.925 11303590 11370691 11448623 11541368 11648258 11763856 11880403 
1990.300 11991329 12094446 12191827 12290561 12398488 12520423 12657950 
1993.675 12809101 12968702 13131061 13291840 13445502 13588619 13717934 
1997.051 13832921 13935450 14031022 14126237 14228664 14341389 14463427 
2000.426 14587554 14705204 14807562 14889781 14952570 15000929 15042466 
2003.801 15083494 15128092 15177602 15231682 15290505 15355618 15430490 
2007.176 15518184 15620355 15735194 15858999 15986722 16116101 16245276 
2010.552 16376073 16510075 16649077 16794048 16946094 17106844 17278930 
2013.927 17465638 17668820 17887666 18116470 18346536 18568940 18775960 
2017.302 18964144 19134958 19291706 19437630 19573204 19695994 19801996 
2020.677 19887630 19949342 19986566 19999716 19988336 19952358 19890406 
2024.052 19802412 19689164 19554142 19400624 19232998 19054528 18867204 
2027.428 18673008 18474232 18274406 18078126 17891638 17718274 17561576 
2030.803 17421660 17297444 17188052 17094128 17016728 16958806 16921598 
2034.178 16903202 16898588 16900928 16903512 16902858 16899654 16895798 
2037.553 16895968 16902032 16912676 16924322 16932314 16933140 16926216 
2040.929 16915260 16902928 16892696 16884946 16877022 16863726 16840476 
2044.304 16803862 16752962 16689327 16616130 16537577 16458487 16382782 
2047.679 16314248 16254323 16201217 16149800 16091961 16016837 15915673 
2051.054 15783811 15621180 15433443 15229898 15020171 14812293 14609348 
2054.430 14411326 14214491 14016273 13814587 13611423 13410370 13216686 
2057.805 13034594 12866470 12713012 12573287 12446391 12331192 12226042 
2061.180 12128789 12035713 11942963 11846352 11744008 11637299 11530071 
2064.555 11428280 11336204 11256287 11187842 11127771 11071752 11016489 
2067.931 10960110 10901192 10838849 10770403 10692458 10601794 10496757 
2071.306 10377899 10248930 10115624 9983139 9855304 9733199 9615803 9501453 
2075.163 9389843 9281205 9177569 9080117 8988943 8902287 8816933 8730109 
2079.021 8641138 8551577 8464333 8382544 8307999 8239983 8176232 8114044 
2082.878 8051324 7988682 7928139 7871925 7821521 7777092 7736480 7697625 
2086.736 7658908 7619049 7578620 7536914 7493256 7445289 7390856 7328577 
2090.593 7259569 7186328 7112695 7041936 6975331 6911362 6847671 6781735 
2094.450 6713520 6645384 6581934 6527138 6483414 6449850 6422577 6397323 
2098.308 6371332 6343761 6316562 6292054 6272019 6256488 6244085 6232387 
2102.165 6220388 6207682 6195145 6183214 6171081 6155992 6134786 6105651 
2106.023 6069160 6029110 5991852 5963735 5948887 5947644 5957016 5972536 
2109.880 5989837 6006869 6023365 6040600 6059281 6079139 6098157 6113884 
2113.738 6125142 6131526 6134652 6136029 6136802 6136466 6133778 6126889 
2117.595 6116102 6103265 6092008 6085389 6085254 6089959 6095705 6097587 
2121.452 6091404 6076250 6054241 6029715 6007675 5991348 5981573 5976768 
2125.310 5973712 5969311 5961585 5949929 5935149 5918152 5900687 5882785 
2129.167 5865757 5849738 5835297 5822939 5813469 5807189 5805175 5809238 
2133.025 5820824 5842182 5873717 5914055 5959401 6004786 6045808 6080517 
2136.882 6109515 6136567 6165973 6200657 6240152 6280490 6315890 6340130 
2140.740 6350049 6345812 6330481 6308662 6283616 6257362 6229328 6198775 
2144.597 6163923 6125074 6082432 6038047 5992188 5947040 5902601 5861089 
2148.454 5824316 5794631 5772201 5755513 5739699 5719387 5690044 5650668 
2152.312 5604346 5557460 5516987 5486753 5465982 5450280 5435080 5419077 
2156.169 5408039 5413675 5450347 5529470 5652581 5809271 5980464 6145674 
2160.027 6287516 6399610 6483145 6545470 6593372 6632532 6663351 6685087 
2163.884 6695787 6694374 6680881 6656386 6620959 6575274 6520647 6459200 
2167.741 6396853 6339995 6295483 6267212 6255278 6255648 6262472 6269934 
2171.599 6275784 6281229 6291080 6310880 6344164 6391742 6449918 6513718 
2175.456 6576888 6634483 6682732 6719914 6744917 6758513 6763528 6763393 
2179.314 6764503 6773355 6795568 6833669 6886854 6950921 7020283 7089051 
2183.171 7153484 7211021 7260782 7301957 7333733 7355503 7366455 7368343 
2187.029 7364163 7357255 7350144 7343371 7334676 7320962 7299969 7272137 
2190.886 7241005 7211695 7189427 7175616 7169047 7162950 7150453 7125797 
2194.743 7087199 7037525 6983412 6933043 6893216 6867801 6856793 6857870 
2198.601 6866656 6878000 6888066 6892510 6888773 6876620 6857534 6836530 
2202.458 6818623 6810680 6817277 6840501 6879010 6928935 6985903 7044899 
2206.316 7103197 7158436 7208528 7250574 7282380 7301114 7307112 7303540 
2210.173 7296868 7293869 7301215 7321130 7351661 7387418 7420953 7447142 
2214.031 7463693 7471783 7474716 7476132 7477278 7477345 7473334 7461738 
2217.888 7439896 7407370 7365276 7315940 7263039 7209168 7157796 7111987 
2221.745 7074333 7046449 7028062 7016882 7008430 6998631 6983378 6962031 
2225.603 6936410 6909948 6886012 6867262 6853259 6842521 6832793 6823268 
2229.460 6815022 6810949 6814012 6825927 6845752 6869888 6893890 6913651 
2233.318 6926949 6933884 6936645 6937049 6937150 6937823 6939540 6943581 
2237.175 6951729 6966913 6991661 7028130 7075411 7131590 7192930 7255695 
2241.032 7317120 7375790 7431064 7482637 7529665 7571000 7605325 7631695 
2244.890 7650107 7661674 7666901 7666463 7660595 7649027 7632301 7611429 
2248.747 7589309 7569146 7553737 7544365 7540016 7537757 7533543 7524271 
2252.605 7508494 7487795 7465480 7445996 7432581 7427357 7429851 7437974 
2256.462 7448862 7459614 7467671 7471682 7470940 7465008 7454154 7438682 
2260.320 7418964 7395709 7369792 7342191 7314357 7288343 7266443 7250910 
2264.177 7243498 7244913 7253842 7267622 7281739 7292893 7297980 7296835 
2268.034 7290500 7282178 7274563 7269779 7268262 7268667 7269711 7269812 
2271.892 7269172 7268599 7270418 7276180 7287063 7302833 7322040 7342259 
2275.749 7361670 7378588 7392170 7402517 7410032 7415324 7419301 7422604 
2279.607 7426110 7430492 7435851 7442659 7450783 7459513 7468412 7476233 
2283.464 7482233 7484728 7483211 7476502 7464502 7447446 7426750 7404573 
2287.322 7383508 7366320 7355671 7352739 7358266 7371376 7390619 7413841 
2291.179 7438817 7463289 7485335 7503943 7518641 7530070 7539038 7547433 
2295.036 7556671 7568370 7583408 7602459 7626029 7653884 7686259 7722887 
2298.894 7763464 7807048 7853099 7899998 7947375 7994587 8041975 8090042 
2302.751 8139364 8190279 8242381 8295266 8348157 8400954 8454197 8509068 
2306.609 8567190 8630254 8699109 8774093 8854535 8939085 9025985 9113174 
2310.466 9198755 9281103 9358965 9431388 9499015 9562723 9624002 9684814 
2314.323 9747025 9811650 9879573 9951405 10027115 10107214 10191634 10280143 
2318.181 10371926 10465291 10558710 10650486 10739631 10826077 10909584 
2321.556 10989879 11065261 11132802 11189032 11230988 11257953 11272507 
2324.931 11279988 11288694 11306820 11341408 11396917 11474342 11570836 
2328.307 11681410 11799637 11919158 12033941 12139897 12233779 12314216 
2331.682 12380725 12434560 12477729 12512546 12541363 12566090 12587919 
2335.057 12607396 12624689 12639835 12652867 12663680 12671629 12675655 
2338.432 12674427 12666785 12652116 12630386 12602858 12571206 12535974 
2341.808 12497132 12451916 12396033 12322091 12222498 12089607 11918919 
2345.183 11710989 11473729 11222863 10979990 10769588 10616292 10538409 
2348.558 10547337 10645358 10826077 11075491 11372869 11697169 12027061 
2351.933 12345680 12642427 12912241 13154352 13369193 13557887 13720739 
2355.309 13858338 13972882 14068292 14148864 14219695 14283722 14342074 
2358.684 14393927 14437496 14471100 14493778 14504707 14503200 14488434 
2362.059 14458460 14412764 14351937 14278278 14195592 14108610 14020344 
2365.434 13932371 13844038 13753228 13657649 13556075 13447928 13333966 
2368.810 13214876 13091037 12962352 12828792 12690905 12549992 12407625 
2372.185 12265100 12122963 11980054 11834366 11683997 11527520 11365726 
2375.560 11200014 11033006 10866639 10702476 10540752 10381497 10225353 
2378.935 10073707 9929098 9794196 9670991 9560217 9461086 9371695 9290108 
2382.793 9215271 9147215 9086816 9035525 8993915 8961882 8938307 8921904 
2386.650 8911587 8907022 8908409 8916019 8929648 8948150 8969798 8992563 
2390.508 9015160 9036913 9058395 9080353 9104038 9129923 9158416 9189279 
2394.365 9222412 9257613 9294949 9334047 9374132 9414289 9453298 9490108 
2398.222 9524687 9557066 9587450 9615736 9640974 9661369 9675090 9680646 
2402.080 9677462 9666485 9649748 9629455 9607436 9585147 9562858 9540673 
2405.937 9518760 9497559 9477951 9460985 9447440 9437653 9431998 9430272 
2409.795 9432709 9439719 9451468 9468333 9489668 9514899 9542977 9573461 
2413.652 9606081 9641448 9680410 9723237 9770576 9821852 9876896 9935438 
2417.510 9997617 10063432 10132819 10204422 10276037 10344847 10407661 
2420.885 10462474 10508163 10545776 10576772 10603458 10626988 10648143 
2424.260 10666683 10682168 10694223 10702917 10708725 10711986 10713174 
2427.635 10712155 10709302 10704887 10699997 10695922 10694020 10695481 
2431.010 10700473 10708453 10718676 10730393 10743537 10758583 10776144 
2434.386 10796728 10820098 10845576 10871871 10898338 10924534 10951004 
2437.761 10978257 11007143 11037526 11069135 11101291 11133346 11165437 
2441.136 11197770 11230955 11265162 11299917 11334163 11366746 11396950 
2444.511 11424742 11451310 11478016 11506119 11536434 11568760 11602008 
2447.887 11634917 11666025 11694208 11718104 11737200 11750545 11758103 
2451.262 11760077 11758375 11755243 11753643 11756434 11764843 11778734 
2454.637 11796540 11815912 11834809 11852005 11867396 11882481 11898759 
2458.012 11917523 11939728 11965510 11994564 12026685 12061842 12100067 
2461.388 12141464 12185898 12232892 12282108 12333271 12386555 12442607 
2464.763 12502519 12567079 12637106 12712911 12794802 12882546 12976930 
2468.138 13077754 13185433 13299219 13418128 13540556 13665308 13791500 
2471.513 13919369 14050084 14185527 14327999 14479493 14641938 14816647 
2474.889 15004633 15206494 15422800 15653709 15899381 16160153 16436875 
2478.264 16730957 17044570 17380000 17739120 18122862 18530246 18958952 
2481.639 19405200 19864668 20332158 20803036 21270948 21729120 22169612 
2485.014 22583046 22959632 23290712 23568414 23786758 23942708 24034238 
2488.390 24061938 24028006 23936546 23793722 23607282 23386268 23139714 
2491.765 22876466 22604580 22330320 22059474 21796810 21546282 21311836 
2495.140 21096056 20901210 20728344 20578512 20452694 20353236 20283168 
2498.515 20246992 20249804 20295944 20388932 20531092 20723340 20966508 
2501.891 21261136 21608230 22008754 22463276 22971196 23530600 24137874 
2505.266 24788160 25474624 26188432 26918466 27649482 28362914 29037452 
2508.641 29648540 30171722 30584102 30864836 30998262 30974846 30791772 
2512.016 30454038 29974644 29373980 28676832 27910376 27102454 26276424 
2515.392 25452246 24644458 23863202 23114692 22402950 21729818 21095466 
2518.767 20498578 19936644 19405962 18903230 18425970 17972924 17545118 
2522.142 17143932 16771249 16427860 16113522 15826833 15566056 15329736 
2525.517 15117731 14930211 14767419 14629360 14514300 14419821 14342314 
2528.893 14278757 14226370 14183473 14149207 14122746 14103100 14089682 
2532.268 14081297 14077326 14077703 14082392 14091770 14105153 14121685 
2535.643 14139793 14158141 14175976 14193230 14210348 14228186 14247119 
2539.018 14266944 14286975 14306699 14326184 14345944 14367554 14392796 
2542.394 14422527 14457158 14495834 14537186 14579913 14623500 14667607 
2545.769 14713054 14760802 14811745 14866293 14924998 14987964 15055330 
2549.144 15127028 15202548 15280792 15360251 15439245 15516501 15591814 
2552.519 15665697 15740141 15817417 15899690 15988270 16083917 16186187 
2555.895 16294502 16407970 16525874 16647873 16773591 16903032 17036162 
2559.270 17173470 17315272 17462326 17615504 17775054 17941774 18115884 
2562.645 18297906 18488616 18688712 18898904 19119030 19348274 19584504 
2566.020 19824852 20066338 20306220 20542312 20773144 20997352 21213222 
2569.396 21418826 21611746 21789946 21951628 22095764 22222476 22331540 
2572.771 22423012 22496148 22550098 22584162 22598718 22595192 22576622 
2576.146 22546678 22509476 22468580 22426326 22384738 22345108 22308902 
2579.521 22278140 22255294 22242460 22241762 22254666 22281834 22323832 
2582.896 22381110 22454380 22544758 22653310 22780742 22927774 23094634 
2586.272 23281274 23487650 23713648 23958742 24221844 24501262 24794964 
2589.647 25100556 25415848 25739312 26069670 26405630 26745270 27085562 
2593.022 27422096 27748968 28060180 28349084 28609798 28837062 29026504 
2596.397 29174320 29277700 29334628 29343916 29305348 29220142 29090592 
2599.773 28919324 28710316 28468046 28196988 27902710 27590622 27266232 
2603.148 26935494 26603422 26274558 25952664 25641306 25343344 25061802 
2606.523 24800122 24561354 24348860 24165336 24012736 23892222 23804396 
2609.898 23748854 23725336 23732860 23770588 23837088 23930488 24048036 
2613.274 24186984 24343568 24513918 24693804 24879342 25066504 25251746 
2616.649 25432360 25606370 25772468 25930364 26080576 26223838 26361266 
2620.024 26494124 26623642 26751014 26877294 27003504 27130246 27257484 
2623.399 27384864 27510940 27633558 27749674 27855190 27945182 28014304 
2626.775 28056008 28064140 28032822 27956842 27832862 27659406 27437168 
2630.150 27168904 26859528 26515396 26143456 25751020 25345030 24931626 
2633.525 24516196 24103618 23697376 23300990 22917470 22548668 22196880 
2636.900 21863044 21548126 21251844 20974124 20714062 20470650 20242236 
2640.276 20027646 19825128 19633174 19450244 19275288 19107292 18945626 
2643.651 18790144 18640530 18497120 18360084 18229552 18106176 17990294 
2647.026 17882384 17782994 17692390 17610846 17538322 17474364 17418522 
2650.401 17370412 17329686 17296032 17269346 17249348 17235694 17227628 
2653.777 17224422 17225146 17229178 17236452 17246934 17261344 17279928 
2657.152 17303100 17330926 17362824 17398520 17437492 17479470 17524386 
2660.527 17572408 17623684 17678344 17736222 17797388 17861806 17929482 
2663.902 18000688 18075604 18154230 18236912 18323206 18412764 18505176 
2667.278 18600098 18696980 18795474 18895062 18995296 19096004 19197014 
2670.653 19298806 19401976 19507284 19615666 19727268 19842124 19959922 
2674.028 20079836 20201276 20323824 20447380 20572118 20698458 20826708 
2677.403 20957572 21091674 21229714 21372706 21521734 21677570 21840848 
2680.779 22011856 22190498 22376298 22569364 22769152 22975772 23189134 
2684.154 23409382 23636494 23870694 24112198 24361792 24620614 24890078 
2687.529 25171510 25466720 25776898 26103378 26447180 26809196 27190208 
2690.904 27590904 28011370 28451206 28909550 29384828 29875214 30378236 
2694.280 30890770 31408720 31926468 32437336 32932434 33402510 33837348 
2697.655 34226372 34560060 34829876 35028020 35148972 35189032 35147464 
2701.030 35026188 34830560 34569672 34254016 33896492 33510804 33109474 
2704.405 32704696 32306678 31922974 31559308 31218984 30902974 30610872 
2707.781 30340820 30090750 29858568 29642544 29441594 29255016 29082514 
2711.156 28923504 28777366 28643420 28520800 28409040 28307846 28216894 
2714.531 28135966 28064704 28002430 27948468 27902214 27863526 27832756 
2717.906 27810112 27796336 27791636 27795628 27807638 27826114 27849642 
2721.281 27876492 27905322 27934826 27964050 27992568 28020382 28047810 
2724.657 28075768 28105424 28137946 28174538 28215906 28263004 28316758 
2728.032 28378300 28448836 28530070 28623068 28728514 28845916 28974222 
2731.407 29111568 29256436 29407626 29564650 29727514 29896546 30071680 
2734.782 30252816 30439254 30630038 30824924 31023884 31227206 31434972 
2738.158 31646792 31861174 32075844 32288120 32495108 32694478 32884576 
2741.533 33064422 33232932 33389308 33531922 33658580 33767112 33855580 
2744.908 33922428 33967176 33990180 33992508 33975880 33942600 33895632 
2748.283 33837852 33772844 33704872 33637420 33574268 33518930 33474084 
2751.659 33441838 33423300 33419150 33429026 33451858 33485930 33528772 
2755.034 33577848 33630508 33684644 33738216 33790108 33839496 33886032 
2758.409 33929484 33969400 34005444 34036368 34061276 34078940 34088224 
2761.784 34088904 34081592 34068048 34050988 34033860 34020312 34013648 
2765.160 34016192 34029668 34054536 34091056 34138940 34198444 34270040 
2768.535 34354236 34452076 34564468 34692324 34836552 34997640 35176240 
2771.910 35372572 35586716 35817912 36065040 36326644 36600628 36885604 
2775.285 37180296 37483860 37796272 38117448 38447224 38784856 39128808 
2778.661 39476948 39826680 40174912 40518984 40856560 41185872 41505156 
2782.036 41813432 42109156 42390608 42655908 42903044 43130852 43339012 
2785.411 43528368 43701316 43861144 44011896 44157636 44302036 44448612 
2788.786 44600336 44759864 44929636 45110936 45304600 45509572 45723476 
2792.162 45941936 46159484 46370132 46567524 46746452 46902564 47033220 
2795.537 47137616 47217176 47275768 47319064 47355460 47394264 47444708 
2798.912 47516044 47615900 47749692 47921296 48132764 48385148 48679004 
2802.287 49013712 49388840 49802608 50252812 50736292 51249244 51787884 
2805.663 52347716 52924176 53512872 54108632 54705964 55299640 55884028 
2809.038 56453656 57003860 57529604 58025916 58487916 58909916 59286668 
2812.413 59613008 59884592 60098240 60251648 60343812 60374312 60343512 
2815.788 60252524 60103412 59899348 59644936 59345580 59007756 58639204 
2819.164 58247248 57840012 57425440 57011076 56604316 56211740 55838732 
2822.539 55489576 55167228 54873500 54609276 54374468 54168948 53992076 
2825.914 53843224 53721944 53627272 53559120 53516956 53500800 53510696 
2829.289 53547012 53609688 53698468 53812428 53950056 54109080 54286900 
2832.665 54480828 54688864 54909328 55141868 55386996 55646228 55921600 
2836.040 56215096 56528944 56864772 57223992 57608140 58019060 58459292 
2839.415 58932456 59442952 59996044 60597648 61253684 61970752 62756040 
2842.790 63616924 64562560 65603272 66749640 68012608 69400616 70917576 
2846.166 72559264 74310584 76143816 78014624 79866056 81632232 83238592 
2849.541 84617384 85711216 86479568 86906280 86999056 86788880 86321496 
2852.916 85656120 84857888 83987824 83105216 82261464 81495264 80835928 
2856.291 80300984 79896480 79620496 79464504 79417320 79465776 79597536 
2859.667 79801304 80065576 80378688 80728456 81100832 81482352 81859456 
2863.042 82219624 82552400 82849472 83104648 83314776 83479712 83602528 
2866.417 83689576 83750520 83797056 83840504 83892392 83961936 84055688 
2869.792 84178272 84331896 84517264 84733224 84977752 85247368 85537768 
2873.167 85844352 86163072 86490240 86823112 87159192 87495744 87829504 
2876.543 88156552 88472992 88775960 89064792 89341520 89611088 89880992 
2879.918 90160400 90458064 90783296 91143384 91544232 91989960 92482344 
2883.293 93020976 93603056 94224496 94879720 95562064 96265248 96982664 
2886.668 97707496 98433080 99152632 99859536 100549040 101218192 101866632 
2890.044 102496952 103113640 103722088 104327008 104932512 105541784 
2892.937 106156728 106779960 107413848 108061664 108726584 109411864 
2895.830 110120696 110856256 111621600 112419936 113254264 114126176 
2898.723 115035560 115979648 116953384 117949568 118959848 119976544 
2901.616 120991600 121997792 122988384 123955896 124893232 125793632 
2904.509 126651776 127464520 128231272 128953872 129635272 130279464 
2907.402 130890312 131472272 132030008 132570208 133099912 133627472 
2910.295 134161528 134708576 135273712 135858048 136458960 137068832 
2913.188 137674304 138257328 138793248 139254160 139613184 139845632 
2916.081 139935328 139877264 139678352 139355040 138929632 138426784 
2918.974 137866048 137260640 136615696 135928272 135191200 134394496 
2921.867 133531304 132599248 131603968 130558416 129483552 128405672 
2924.760 127351536 126347232 125413832 124565240 123808840 123145568 
2927.654 122571384 122079288 121660360 121304816 121001928 120741560 
2930.547 120513968 120310840 120126640 119957808 119803536 119663840 
2933.440 119538688 119427264 119326816 119232840 119139408 119040464 
2936.333 118928912 118798088 118641872 118454672 118233064 117975560 
2939.226 117684248 117363464 117019624 116659456 116288368 115909512 
2942.119 115523448 115128968 114723848 114305952 113873432 113424640 
2945.012 112957192 112468776 111956168 111417152 110851592 110262512 
2947.905 109657256 109045936 108442200 107860880 107316560 106824280 
2950.798 106398464 106051648 105796408 105643064 105599072 105668416 
2953.691 105850184 106138280 106520232 106978424 107489720 108024864 
2956.584 108553224 109042280 109461064 109785912 110001376 110103144 
2959.477 110098624 110005304 109847944 109652864 109447080 109252896 
2962.370 109086024 108955744 108863048 108802808 108763016 108727816 
2965.263 108679984 108601856 108479544 108303992 108071944 107785408 
2968.156 107451272 107079872 106682648 106272240 105860840 105459112 
2971.050 105076064 104718408 104388944 104087600 103811088 103554168 
2973.943 103310312 103073312 102837368 102597520 102350008 102090984 
2976.836 101817872 101528600 101222464 100900688 100565416 100220680 
2979.729 99871208 99522272 99179360 98848912 98536952 98250160 97994688 
2983.104 97775344 97594768 97452920 97347312 97272936 97223784 97193736 
2986.479 97175912 97163272 97148520 97122208 97074424 96994104 96870008 
2989.854 96692584 96454528 96151160 95781688 95348856 94859104 94321856 
2993.230 93749408 93155920 92554304 91956912 91372000 90803792 90252688 
2996.605 89715936 89189928 88670936 88156872 87647432 87143328 86646384 
2999.980 86157984 85679496 85211968 84756832 84315520 83890024 83482480 
3003.355 83094384 82726624 82378696 82049288 81736528 81438024 81151272 
3006.731 80873528 80602184 80334120 80066296 79795648 79519008 79233840 
3010.106 78937728 78628592 78305112 77966528 77612560 77244632 76864912 
3013.481 76476432 76082928 75688608 75296960 74911344 74534800 74169536 
3016.856 73817512 73480416 73158896 72852912 72561224 72281528 72010728 
3020.232 71744968 71480136 71211544 70934664 70644576 70336616 70006288 
3023.607 69650304 69266472 68854136 68414144 67948640 67460328 66951924 
3026.982 66426360 65885880 65332712 64768516 64194836 63612400 63021780 
3030.357 62422736 61814976 61197532 60569912 59931828 59283364 58625212 
3033.733 57958472 57284856 56606732 55927028 55249324 54577488 53915584 
3037.108 53266816 52634016 52018836 51422128 50844044 50284472 49742600 
3040.483 49217580 48708212 48212916 47729904 47257812 46795864 46343552 
3043.858 45901464 45469948 45049000 44638120 44235992 43840944 43451460 
3047.234 43067108 42687672 42314484 41948548 41591020 41242084 40901336 
3050.609 40567768 40240920 39920316 39606116 39299000 38999204 38706860 
3053.984 38421048 38140852 37865104 37592960 37324304 37058996 36797488 
3057.359 36539888 36286120 36036384 35790744 35550324 35316568 35091420 
3060.735 34876476 34672408 34478836 34294208 34116464 33943708 33774312 
3064.110 33608096 33445240 33286694 33133150 32985016 32842082 32703872 
3067.485 32569852 32439478 32312964 32190658 32073170 31961202 31855580 
3070.860 31756752 31665396 31582006 31506896 31440280 31382292 31333036 
3074.236 31291940 31259038 31233580 31215066 31202428 31195166 31191748 
3077.611 31191354 31192708 31194952 31197194 31198618 31198476 31195948 
3080.986 31190074 31180284 31165866 31146464 31122046 31092538 31058120 
3084.361 31019116 30975666 30928838 30879208 30828268 30777120 30726758 
3087.737 30677470 30629040 30580652 30531132 30479132 30424150 30365764 
3091.112 30304258 30239708 30172682 30103284 30031946 29959094 29885258 
3094.487 29811224 29737556 29664470 29591360 29517232 29440706 29360614 
3097.862 29275998 29187184 29095022 29001072 28907072 28814578 28724724 
3101.238 28638252 28555548 28476256 28400692 28328890 28261166 28198190 
3104.613 28140918 28090260 28047030 28012008 27985254 27966454 27954686 
3107.988 27949314 27949598 27955746 27968398 27988682 28017872 28056328 
3111.363 28104046 28159724 28221740 28288112 28357184 28427328 28497236 
3114.739 28565596 28630606 28690600 28743310 28787068 28820740 28843826 
3118.114 28856362 28859016 28852040 28835470 28809056 28772728 28726034 
3121.489 28669930 28605338 28534244 28458778 28381166 28303354 28227148 
3124.864 28153714 28083580 28017274 27954792 27895394 27838690 27784042 
3128.240 27731026 27679428 27629532 27581160 27534062 27487748 27441296 
3131.615 27393192 27342694 27289060 27232186 27172642 27111342 27048922 
3134.990 26985768 26921674 26856178 26788122 26716268 26639706 26557240 
3138.365 26468452 26373096 26271672 26165274 26055280 25943484 25831506 
3141.740 25720856 25612378 25506706 25403868 25304076 25207606 25114772 
3145.116 25025752 24940856 24859870 24782160 24707166 24634990 24565246 
3148.491 24499160 24437288 24380648 24329656 24283998 24242620 24204324 
3151.866 24167508 24131462 24095808 24060468 24025904 23992426 23960458 
3155.241 23929856 23901078 23873878 23848394 23824944 23803592 23783816 
3158.617 23765582 23748504 23732022 23716204 23701542 23688490 23677956 
3161.992 23670714 23667214 23667318 23670608 23676068 23682330 23688140 
3165.367 23692234 23693596 23692408 23688664 23683590 23678272 23674072 
3168.742 23671694 23672042 23674634 23679390 23685620 23692864 23700980 
3172.118 23709764 23719178 23728766 23738390 23747384 23755328 23761804 
3175.493 23766562 23769502 23770762 23770342 23768068 23764146 23758478 
3178.868 23751058 23742100 23732194 23721836 23711374 23701752 23693564 
3182.243 23687196 23683484 23682472 23684184 23688208 23694298 23701716 
3185.619 23709976 23718968 23728940 23740174 23752984 23767332 23782940 
3188.994 23799532 23816576 23834148 23852630 23872688 23895234 23920860 
3192.369 23949604 23980906 24014032 24047790 24081796 24115876 24150484 
3195.744 24186740 24225662 24267952 24314378 24364982 24419726 24478196 
3199.120 24540176 24605078 24672584 24741996 24812750 24884360 24956366 
3202.495 25028314 25100098 25171650 25242896 25314086 25384862 25454878 
3205.870 25523466 25589536 25651886 25709536 25761708 25808542 25850846 
3209.245 25890058 25927550 25964940 26002544 26040326 26076952 26111364 
3212.621 26142154 26169006 26192056 26212084 26230314 26247668 26264350 
3215.996 26280262 26295186 26308564 26320182 26330672 26340354 26349648 
3219.371 26358944 26367954 26376828 26385280 26393624 26402392 26412250 
3222.746 26423798 26437602 26453414 26471058 26490110 26510184 26531176 
3226.122 26553330 26576930 26602646 26631250 26663030 26698580 26737656 
3229.497 26780334 26826114 26874614 26925128 26977096 27030160 27083832 
3232.872 27137900 27191972 27245770 27299010 27351480 27403392 27454780 
3236.247 27506492 27558776 27612088 27666326 27721172 27776094 27831166 
3239.623 27886138 27941612 27998154 28055162 28112142 28166936 28216754 
3242.998 28259116 28292072 28314672 28327828 28333098 28332532 28328218 
3246.373 28321638 28313504 28304628 28295114 28285850 28277398 28270502 
3249.748 28265374 28261944 28259646 28257842 28256428 28255224 28254908 
3253.124 28256180 28259786 28266294 28276196 28289668 28307138 28328430 
3256.499 28353576 28381802 28412010 28443106 28473706 28503108 28531486 
3259.874 28559368 28587714 28617194 28647596 28677824 28706566 28732406 
3263.249 28754922 28774712 28793228 28812312 28833486 28857282 28882990 
3266.625 28909444 28935086 28958672 28979572 28997990 29014248 29028668 
3270.000 29041666 29053394 29063560 29072310 29079646 29085490 29089494 
3273.375 29090876 29089176 29083826 29074934 29063490 29050984 29039258 
3276.750 29029728 29023070 29019314 29017614 29017084 29016836 29016374 
3280.125 29015736 29014708 29012724 29009538 29004046 28995580 28983964 
3283.501 28969440 28952936 28935370 28917696 28899846 28881998 28863938 
3286.876 28845490 28827112 28809552 28793796 28780094 28768694 28758782 
3290.251 28750142 28741398 28732476 28723450 28714848 28707486 28702034 
3293.626 28698600 28696654 28695804 28694882 28692724 28688300 28680726 
3297.002 28669150 28653116 28633084 28609586 28584352 28559368 28536262 
3300.377 28516518 28500738 28488674 28479474 28472080 28465536 28459450 
3303.752 28453932 28449332 28446218 28444592 28444308 28444556 28444768 
3307.127 28444132 28442610 28440382 28438082 28436596 28436702 28439072 
3310.503 28443884 28451348 28461008 28472540 28485488 28499392 28513794 
3313.878 28528654 28543942 28559792 28576850 28595288 28615390 28636978 
3317.253 28659984 28683486 28707132 28730424 28753258 28775950 28799212 
3320.628 28823642 28849810 28878174 28908594 28940788 28974186 29008120 
3324.004 29042164 29075960 29109406 29142392 29175030 29207136 29238820 
3327.379 29269866 29300102 29328710 29355156 29378340 29397592 29412058 
3330.754 29422020 29427800 29430494 29431380 29431380 29431132 29430282 
3334.129 29427480 29421808 29411880 29397380 29378588 29356502 29332644 
3337.505 29308114 29283868 29259660 29235594 29210574 29183960 29155080 
3340.880 29123402 29088468 29050064 29008014 28961896 28912314 28859584 
3344.255 28804592 28748124 28691344 28634252 28576958 28519102 28459982 
3347.630 28399170 28336388 28271738 28205758 28139220 28072870 28007624 
3351.006 27944050 27882216 27821838 27762142 27701678 27639064 27572968 
3354.381 27502362 27427354 27348726 27268102 27187738 27109720 27035696 
3357.756 26966588 26902426 26842222 26784772 26728532 26672190 26614730 
3361.131 26555902 26495780 26434504 26372708 26310922 26249004 26187306 
3364.507 26125968 26065306 26006132 25949252 25895228 25844410 25796166 
3367.882 25749298 25702084 25652764 25600466 25544974 25487380 25429126 
3371.257 25371690 25316122 25262282 25209430 25156448 25102346 25046776 
3374.632 24990232 24933592 24877798 24823346 24770058 24717058 24663360 
3378.008 24608550 24551854 24493866 24435080 24375812 24316270 24256948 
3381.383 24197774 24139520 24082708 24028006 23976250 23927162 23879760 
3384.758 23832818 23784588 23733806 23680230 23624598 23568134 23512762 
3388.133 23459600 23408996 23360778 23313296 23264912 23214404 23160788 
3391.509 23104488 23046588 22989256 22934306 22883382 22837314 22795374 
3394.884 22755566 22715346 22672090 22624268 22571702 22515514 22458042 
3398.259 22402392 22350376 22303008 22259792 22218884 22178364 22136312 
3401.634 22091652 22043856 21993208 21939918 21884124 21826040 21765838 
3405.010 21704006 21641418 21579220 21518392 21459624 21402048 21344898 
3408.385 21286956 21227176 21165386 21102560 21040164 20979514 20921688 
3411.760 20866652 20813430 20760806 20707492 20652380 20595500 20537414 
3415.135 20479022 20421124 20364382 20308964 20254490 20200546 20146782 
3418.510 20092642 20038404 19983722 19928526 19872958 19816804 19759966 
3421.886 19702304 19644164 19585544 19527038 19469060 19411678 19355342 
3425.261 19299536 19244254 19189118 19134300 19079940 19026936 18975600 
3428.636 18926314 18878902 18832220 18784782 18735378 18683006 18627698 
3432.011 18570394 18512680 18456392 18403050 18353136 18306614 18262588 
3435.387 18219982 18177620 18134850 18091080 18046002 17999272 17950684 
3438.762 17899856 17846580 17791002 17733392 17674376 17614676 17554848 
3442.137 17495856 17437940 17381276 17325720 17270792 17215252 17157614 
3445.512 17096504 17030994 16961288 16888424 16814712 16742494 16673660 
3448.888 16608970 16547903 16489081 16430475 16370533 16308812 16245620 
3452.263 16181579 16117716 16054347 15991295 15927874 15863536 15798105 
3455.638 15732240 15666865 15603285 15542051 15483365 15426130 15369452 
3459.013 15311853 15252513 15191121 15127509 15062225 14995750 14928668 
3462.389 14861220 14793678 14725839 14657702 14588650 14518445 14446915 
3465.764 14374472 14302213 14231472 14163516 14099197 14038482 13979555 
3469.139 13920704 13859569 13794817 13726074 13654709 13582671 13512423 
3472.514 13445844 13383477 13324844 13268028 13211016 13152030 13089877 
3475.890 13024795 12957675 12890328 12824594 12761873 12703152 12648022 
3479.265 12595219 12542557 12487925 12429616 12367088 12300752 12232586 
3482.640 12164771 12099351 12037621 11979612 11924095 11869847 11815163 
3486.015 11759362 11702411 11644855 11586796 11528813 11470123 11410081 
3489.391 11347869 11283083 11216164 11148201 11080861 11015673 10953655 
3492.766 10895348 10840073 10786877 10734434 10681523 10627294 10571340 
3496.141 10514171 10456501 10399788 10344678 10291915 10241467 10192448 
3499.516 10144114 10095004 10044578 9992328 9938422 9883336 9827681 9771965 
3503.374 9716528 9661775 9608419 9557372 9509210 9464608 9423397 9384392 
3507.231 9345965 9305882 9262521 9214899 9163661 9109824 9055519 9002576 
3511.089 8952344 8905061 8860691 8818725 8778218 8738526 8699210 8659694 
3514.946 8619642 8578545 8535830 8491971 8447102 8402204 8358426 8317050 
3518.803 8278717 8244069 8212935 8184403 8157460 8130620 8102296 8071949 
3522.661 8038700 8003025 7965935 7928004 7890044 7851952 7813120 7772032 
3526.518 7727946 7680222 7629267 7576665 7524271 7473401 7425200 7379565 
3530.376 7335586 7292960 7251685 7211762 7174066 7138731 7104679 7070090 
3534.233 7032103 6988463 6937857 6881064 6820104 6758715 6700296 6647100 
3538.091 6600100 6558656 6521656 6487551 6455803 6425772 6397492 6370895 
3541.948 6345308 6320294 6295046 6269329 6242740 6215178 6186273 6155152 
3545.805 6121109 6083742 6043221 6001191 5960174 5922889 5890678 5863843 
3549.663 5840536 5818070 5792818 5761926 5723751 5677926 5625929 5569743 
3553.520 5511752 5454675 5400491 5351613 5309617 5275439 5249078 5228655 
3557.378 5211485 5194383 5174599 5150458 5122126 5091182 5060374 5032182 
3561.235 5009221 4993066 4984586 4984117 4990887 5002920 5016461 5025679 
3565.093 5023835 5003490 4959014 4889543 4799279 4697511 4595667 4504727 
3568.950 4431580 4378728 4344189 4323506 4311861 4304432 4297906 4290176 
3572.807 4280071 4266786 4250357 4230683 4208066 4183543 4158352 4133430 
3576.665 4109848 4087639 4066601 4046032 4025197 4003794 3982091 3960958 
3580.522 3941799 3926218 3916188 3913145 3918127 3931133 3950760 3973899 
3584.380 3996370 4012255 4015699 4001152 3965372 3908464 3834482 3751021 
3588.237 3668377 3595806 3540717 3506979 3494453 3499430 3516599 3539715 
3592.094 3562298 3578834 3586050 3582242 3568344 3546229 3519138 3489643 
3595.952 3460251 3432598 3407617 3385544 3366076 3348212 3330248 3310482 
3599.809 3287412 3259870 3228891 3195844 3163668 3135533 3113974 3100492 
3603.667 3095887 3099657 3110470 3126322 3144611 3161399 3172814 3174983 
3607.524 3164903 3142241 3109135 3070025 3030451 2994317 2962890 2935235 
3611.382 2907948 2877428 2842474 2804421 2767373 2737362 2719524 2716456 
3615.239 2727259 2748099 2772274 2793250 2804121 2799819 2777543 2737729 
3619.096 2683682 2621776 2559977 2505153 2462665 2435141 2421980 2421080 
3622.954 2430243 2447737 2473995 2510919 2560177 2621409 2690284 2757535 
3626.811 2808857 2827933 2800719 2723058 2605009 2469596 2346052 2256048 
3630.669 2207257 2194768 2205991 2225740 2241227 2245124 2235232 2214317 
3634.526 2187875 2161301 2138192 2119479 2103963 2090113 2076829 2064111 
3638.384 2052859 2044037 2037678 2032951 2028091 2021300 2012279 2002126 
3642.241 1994104 1992373 2001560 2024130 2061082 2110256 2166829 2224675 
3646.098 2276299 2314505 2333293 2328096 2296751 2239262 2158571 2061381 
3649.956 1956991 1858516 1779060 1729756 1715984 1736909 1785348 1848966 
3653.813 1913492 1964081 1988279 1979458 1939151 1876885 1806874 1742863 
3657.671 1694362 1663628 1648262 1642740 1641976 1642142 1641709 1640712 
3661.528 1639980 1640446 1642541 1646732 1653750 1664825 1682255 1708400 
3665.385 1745259 1793433 1851794 1916354 1980823 2037212 2077428 2095407 
3669.243 2090879 2071868 2055256 2060316 2104530 2196367 2333560 2503587 
3673.100 2686716 2859150 2993016 3063418 3054742 2969062 2825932 2653878 
3676.958 2479160 2316104 2168294 2033484 1909298 1795628 1695859 1613872 
3680.815 1552284 1510387 1485152 1471786 1467897 1473416 1491469 1524984 
3684.673 1575328 1639248 1708999 1774003 1822180 1844340 1837419 1805444 
3688.530 1758433 1708600 1665723 1633528 1610513 1592621 1576725 1561927 
3692.387 1549956 1543838 1545633 1555509 1571271 1589029 1605358 1618063 
3696.245 1627574 1636388 1648162 1665491 1689306 1717315 1744094 1763390 
3700.102 1768946 1756736 1726696 1683319 1634658 1589894 1556607 1539714 
3703.960 1540113 1555542 1581946 1615269 1652020 1690338 1729790 1770343 
3707.817 1811566 1851861 1887700 1912859 1921346 1906935 1866702 1801917 
3711.675 1719610 1630568 1547562 1482259 1441566 1427737 1438475 1468329 
3715.532 1510288 1557338 1603429 1644503 1678429 1705439 1727162 1745957 
3719.389 1763656 1781455 1799022 1815459 1829800 1841479 1850763 1858250 
3723.247 1864772 1870030 1872891 1871394 1863274 1848367 1828502 1809037 
3727.104 1797026 1799422 1820383 1860080 1913991 1974099 2030055 2073400 
3730.962 2098470 2105295 2099069 2088115 2079825 2076263 2073400 2062646 
3734.819 2034882 1984950 1915655 1836754 1762059 1703044 1665757 1650523 
3738.677 1654481 1675003 1711261 1764122 1834491 1919549 2010781 2092377 
3742.534 2142321 2139890 2071136 1942480 1783385 1639348 1548992 1528143 
3746.391 1568678 1648262 1741300 1823644 1879148 1900246 1887866 1849432 
3750.249 1794764 1732052 1666056 1600436 1539947 1491269 1461813 1456493 
3754.106 1475277 1513114 1560929 1609881 1651621 1681323 1698121 1703044 
3757.964 1698188 1684749 1663561 1635091 1602731 1572435 1551885 1548127 
3761.821 1564621 1599372 1645800 1694396 1735877 1764588 1779625 1784915 
3765.678 1787777 1794664 1807739 1824709 1838850 1842677 1830066 1799322 
3769.536 1753709 1701514 1652087 1613440 1590426 1583576 1590027 1605458 
3773.393 1625712 1647364 1668850 1689905 1711327 1733948 1757568 1780490 
3777.251 1799288 1810335 1810401 1798723 1777895 1753409 1732418 1720209 
3781.108 1719111 1727694 1741466 1754973 1764022 1766251 1762458 1754707 
3784.966 1745591 1736776 1728093 1718645 1707635 1695194 1683485 1674970 
3788.823 1672176 1675735 1684650 1696591 1709098 1721506 1734580 1750315 
3792.680 1770776 1795928 1822845 1846936 1862675 1866269 1858483 1844873 
3796.538 1834957 1838517 1861278 1902809 1956059 2007818 2042173 2045202 
3800.395 2008551 1934359 1837652 1743063 1675403 1649958 1668784 1721473 
3804.253 1790571 1855288 1896752 1902509 1869164 1804845 1727062 1657874 
3808.110 1612542 1597809 1610513 1642341 1684483 1730521 1778494 1829600 
3811.968 1885737 1946773 2008750 2063112 2099535 2108059 2084486 2033750 
3815.825 1971869 1920148 1896985 1911927 1961518 2032652 2105395 2160202 
3819.682 2179883 2155074 2087916 1993871 1897551 1821681 1780989 1777430 
3823.540 1802449 1842211 1882242 1912027 1925473 1923542 1911794 1899248 
3827.397 1893923 1900180 1918018 1943811 1972036 1997533 2017405 2031420 
3831.255 2041740 2051860 2065743 2086251 2114518 2150279 2190905 2233100 
3835.112 2270603 2297184 2306344 2293286 2257713 2203693 2140823 2080524 
3838.969 2032585 2002725 1990875 1992606 2000795 2009083 2012346 2008218 
3842.827 1996434 1978892 1958289 1937987 1921079 1910663 1909531 1919715 
3846.684 1942280 1977860 2026460 2087782 2161568 2247156 2342321 2442938 
3850.542 2539780 2619009 2662946 2652011 2572743 2426811 2237863 2044103 
3854.399 1884805 1784050 1744261 1753642 1793865 1848766 1906669 1961218 
3858.257 2010215 2054257 2094208 2130334 2162034 2188175 2207890 2221078 
3862.114 2227605 2226906 2218047 2199797 2172823 2141588 2114219 2100734 
3865.971 2109890 2144019 2198531 2260578 2314072 2342387 2334459 2290222 
3869.829 2222143 2151877 2099302 2075830 2079825 2100434 2121777 2130634 
3873.686 2120711 2094008 2060549 2033417 2024163 2038344 2074831 2126305 
3877.544 2183279 2234899 2272302 2289556 2285559 2264375 2234666 2207523 
3881.401 2193370 2198065 2221278 2256781 2293453 2318236 2319235 2291288 
3885.259 2237597 2171724 2112021 2075963 2073034 2102299 2153876 2213817 
3889.116 2267039 2300448 2306777 2285659 2243725 2192737 2145584 2112520 
3892.973 2099202 2106327 2131266 2169726 2217281 2269804 2323832 2376402 
3896.831 2424546 2465764 2497588 2517684 2525316 2521350 2507953 2488924 
3900.688 2467663 2446271 2424546 2400556 2371004 2333759 2288657 2238729 
3904.546 2189806 2147982 2118580 2103364 2101167 2108658 2121743 2137426 
3908.403 2154042 2171624 2190872 2212452 2235998 2260678 2285059 2308409 
3912.260 2331128 2354680 2380866 2409952 2441039 2470696 2494989 2509619 
3916.118 2512585 2504387 2487891 2467597 2447370 2429644 2415550 2405187 
3919.975 2398757 2397158 2401589 2412951 2430343 2451069 2470429 2483592 
3923.833 2486658 2478693 2462265 2441972 2424046 2413217 2411751 2419315 
3927.690 2433742 2451835 2470363 2487091 2499821 2506953 2506986 2498621 
3931.548 2481959 2458366 2430943 2403821 2381166 2365674 2358045 2356946 
3935.405 2359311 2362509 2364741 2365707 2367307 2372037 2381965 2398457 
3939.262 2420547 2445404 2469863 2489590 2501787 2504753 2499588 2488724 
3943.120 2476494 2467163 2464398 2469396 2481992 2499188 2517351 2532014 
3946.977 2539780 2539080 2530348 2515584 2498055 2480893 2466197 2455367 
3950.835 2448570 2445304 2444838 2446604 2449636 2452668 2454734 2454401 
3954.692 2451135 2445071 2437374 2430143 2425379 2424546 2428044 2434841 
3958.550 2443005 2450469 2455367 2457433 2457267 2456434 2456667 2459533 
3962.407 2465931 2475461 2487158 2499655 2511085 2520250 2526049 2528448 
3966.264 2528149 2525915 2523483 2521883 2521883 2523283 2525449 2527349 
3970.122 2527949 2527015 2525116 2522816 2521416 2520850 2520950 2521050 
3973.979 2519783 2516951 2512951 2509086 2507186 2508752 2514185 2522849 
3977.837 2533014 2542280 2548545 2550978 2549512 2545479 2540347 2535981 
3981.694 2533281 2532481 2533214 2534447 2535481 2535447 2533947 2531315 
3985.552 2527815 2524016 2520983 2518983 2518617 2519850 2522316 2525182 
3989.409 2528048 2530581 2532848 2535814 2540047 2546612 2555811 2567110 
3993.266 2579776 2592409 2603342 2611775 2617242 2619175 2618309 2615042 
3997.124 2610009 2603675 2596775 2589842 2583309 2577943 2574009 2572076 
##END=
