
##TITLE=Z382_1_a
##JCAMP-DX=5.01  $$ Nicolet v. 1
##DATATYPE=INFRARED SPECTRUM
##ORIGIN=UniL
##OWNER=Nicolet
##LONGDATE=2011/09/09
##TIME=09:53:41
##SPECTROMETER/DATA SYSTEM=Nicolet iS5
##DATA PROCESSING=
Ratio against background
%Transmittance->Absorbance
Truncated
ElementMultiply or ElementDivide
##COMMENTS=
Number of sample scans: 32
Collection length: 51.18 sec
Sample gain: 2.0
Background collected on: Ven Sep 09 09:51:57 2011 (GMT+02:00);
Number of background scans: 32
Background gain: 2.0
Sample spacing:  1.000
Number of scan points: 12415
Resolution points: 8192
Number of FFT points: 65536
Apodization: N-B fort;
Phase correction: Mertz;
Laser frequency: 15798.0 cm-1
Number of rejected sample scans: 0
Number of rejected background scans: 0
Bench serial number: ASB1000141;
##RESOLUTION=4.000
##XUNITS=1/CM
##YUNITS=ABSORBANCE
##FIRSTX=649.893372
##LASTX=4000.122314
##FIRSTY=0.088299
##MAXX=4000.122314
##MINX=649.893372
##MAXY=0.224069
##MINY=0.000518
##XFACTOR=1.000000
##YFACTOR=1.000000E-009
##NPOINTS=6950
##DELTAX=0.482117
##ZPD=6100
##XYDATA=(X++(Y..Y))
649.893 88299368 88388992 88587760 88893296 89272856 89679312 90070408 
653.268 90432440 90782808 91160056 91599864 92117328 92698576 93311200 
656.643 93920536 94507120 95073680 95636472 96210832 96796008 97373224 
660.018 97913648 98396296 98818496 99198720 99565936 99945736 100346736 
663.393 100757424 101153280 101508424 101803336 102020744 102141240 
666.285 102133904 101955576 101571552 100983048 100248096 99460064 98706696 
669.660 98028152 97410504 96799936 96129416 95346424 94426152 93382104 
673.035 92254248 91094792 89942776 88813728 87704032 86604280 85514168 
676.410 84450368 83440000 82508656 81667864 80909048 80209832 79544760 
679.785 78899896 78278248 77696240 77171168 76711800 76311728 75952632 
683.159 75613080 75280688 74956976 74655384 74391552 74173272 73995456 
686.534 73841552 73692920 73536408 73371920 73209128 73061936 72937952 
689.909 72834448 72739328 72638456 72522584 72392440 72256208 72123416 
693.284 71997856 71875576 71746344 71601944 71442864 71281072 71134568 
696.659 71019288 70940432 70888744 70846264 70792672 70717336 70623368 
700.034 70524912 70438624 70374952 70332520 70300304 70264200 70214760 
703.408 70152808 70086880 70027736 69980088 69939416 69894264 69833432 
706.783 69752816 69658512 69563496 69482576 69423232 69383968 69358792 
710.158 69343392 69343080 69375184 69463280 69628560 69881536 70217608 
713.533 70617992 71055656 71503256 71933408 72316320 72620048 72808632 
716.908 72852200 72744920 72520232 72258592 72067392 72060976 72311152 
720.282 72812624 73467104 74098720 74504232 74490536 73943328 72849024 
723.657 71292520 69422928 67413624 65430276 63589192 61959248 60564772 
727.032 59397168 58431468 57635116 56977832 56430752 55968336 55571888 
730.407 55227012 54925424 54662596 54434520 54234828 54055044 53885084 
733.782 53717592 53549976 53384488 53226364 53079492 52943640 52814076 
737.156 52683728 52547100 52403452 52257156 52115956 51986116 51870092 
740.531 51765488 51667364 51571684 51477144 51386248 51302748 51228436 
743.906 51162268 51099348 51035696 50970224 50906924 50853092 50815848 
747.281 50798412 50797372 50804708 50811300 50812232 50808804 50808208 
750.656 50818492 50844716 50885016 50931996 50976484 51012108 51038564 
754.031 51060480 51084032 51111240 51138600 51157236 51158464 51138448 
757.405 51102072 51061744 51033608 51031412 51061448 51122944 51210024 
760.780 51316808 51439808 51579820 51739096 51918748 52117488 52332840 
764.155 52565164 52821224 53115700 53468572 53898812 54421108 55041628 
767.530 55760024 56575404 57492992 58530756 59727204 61141532 62856852 
770.905 64987004 67661400 71016632 75169544 80165872 85931328 92208936 
774.279 98569920 104388728 108927984 111527352 111691056 109258696 104438544 
777.654 97773144 90003760 81874816 74081032 67118912 61259448 56592768 
781.029 53049504 50471968 48657992 47418324 46593972 46058820 45729404 
784.404 45549236 45481132 45502288 45596268 45749980 45953320 46197476 
787.779 46476284 46787816 47133292 47517376 47945308 48422076 48950432 
791.154 49531464 50166632 50858792 51613512 52438816 53342860 54332824 
794.528 55414436 56592840 57875520 59275732 60812444 62511348 64404236 
797.903 66523784 68907720 71600184 74650896 78122936 82088280 86615888 
801.278 91764504 97557976 103967696 110885000 118112360 125369024 132267488 
804.653 138372096 143239856 146456704 147746864 147016176 144389840 
807.546 140182944 134859584 128967152 123011488 117448176 112628712 
810.438 108758544 105922360 104071768 103051896 102605624 102413176 
813.331 102150256 101496288 100207072 98148208 95295824 91737280 87636072 
816.706 83209064 78672392 74220320 70016328 66167788 62736668 59743972 
820.081 57176556 54999012 53162208 51616312 50312040 49207044 48269640 
823.455 47474576 46802948 46241224 45777924 45404720 45116932 44913648 
826.830 44798068 44775368 44851852 45032536 45319348 45710884 46201864 
830.205 46783024 47439756 48153236 48899148 49649836 50380348 51070580 
833.580 51708268 52289408 52811044 53263444 53624724 53854288 53900016 
836.955 53712004 53251944 52510940 51512360 50312264 48985148 47609912 
840.329 46262344 44999308 43858872 42862228 42015412 41314308 40748092 
843.704 40302252 39959620 39702752 39516976 39390668 39316736 39291492 
847.079 39312820 39377428 39480364 39614464 39772680 39949812 40143108 
850.454 40352532 40578792 40822380 41082384 41357748 41648380 41957056 
853.829 42289172 42651556 43050496 43489324 43968848 44487664 45045140 
857.204 45642604 46284936 46979388 47734524 48559156 49463620 50461812 
860.578 51573140 52827024 54261180 55919528 57852620 60109960 62735936 
863.953 65765432 69210248 73046016 77189144 81490832 85720016 89564256 
867.328 92692384 94774032 95553392 94915208 92898632 89701192 85618392 
870.703 81018168 76264496 71653760 67421512 63708044 60568160 57995772 
874.078 55939312 54326252 53073280 52104936 51358016 50780872 50338268 
877.452 50005404 49764484 49602844 49510036 49477060 49497964 49568600 
880.827 49687652 49854860 50069688 50330416 50634156 50977752 51359880 
884.202 51781612 52246692 52759600 53323528 53939476 54606080 55321356 
887.577 56085044 56901220 57779752 58737664 59798000 60990776 62351892 
890.952 63916132 65712080 67748440 70002472 72405128 74837480 77149000 
894.327 79161232 80707472 81669344 81985296 81666904 80782848 79445600 
897.701 77780528 75905984 73933264 71951672 70035248 68247936 66636792 
901.076 65234704 64058228 63105800 62362604 61805192 61410488 61157592 
904.451 61031044 61019720 61112888 61299436 61568676 61911216 62322368 
907.826 62803164 63358256 63993952 64714672 65523476 66423112 67419656 
911.201 68525712 69759232 71141752 72694232 74431080 76359848 78481488 
914.575 80793424 83290696 85965256 88803368 91779072 94850976 97966616 
917.950 101058472 104051728 106868016 109411568 111570448 113217280 
920.843 114205304 114404168 113730896 112180696 109850984 106938704 
923.736 103729920 100530880 97645376 95338120 93788848 93107632 93331120 
927.110 94435336 96344784 98938536 102066000 105531768 109114088 112593504 
930.485 115744944 118375384 120337600 121520024 121858104 121328832 
933.378 119951208 117792096 114971824 111678760 108147000 104656512 
936.271 101519648 99023504 97431656 96954296 97716664 99763344 103036768 
939.646 107383040 112523552 118061832 123533040 128385632 132081168 
942.538 134185312 134398960 132644760 129064592 124004880 117928136 
945.431 111329672 104692016 98383576 92656864 87655216 83416144 79910536 
948.806 77066656 74799344 73018376 71640312 70596432 69826000 69278720 
952.181 68916496 68706968 68626128 68656672 68784096 68996728 69284000 
955.555 69634984 70039880 70490216 70979096 71501264 72052568 72628904 
958.930 73225800 73838176 74461400 75092728 75731248 76378688 77037416 
962.305 77709440 78395120 79092496 79798480 80510328 81226528 81947640 
965.680 82675240 83410088 84151888 84898944 85648704 86400080 87154296 
969.055 87915264 88688784 89480744 90295608 91136272 92005152 92905152 
972.429 93841816 94821960 95853704 96943480 98094136 99305240 100573896 
975.804 101896840 103271728 104698000 106174880 107699424 109263808 
978.697 110856472 112461488 114062448 115644264 117192920 118695168 
981.590 120137136 121502104 122773640 123937480 124985568 125918312 
984.482 126744808 127479944 128138784 128735480 129280432 129781424 
987.375 130246640 130685184 131106328 131518648 131926192 132328424 
990.268 132720720 133098736 133461464 133814096 134166944 134532320 
993.160 134921232 135339808 135789056 136267552 136773424 137307248 
996.053 137870784 138464832 139086112 139725808 140371136 141008784 
998.946 141628752 142228240 142810240 143381712 143948864 144516032 
1001.839 145085232 145658752 146242704 146847440 147486560 148173744 
1004.731 148918464 149724688 150593632 151527440 152534192 153631664 
1007.624 154844592 156202896 157738384 159477984 161447104 163666624 
1010.517 166147872 168884064 171834000 174911744 177965664 180791792 
1013.409 183164720 184856048 185702688 185640224 184720896 183102176 
1016.302 181013120 178723008 176471056 174452240 172798960 171571104 
1019.195 170775024 170376192 170321600 170548944 170999888 171630576 
1022.087 172407680 173311600 174333040 175466336 176706208 178045088 
1024.980 179472000 180975632 182546976 184180496 185873184 187622928 
1027.873 189423728 191265152 193133248 195012592 196890928 198760896 
1030.766 200618608 202460736 204280432 206065632 207801728 209474944 
1033.659 211077392 212608640 214074000 215479824 216827296 218110192 
1036.552 219315120 220426128 221426080 222299936 223031088 223594736 
1039.446 223956352 224069376 223878080 223330736 222384032 221009712 
1042.339 219197664 216951808 214288864 211235504 207832528 204136608 
1045.232 200215136 196150224 192026880 187920480 183899248 180015056 
1048.125 176304704 172796656 169510272 166457712 163644160 161064816 
1051.018 158705792 156543968 154553616 152708912 150987168 149372304 
1053.911 147850704 146408704 145031088 143697776 142386176 141075216 
1056.804 139745600 138381936 136973088 135508544 133978488 132374896 
1059.697 130692304 128931792 127102200 125221176 123311024 121395344 
1062.590 119497288 117635200 115823456 114074216 112397144 110800360 
1065.483 109290104 107868784 106535088 105284016 104108952 103003456 
1068.376 101962872 100985384 100070672 99217784 98424312 97685336 96994104 
1071.751 96343872 95729064 95146432 94594536 94072584 93579720 93114248 
1075.127 92674664 92261296 91877600 91532000 91236376 91006288 90859336 
1078.502 90812040 90880616 91078856 91415712 91894552 92508992 93241752 
1081.877 94060536 94920192 95767976 96543256 97189336 97660240 97923064 
1085.252 97965080 97794600 97442760 96959184 96409360 95872416 95424960 
1088.628 95140992 95084440 95300864 95823296 96671888 97859216 99395368 
1092.003 101291864 103561368 106216640 109263168 112691928 116466096 
1094.896 120513048 124720056 128916680 132892208 136407840 139203616 
1097.789 141055904 141803696 141378208 139822064 137281600 133987384 
1100.682 130194944 126168864 122146888 118304848 114771064 111619800 
1103.575 108877744 106541272 104584120 102970616 101659144 100610320 
1106.468 99790696 99171032 98728904 98446752 98308360 98298560 98401864 
1109.844 98601272 98881736 99230656 99640000 100107384 100634008 101220408 
1113.219 101860216 102530936 103184064 103746664 104113704 104162008 
1116.112 103777544 102866424 101389608 99375712 96926624 94198608 91368480 
1119.487 88617056 86083928 83855816 81968408 80410984 79145768 78124320 
1122.862 77306624 76665792 76191192 75886416 75765256 75849208 76162016 
1126.238 76728720 77568304 78683952 80051832 81610200 83258904 84849832 
1129.613 86206992 87151864 87509728 87150048 86001848 84060880 81394464 
1132.988 78131664 74454520 70557608 66635168 62862060 59363020 56221736 
1136.363 53478468 51136548 49175464 47560812 46255484 45221160 44422328 
1139.739 43828408 43409456 43138024 42990428 42945212 42985196 43097628 
1143.114 43270952 43495036 43759548 44053072 44365556 44689020 45018384 
1146.489 45351788 45689680 46033032 46382336 46737892 47100424 47471692 
1149.864 47855296 48256160 48678076 49122816 49588732 50071544 50565096 
1153.240 51064240 51565824 52068588 52572380 53076276 53577188 54070352 
1156.615 54549464 55007700 55439356 55838772 56199596 56514112 56772320 
1159.990 56962716 57074556 57098548 57028192 56860240 56592840 56225276 
1163.365 55757012 55188748 54523012 53765552 52925488 52014840 51046352 
1166.740 50033024 48986556 47917484 46836680 45754732 44683328 43634856 
1170.116 42620048 41647796 40723928 39851052 39029836 38260392 37543388 
1173.491 36880552 36274592 35727280 35239448 34809592 34434752 34111308 
1176.866 33835772 33605592 33418436 33272028 33163402 33088558 33044398 
1180.241 33029668 33046402 33099964 33198416 33351630 33567680 33853932 
1183.617 34215976 34658160 35184832 35799888 36506768 37308024 38206044 
1186.992 39204808 40313592 41549852 42938812 44513728 46306832 48340076 
1190.367 50615244 53105628 55753244 58466004 61136036 63646160 65883568 
1193.742 67765336 69243352 70316784 71030288 71472944 71765416 72034656 
1197.118 72411432 73006544 73893160 75105368 76625944 78390432 80281936 
1200.493 82148400 83820048 85111672 85861760 85946232 85287368 83868672 
1203.868 81728176 78954856 75667152 72008608 68137016 64198948 60333840 
1207.243 56659844 53259140 50185528 47459420 45073628 43000892 41202264 
1210.619 39638060 38269836 37067368 36009600 35081652 34274200 33581676 
1213.994 33000104 32527388 32162610 31905640 31755644 31710696 31765948 
1217.369 31914412 32147910 32458078 32838866 33286802 33799952 34377188 
1220.744 35015956 35711848 36459056 37251520 38083808 38952196 39852904 
1224.120 40781284 41730480 42691620 43655700 44616676 45573744 46532376 
1227.495 47503552 48502096 49542564 50639032 51803600 53046992 54379424 
1230.870 55810928 57349432 59000356 60764652 62639476 64619384 66699184 
1234.245 68875952 71149328 73520280 75989736 78555648 81213384 83955456 
1237.621 86771200 89645624 92555120 95458640 98297392 100988232 103425160 
1240.996 105499536 107104296 108153552 108601432 108447648 107745872 
1243.889 106594592 105140136 103556568 102017264 100696248 99737328 99242480 
1247.264 99279464 99876672 101034304 102734264 104950648 107653864 110806264 
1250.639 114360192 118242544 122340200 126506688 130547416 134226288 
1253.532 137301104 139516464 140639104 140497264 138987536 136104704 
1256.426 131939576 126674848 120553592 113836520 106799280 99690104 92717040 
1259.801 86061424 79855424 74187264 69107784 64626232 60719836 57340208 
1263.176 54425392 51906052 49711948 47783980 46071680 44537300 43157272 
1266.551 41918224 40816772 39857008 39049844 38411420 37959868 37715636 
1269.927 37696084 37910728 38357564 39017984 39854752 40807820 41801172 
1273.302 42745764 43541700 44097888 44336892 44207416 43696300 42829132 
1276.677 41668764 40297160 38810220 37299068 35833924 34466568 33225134 
1280.052 32117192 31137744 30274238 29512194 28836072 28232454 27689810 
1283.427 27198392 26751612 26345916 25980276 25655224 25371304 25127552 
1286.803 24921414 24748906 24606656 24492602 24406444 24348440 24318408 
1290.178 24313398 24327764 24355064 24388744 24425196 24464244 24508694 
1293.553 24562372 24628468 24708570 24802752 24911274 25035088 25177022 
1296.928 25340708 25529406 25744552 25985096 26248372 26532232 26835700 
1300.304 27159802 27505892 27874972 28265834 28675062 29098352 29532730 
1303.679 29977590 30435274 30909164 31401668 31912238 32437444 32972004 
1307.054 33510480 34049736 34588940 35128208 35666884 36202448 36730092 
1310.429 37244768 37742740 38223412 38689584 39146432 39600348 40057280 
1313.805 40524220 41009260 41520648 42066148 42646916 43252468 43854472 
1317.180 44406620 44852296 45129172 45187956 45001992 44572176 43925292 
1320.555 43107180 42173448 41175272 40157864 39157780 38201344 37310368 
1323.930 36502300 35789632 35180192 34675996 34273916 33967176 33747772 
1327.306 33609064 33544414 33547528 33610964 33724748 33878256 34061564 
1330.681 34266456 34487484 34720536 34960432 35199596 35427896 35633472 
1334.056 35806972 35942828 36040668 36103888 36137052 36143280 36122936 
1337.431 36074148 35995416 35888228 35758836 35616996 35473120 35335512 
1340.807 35207752 35089264 34977240 34869944 34768492 34677252 34601964 
1344.182 34548400 34520988 34522528 34556076 34626224 34739488 34903980 
1347.557 35127560 35415312 35769448 36189808 36675900 37228020 37846700 
1350.932 38531652 39278652 40077992 40915936 41774616 42637336 43489764 
1354.308 44317484 45104616 45829396 46460832 46964212 47303588 47450880 
1357.683 47394300 47141716 46722468 46179492 45569444 44954292 44392236 
1361.058 43941792 43656472 43580784 43751632 44190836 44903140 45876088 
1364.433 47082444 48483164 50023732 51636348 53235276 54711448 55953600 
1367.809 56858616 57353592 57418216 57086948 56441656 55584092 54623668 
1371.184 53657448 52754920 51966548 51320428 50825976 50474832 50237972 
1374.559 50068088 49896224 49646452 49249684 48650464 47823852 46778188 
1377.934 45557556 44231076 42882888 41599260 40447480 39475644 38713416 
1381.310 38176016 37873020 37811272 37996320 38435276 39142116 40142348 
1384.685 41478976 43205656 45367640 47971176 50949096 54146880 57318544 
1388.060 60184128 62486404 64020484 64675792 64428524 63330308 61485452 
1391.435 59033376 56133832 52934844 49586872 46242808 43047680 40146236 
1394.811 37655072 35635808 34087116 32949556 32136388 31550792 31113254 
1398.186 30772708 30502874 30300104 30171296 30123172 30155136 30257862 
1401.561 30415692 30612296 30833674 31071360 31324666 31600286 31911418 
1404.936 32272988 32700158 33204998 33794472 34471768 35235496 36078576 
1408.312 36984016 37922548 38853368 39723520 40479668 41081840 41510548 
1411.687 41773884 41902536 41941760 41935776 41919900 41917788 41939428 
1415.062 41987124 42059688 42155960 42275624 42418812 42587448 42786384 
1418.437 43026644 43324876 43700512 44167140 44723576 45354912 46035536 
1421.813 46738408 47440052 48128580 48806192 49486232 50186528 50919892 
1425.188 51686804 52474224 53260112 54020372 54737756 55402464 56013528 
1428.563 56577176 57105996 57619376 58142876 58712784 59372324 60162512 
1431.938 61117884 62256548 63580372 65079792 66746012 68581040 70596160 
1435.313 72806592 75210672 77770224 80403136 83004880 85481816 87774104 
1438.689 89851200 91691848 93270624 94541352 95442960 95919320 95926512 
1442.064 95450592 94509392 93149392 91436904 89443856 87247656 84914408 
1445.439 82490944 80008208 77483672 74938504 72418712 70001728 67790816 
1448.814 65896296 64400584 63347756 62739804 62542572 62692372 63097900 
1452.190 63654176 64237364 64718328 64979428 64903236 64382596 63331156 
1455.565 61713216 59594992 57172776 54759860 52660648 51055708 49973060 
1458.940 49335572 49037192 48984184 49113688 49382904 49756124 50199960 
1462.315 50675040 51138636 51553888 51893728 52151188 52340952 52497928 
1465.691 52665588 52880872 53172660 53556424 54036280 54607696 55258620 
1469.066 55971388 56718176 57462392 58156396 58734444 59124256 59259020 
1472.441 59098972 58648536 57953248 57080224 56091832 55040348 53970504 
1475.816 52923728 51949596 51100316 50418156 49931204 49646860 49555636 
1479.192 49640696 49887120 50288448 50849108 51581500 52499684 53613328 
1482.567 54922676 56419056 58089088 59923540 61923096 64102120 66487752 
1485.942 69112488 72002192 75167016 78596032 82260584 86127240 90165496 
1489.317 94353520 98667552 103075496 107522192 111931648 116217480 120297776 
1492.693 124104784 127567440 130615400 133167176 135123120 136395504 
1495.586 136936976 136781184 136045648 134917168 133603080 132268488 
1498.479 131030784 129960208 129094664 128464072 128094104 128000752 
1501.372 128184096 128615528 129235984 129942416 130589080 130983936 
1504.265 130855648 129870656 127666352 123948456 118674352 112162944 
1507.158 105009520 97806048 90910032 84398696 78181448 72125096 66145480 
1510.533 60235740 54482372 49034336 44038076 39617112 35826008 32648574 
1513.908 30021046 27855400 26063514 24563002 23289244 22198798 21264198 
1517.284 20476730 19835602 19336740 18965288 18691896 18473886 18269222 
1520.659 18049872 17818894 17611052 17476124 17449634 17534804 17706194 
1524.034 17924682 18156716 18383382 18608296 18852048 19142438 19497476 
1527.409 19917910 20389452 20892554 21412978 21946958 22501138 23086806 
1530.785 23712424 24379560 25081354 25806398 26544982 27293718 28056928 
1534.160 28839648 29642226 30454394 31257614 32026262 32732702 33353488 
1537.535 33865612 34251472 34498496 34599884 34554388 34367792 34058836 
1540.910 33658400 33203996 32728668 32249324 31762384 31246932 30678040 
1544.286 30040184 29340940 28609938 27889424 27213914 26593204 26012182 
1547.661 25437946 24837766 24193676 23514790 22833648 22194092 21628428 
1551.036 21143608 20722784 20336914 19961276 19586618 19223750 18896654 
1554.411 18629288 18430428 18288850 18174752 18049734 17868988 17586418 
1557.787 17164268 16587764 15889620 15151697 14473463 13923236 13517619 
1561.162 13236669 13043438 12899748 12771803 12636049 12482809 12317830 
1564.537 12160136 12033396 11956587 11933904 11954747 11998516 12045046 
1567.912 12080920 12104564 12126301 12163579 12233574 12345202 12499860 
1571.288 12694078 12924188 13187516 13482003 13804497 14147906 14504091 
1574.663 14867219 15238991 15632411 16068650 16570035 17145792 17791968 
1578.038 18496256 19247336 20038994 20871068 21746852 22665982 23618126 
1581.413 24583620 25530038 26419010 27214196 27881086 28392590 28730106 
1584.789 28882494 28848004 28633616 28256604 27742470 27123616 26439646 
1588.164 25728378 25021576 24340170 23689960 23064374 22450156 21834786 
1591.539 21211274 20579000 19941848 19305596 18675360 18056882 17459670 
1594.914 16899208 16395032 15968263 15632858 15391627 15235388 15148334 
1598.290 15115810 15129876 15192322 15311167 15495864 15750278 16072467 
1601.665 16456526 16899484 17406244 17991158 18673182 19472110 20401226 
1605.040 21465822 22665214 23995824 25454458 27034392 28721150 30488266 
1608.415 32291796 34076216 35784380 37363992 38781488 40026284 41110724 
1611.791 42062460 42913760 43689996 44399648 45031540 45555124 45929676 
1615.166 46109480 46057640 45758156 45220980 44475916 43556240 42484396 
1618.541 41267120 39901896 38382644 36706548 34874396 32898332 30801838 
1621.916 28625122 26435350 24316130 22355784 20627050 19166990 17973890 
1625.292 17014764 16242903 15608815 15071315 14605339 14200077 13856593 
1628.667 13581543 13380539 13252998 13192537 13187550 13223995 13288184 
1632.042 13365640 13441572 13500255 13523225 13492974 13397521 13238309 
1635.417 13034629 12821659 12637003 12503849 12426411 12392010 12381578 
1638.792 12375271 12358531 12324920 12275666 12218272 12161942 12114615 
1642.168 12078705 12051009 12023756 11985981 11926684 11835762 11706224 
1645.543 11536639 11334130 11114819 10902551 10724008 10598365 10534675 
1648.918 10529753 10570559 10636156 10698536 10725060 10677177 10520349 
1652.293 10242620 9878523 9508430 9214255 9037081 8965468 8962627 8989992 
1656.151 9020065 9037860 9037555 9019760 8988706 8948894 8903098 8851525 
1660.008 8791810 8719967 8631742 8524409 8399063 8261629 8123261 7997187 
1663.866 7895679 7825771 7787583 7774697 7775844 7778205 7768322 7735164 
1667.723 7672668 7580138 7463558 7333969 7205597 7091543 7001494 6940416 
1671.581 6907524 6896717 6896650 6892981 6869012 6810949 6713824 6586510 
1675.438 6450859 6332599 6250774 6209766 6200927 6208455 6217698 6220455 
1679.295 6217295 6216018 6226572 6254975 6298274 6343156 6368037 6350116 
1683.153 6273767 6142246 5981774 5833249 5731003 5685647 5687560 5717037 
1687.010 5756084 5790903 5814141 5823510 5820286 5807962 5792213 5780393 
1690.868 5780360 5798190 5836708 5892424 5956580 6013890 6048261 6046681 
1694.725 6006668 5941262 5878318 5848596 5867806 5931723 6017855 6096847 
1698.583 6137273 6115867 6027027 5891820 5753767 5655736 5620055 5641067 
1702.440 5696893 5761087 5812092 5835297 5824585 5782644 5720293 5652615 
1706.297 5592465 5546821 5516014 5495846 5480444 5465211 5448099 5430450 
1710.155 5414917 5404583 5401161 5404416 5412803 5423807 5435684 5447864 
1714.012 5460882 5475009 5488699 5497759 5495511 5476015 5437127 5384153 
1717.870 5329575 5289425 5274970 5290129 5330749 5387910 5451655 5513732 
1721.727 5569575 5618209 5661913 5704480 5750040 5801884 5861559 5929304 
1725.584 6004215 6084079 6164662 6240757 6306073 6355562 6386765 6402031 
1729.442 6407849 6411985 6420291 6432195 6439156 6425099 6369381 6255681 
1733.299 6080752 5864246 5644693 5465848 5354129 5310321 5316392 5346682 
1737.157 5377644 5390426 5374223 5326656 5254143 5168463 5082968 5008082 
1741.014 4948021 4901741 4865686 4835999 4809967 4786716 4767152 4752848 
1744.872 4745109 4744607 4750369 4760552 4772579 4783500 4790904 4793081 
1748.729 4788659 4776967 4757135 4729433 4695568 4659765 4628652 4608861 
1752.586 4605345 4618673 4644895 4675741 4700258 4709000 4695033 4658459 
1756.444 4606014 4549692 4501546 4468537 4450393 4440618 4429840 4408618 
1760.301 4371532 4318587 4255276 4191204 4136040 4097773 4079444 4080682 
1764.159 4097472 4124399 4154672 4180799 4196390 4197159 4183309 4159657 
1768.016 4134802 4117341 4111119 4113661 4115501 4104095 4067437 4000751 
1771.874 3909434 3809312 3720408 3657417 3625708 3620363 3631556 3649031 
1775.731 3666607 3682178 3696848 3712387 3728930 3744003 3753929 3755466 
1779.588 3748381 3735614 3723215 3716598 3718570 3727927 3739892 3749116 
1783.446 3751790 3746843 3737251 3727860 3723817 3728662 3743835 3768902 
1787.303 3802493 3843374 3889541 3938154 3984499 4022522 4045697 4048808 
1791.161 4030380 3994364 3949890 3907428 3876370 3861292 3861259 3871956 
1795.018 3888271 3905288 3920434 3932036 3939893 3943805 3943772 3939157 
1798.875 3929963 3916422 3899404 3880582 3862362 3846984 3836789 3833747 
1802.733 3839095 3853002 3874431 3901076 3929862 3957514 3981924 4002356 
1806.590 4019511 4034929 4049878 4064326 4076668 4084695 4086334 4080849 
1810.448 4069644 4056266 4044527 4037872 4037571 4042989 4052620 4064226 
1814.305 4076701 4089779 4104530 4122291 4144168 4170462 4200706 4234297 
1818.163 4269765 4306372 4343218 4379666 4415680 4451196 4486582 4521635 
1822.020 4555552 4586023 4610501 4625873 4630963 4627748 4621352 4619510 
1825.877 4628652 4651626 4685722 4723571 4754422 4768324 4759480 4728729 
1829.735 4684047 4636991 4599183 4577015 4570050 4572964 4578221 4579861 
1833.592 4574437 4561646 4543565 4522974 4502082 4481962 4463482 4447682 
1837.450 4436501 4433087 4440518 4460904 4494516 4539413 4591782 4646904 
1841.307 4699555 4744406 4776498 4792813 4793550 4783433 4771473 4768894 
1845.165 4784840 4822798 4880630 4951707 5027455 5100602 5168128 5230700 
1849.022 5292410 5357617 5428605 5504067 5579845 5650164 5711161 5762296 
1852.879 5806518 5848596 5892894 5941296 5992961 6045674 6097217 6147791 
1856.737 6199381 6256119 6321067 6395810 6479042 6568243 6660996 6756090 
1860.594 6854100 6956712 7064702 7176929 7290130 7399180 7498987 7585128 
1864.452 7654491 7704809 7733309 7736244 7709463 7649163 7554513 7429683 
1868.309 7284469 7132702 6988968 6864906 6765009 6688284 6628596 6579109 
1872.167 6532554 6483582 6428092 6363464 6287650 6200657 6103937 6000721 
1876.024 5895279 5791777 5692428 5596929 5502792 5406496 5305726 5201123 
1879.881 5095942 4995345 4904824 4827455 4763500 4710976 4666697 4628351 
1883.739 4595198 4567941 4547650 4534592 4527092 4522672 4518320 4512260 
1887.596 4504459 4496123 4489159 4485510 4486180 4491670 4502082 4518420 
1891.454 4540819 4569581 4603603 4640273 4676008 4707593 4732916 4751307 
1895.311 4764371 4773517 4779346 4781624 4779312 4771708 4761222 4751709 
1899.168 4749531 4759849 4785678 4826015 4876140 4929287 4979491 5022897 
1903.026 5058764 5088868 5116024 5142645 5170307 5199279 5229594 5260951 
1906.883 5293484 5326690 5359429 5390124 5416862 5439040 5457426 5474304 
1910.741 5491786 5511282 5531887 5551486 5567326 5577865 5583940 5587833 
1914.598 5592498 5598842 5605420 5607703 5601225 5582866 5554506 5521987 
1918.456 5493464 5475143 5467962 5467492 5466284 5457191 5436993 5408643 
1922.313 5380396 5362515 5362180 5381402 5415252 5455614 5493967 5525209 
1926.170 5549203 5569575 5591189 5618376 5652581 5693469 5738960 5787714 
1930.028 5839025 5892962 5948954 6005156 6058206 6104643 6141373 6167082 
1933.885 6182475 6188525 6186911 6178811 6164696 6146078 6125578 6106693 
1937.743 6093588 6089119 6093050 6103299 6115833 6127595 6137810 6149069 
1941.600 6166309 6194171 6235244 6287886 6346754 6406268 6461116 6509144 
1945.458 6550516 6587081 6620050 6651811 6683270 6716684 6755754 6804520 
1949.315 6866454 6942234 7028029 7116433 7199533 7270620 7327600 7373566 
1953.172 7414818 7458064 7508022 7564661 7624546 7682414 7733815 7776282 
1957.030 7810388 7838220 7862343 7884915 7907219 7932122 7961514 7998536 
1960.887 8044743 8099831 8159992 8219824 8273178 8316409 8349002 8373795 
1964.745 8394637 8415278 8436494 8457069 8474874 8488761 8500046 8511095 
1968.602 8525693 8545393 8570333 8599127 8630153 8665272 8707661 8761516 
1972.459 8829140 8908239 8993138 9075718 9150903 9221228 9297115 9391942 
1976.317 9519708 9685356 9881674 10089545 10285096 10446216 10559967 
1979.692 10624237 10645154 10634628 10605223 10566451 10525102 10485623 
1983.067 10449747 10418589 10393000 10371486 10353093 10337959 10327848 
1986.443 10328119 10346951 10392186 10469195 10577315 10709948 10854783 
1989.818 11001161 11139669 11268087 11389672 11510542 11637674 11774239 
1993.193 11920383 12073050 12229417 12385976 12541329 12694078 12841590 
1996.568 12980309 13106916 13218667 13315517 13400221 13476979 13548451 
1999.944 13616141 13677584 13729938 13770260 13799401 13820470 13840858 
2003.319 13867506 13906300 13960119 14028284 14108884 14199085 14297522 
2006.694 14402900 14515088 14633027 14754838 14879426 15007446 15140820 
2010.069 15284121 15440275 15609914 15790513 15976720 16162628 16345108 
2013.445 16524462 16705062 16891318 17085512 17286066 17486094 17677342 
2016.820 17852380 18006870 18140998 18258752 18364576 18461820 18552308 
2020.195 18635860 18711542 18777758 18832046 18870630 18887898 18876998 
2023.570 18832082 18750634 18633372 18486886 18319714 18139616 17952860 
2026.946 17762972 17571306 17378448 17187330 17002152 16827802 16670320 
2030.321 16531244 16409656 16303033 16208095 16122498 16047986 15986929 
2033.696 15942380 15915431 15903438 15901031 15904261 15909554 15917666 
2037.071 15932033 15956404 15992086 16038429 16090173 16141444 16187184 
2040.447 16224295 16252328 16272003 16283631 16286038 16277336 16255768 
2043.822 16220650 16174803 16122771 16069166 16019451 15976822 15942518 
2047.197 15916051 15895566 15876802 15853260 15815252 15752476 15655288 
2050.572 15517738 15340514 15131626 14904183 14672610 14450444 14244688 
2053.948 14055662 13877358 13701554 13521344 13334786 13144824 12957983 
2057.323 12781493 12619811 12473875 12341044 12217966 12101872 11992622 
2060.698 11891539 11800693 11720452 11648531 11581453 11515305 11448078 
2064.073 11380079 11314234 11253329 11199096 11150751 11105029 11057783 
2067.448 11005749 10946688 10880025 10805797 10723567 10633100 10533826 
2070.824 10427040 10315903 10205101 10099989 10004329 9918183 9837612 
2074.199 9756513 9667873 9567262 9454043 9331204 9205118 9081909 8966415 
2078.056 8861164 8766791 8682071 8605683 8536506 8473083 8413285 8355285 
2081.914 8296279 8234850 8171033 8106415 8043696 7985880 7934416 7889133 
2085.771 7848780 7810826 7773111 7734692 7694792 7652568 7606876 7555761 
2089.629 7497234 7430492 7356379 7277258 7196973 7119296 7047055 6981594 
2093.486 6923515 6872480 6828552 6791630 6761475 6736538 6713689 6689630 
2097.344 6661164 6627553 6590445 6554418 6524414 6503661 6492899 6489333 
2101.201 6488223 6484860 6476452 6462596 6445176 6426478 6408017 6390397 
2105.058 6373080 6356067 6340634 6329002 6324060 6327690 6339088 6355697 
2108.916 6373517 6389523 6402401 6413599 6426041 6442485 6463370 6486878 
2112.773 6508773 6524750 6532184 6530603 6522261 6510354 6497977 6486407 
2116.631 6475242 6463269 6448606 6430446 6408790 6383806 6356134 6326447 
2120.488 6294710 6262169 6230538 6201700 6177366 6158176 6142818 6128200 
2124.345 6111397 6090127 6063918 6034318 6003812 5973712 5944722 5914861 
2128.203 5881912 5844028 5801616 5757461 5716029 5682088 5659093 5648654 
2132.060 5650601 5664062 5688836 5724960 5771865 5828581 5891148 5953892 
2135.918 6011304 6059046 6095402 6122151 6142280 6158512 6172493 6184054 
2139.775 6191751 6195482 6196456 6196557 6197868 6199011 6196423 6183147 
2143.633 6152429 6100880 6029983 5946670 5860182 5779756 5711128 5655334 
2147.490 5609515 5569776 5533733 5500645 5471552 5446857 5424814 5400759 
2151.347 5368285 5322128 5259441 5181875 5092891 4996150 4895542 4792512 
2155.205 4690946 4598815 4530507 4506267 4548554 4672860 4882004 5160248 
2159.062 5477256 5796948 6084213 6317100 6487013 6597914 6660693 6690908 
2162.920 6703526 6709651 6717290 6730245 6747576 6765042 6776956 6777057 
2166.777 6761845 6732365 6692052 6646663 6602220 6560742 6521858 6483549 
2170.635 6443427 6402132 6362993 6331422 6312494 6309536 6320966 6342988 
2174.492 6371231 6402132 6435289 6472383 6514357 6560170 6605954 6645553 
2178.349 6674623 6693566 6707160 6724659 6754912 6803342 6867767 6941258 
2182.207 7013111 7074098 7121149 7156348 7186193 7217355 7253808 7294476 
2186.064 7335013 7369050 7392204 7403157 7403427 7396821 7386575 7374712 
2189.922 7361468 7347078 7331307 7314256 7295689 7275338 7250776 7219882 
2193.779 7179927 7130613 7074165 7015232 6958799 6909948 6871369 6843060 
2197.636 6823571 6810612 6802871 6799270 6799270 6801929 6805429 6807785 
2201.494 6807953 6806237 6804958 6807617 6816772 6833601 6856322 6881838 
2205.351 6906918 6930518 6953580 6979001 7010585 7049412 7095181 7144693 
2209.209 7194177 7240971 7284671 7326387 7367534 7408347 7446502 7477413 
2213.066 7496796 7502123 7493593 7475390 7453277 7432312 7415931 7404000 
2216.924 7394394 7383845 7369994 7351189 7328611 7303271 7276618 7249394 
2220.781 7221970 7194514 7168104 7143851 7122664 7104982 7089691 7074973 
2224.638 7059179 7041128 7021294 7001696 6984590 6971896 6965095 6963681 
2228.496 6967149 6974489 6985197 6998800 7015232 7033551 7052174 7069551 
2232.353 7084067 7094810 7102624 7107945 7111920 7114850 7116804 7117579 
2236.211 7118488 7121485 7129737 7146242 7172853 7209135 7252966 7300541 
2240.068 7348392 7394394 7437536 7477986 7516247 7552018 7583712 7610046 
2243.926 7630144 7645048 7657425 7670341 7686462 7706158 7727676 7747240 
2247.783 7760766 7765927 7762182 7751287 7736108 7719750 7703966 7689632 
2251.640 7676614 7665282 7656447 7652467 7655098 7666159 7685989 7712836 
2255.498 7743731 7775001 7803202 7825197 7839029 7843281 7837579 7822498 
2259.355 7799120 7769738 7736986 7702751 7668992 7636618 7605595 7576091 
2263.213 7548680 7524406 7504887 7491773 7485840 7486312 7491402 7497976 
2267.070 7503100 7504988 7502729 7496964 7489211 7481424 7475829 7474412 
2270.927 7478862 7490256 7509067 7534149 7562976 7592681 7619926 7642081 
2274.785 7658875 7671454 7682279 7693949 7708620 7726428 7746497 7767040 
2278.642 7786470 7803944 7819260 7832721 7844462 7853975 7860926 7864907 
2282.500 7866021 7865413 7864435 7863996 7863996 7863356 7859981 7851850 
2286.357 7838322 7819968 7798547 7777159 7757797 7741607 7728385 7717153 
2290.215 7706832 7696984 7687676 7680020 7674894 7672398 7672162 7673073 
2294.072 7673916 7673747 7672094 7668722 7663799 7657324 7649601 7640968 
2297.929 7632369 7624714 7619622 7617835 7619555 7623905 7629368 7634628 
2301.787 7638979 7642789 7647341 7654457 7664844 7678772 7695062 7712060 
2305.644 7728385 7743361 7757460 7771661 7787347 7805091 7824725 7845136 
2309.502 7864907 7882384 7896725 7907286 7914136 7917679 7918421 7917071 
2313.359 7914777 7912483 7911302 7911976 7914743 7919198 7924732 7930536 
2317.217 7936103 7941705 7948218 7956621 7968331 7984598 8006367 8034211 
2321.074 8067898 8105605 8144091 8177954 8200746 8206891 8191764 8154995 
2324.931 8100406 8035562 7970356 7914811 7877087 7861499 7868652 7895409 
2328.789 7937150 7988884 8046497 8107394 8169851 8232351 8292868 8348901 
2332.646 8397509 8436325 8463691 8479300 8483524 8477847 8463623 8442609 
2336.504 8416663 8387341 8356365 8325224 8294759 8265175 8236032 8207161 
2340.361 8177549 8147028 8115495 8082953 8049063 8013353 7974879 7933134 
2344.219 7888593 7843551 7801684 7767984 7747880 7745114 7761778 7797636 
2348.076 7850095 7915215 7987568 8061991 8133388 8197740 8252308 8295975 
2351.933 8329817 8355487 8375586 8392205 8406528 8418487 8427542 8432913 
2355.791 8434095 8432034 8427812 8423082 8419366 8417406 8417170 8418555 
2359.648 8420785 8422947 8424163 8422981 8418487 8410279 8398353 8384706 
2363.506 8371667 8362446 8359371 8363357 8373593 8387442 8402104 8414940 
2367.363 8425109 8433319 8442068 8453589 8469976 8491329 8517008 8545495 
2371.220 8574794 8603621 8631437 8658275 8684371 8710434 8736701 8763308 
2375.078 8790289 8817338 8844187 8870294 8894847 8917269 8937428 8955490 
2378.935 8972030 8987861 9003692 9019727 9035423 9050310 9063876 9076395 
2382.793 9088440 9101297 9116286 9133950 9154050 9175945 9198721 9221701 
2386.650 9244920 9269020 9294711 9322098 9351009 9380430 9408872 9435656 
2390.508 9460782 9484893 9509446 9535559 9563638 9593311 9623934 9654762 
2394.365 9685491 9716833 9749498 9784369 9821716 9861202 9901437 9941134 
2398.222 9979138 10014468 10046477 10074487 10097887 10115624 10127223 
2401.598 10132412 10132073 10127393 10120169 10111792 10102940 10093512 
2404.973 10083237 10071605 10059092 10046647 10035491 10026505 10020300 
2408.348 10016638 10014841 10014672 10016638 10021656 10031388 10047087 
2411.723 10069367 10098022 10131565 10168636 10208188 10250151 10294460 
2415.099 10342404 10394222 10450323 10510675 10574531 10641419 10711035 
2418.474 10782767 10855394 10927796 10997423 11062304 11120428 11170572 
2421.849 11212152 11246086 11273493 11295835 11314336 11330048 11343686 
2425.224 11355726 11366712 11376236 11383991 11389195 11391134 11389841 
2428.600 11385794 11380624 11376270 11374502 11376610 11382869 11392869 
2431.975 11405828 11421000 11437907 11456651 11477370 11499994 11524050 
2435.350 11548854 11573763 11598877 11624673 11652512 11683248 11717218 
2438.725 11753779 11791568 11829088 11865148 11899950 11934108 11968780 
2442.101 12005021 12043037 12082486 12122246 12162113 12201471 12241004 
2445.476 12281358 12323045 12365861 12408989 12450927 12490209 12525777 
2448.851 12556983 12583348 12604530 12620016 12629568 12633388 12632501 
2452.226 12629055 12625474 12624246 12627180 12634377 12645157 12657813 
2455.602 12671118 12684047 12696943 12710659 12726012 12743549 12763033 
2458.977 12784223 12806848 12831078 12857767 12888177 12923437 12963855 
2462.352 13009500 13059691 13114224 13173000 13236669 13306223 13382144 
2465.727 13464572 13552280 13643938 13737667 13832579 13928676 14026881 
2469.103 14128429 14235170 14347794 14466921 14592625 14724674 14862831 
2472.478 15007549 15159108 15318168 15485529 15662296 15849685 16049601 
2475.853 16263679 16493762 16741253 17007252 17292376 17597010 17921574 
2479.228 18266078 18631018 19016276 19421102 19844204 20283168 20734738 
2482.604 21194608 21657960 22118182 22567654 22997782 23399066 23761942 
2485.979 24078048 24339926 24542106 24681248 24755886 24766550 24715724 
2489.354 24608480 24451028 24251692 24019952 23764322 23493664 23215836 
2492.729 22936684 22661548 22394856 22140182 21901130 21680810 21481836 
2496.104 21306720 21158080 21038180 20949782 20895890 20879168 20902114 
2499.480 20966370 21072822 21222234 21415206 21652946 21937654 22271756 
2502.855 22658022 23098024 23591922 24137906 24731860 25368564 26040432 
2506.230 26737974 27450190 28162340 28856502 29513190 30109110 30621114 
2509.605 31027230 31306542 31442594 31424642 31248572 30918060 30445368 
2512.981 29850652 29158552 28397224 27595282 26776914 25962688 25167506 
2516.356 24400766 23668158 22972488 22314448 21694046 21109798 20559890 
2519.731 20041630 19551854 19088214 18648694 18232558 17840504 17473918 
2523.106 17134658 16824184 16543118 16291749 16068924 15872883 15701527 
2526.482 15552113 15421941 15308524 15210063 15125073 15053271 14994721 
2529.857 14949347 14916666 14895679 14884570 14881209 14883781 14891084 
2533.232 14902228 14916597 14933983 14953291 14973971 14994755 15015095 
2536.607 15035366 15056084 15078039 15101778 15126857 15152315 15176984 
2539.983 15199906 15221353 15242320 15264490 15289269 15317757 15349885 
2543.358 15385071 15422422 15461493 15502525 15546515 15594458 15646907 
2546.733 15704136 15765155 15828930 15894329 15960872 16028732 16098391 
2550.108 16170263 16244829 16322196 16402705 16486568 16574133 16665535 
2553.484 16760744 16859212 16959220 17059114 17157650 17254036 17348962 
2556.859 17444562 17543636 17649288 17764044 17889118 18024796 18170502 
2560.234 18324932 18486402 18654088 18827306 19006200 19191266 19383614 
2563.609 19584090 19792980 20009882 20233628 20461898 20692098 20921724 
2566.985 21148478 21370688 21587334 21797610 22000390 22194264 22376786 
2570.360 22545772 22698482 22832810 22947162 23040370 23112036 23162220 
2573.735 23191718 23202098 23195634 23175012 23143558 23104664 23061368 
2577.110 23016646 22972594 22931512 22894836 22864102 22840982 22826628 
2580.486 22822124 22828864 22848000 22880656 22928334 22992122 23073108 
2583.861 23172006 23289034 23423998 23576496 23746124 23932798 24136716 
2587.236 24357658 24595506 24849870 25119828 25404324 25702400 26012958 
2590.611 26334544 26665284 27002304 27341318 27677486 28005010 28317996 
2593.987 28611248 28879944 29119470 29325872 29495068 29623070 29707042 
2597.362 29744406 29734646 29678660 29578660 29437834 29259836 29048716 
2600.737 28808594 28543552 28258230 27957550 27646410 27329956 27012776 
2604.112 26698756 26391370 26093594 25808368 25538576 25287288 25057976 
2607.488 24854114 24678512 24533690 24421164 24341362 24293880 24277796 
2610.863 24291846 24334352 24403886 24498948 24617598 24757640 24916010 
2614.238 25088620 25270920 25457760 25644012 25825422 25999272 26163832 
2617.613 26319126 26465598 26604406 26736600 26863406 26986052 27106086 
2620.989 27225450 27345870 27469180 27596236 27726824 27859394 27991332 
2624.364 28119246 28238960 28346078 28435818 28503428 28543588 28551088 
2627.739 28520694 28447988 28329844 28164214 27950976 27691896 27390298 
2631.114 27051670 26682266 26289732 25882250 25467318 25052114 24642670 
2634.490 24243214 23857180 23486810 23132968 22796526 22477722 22176482 
2637.865 21892488 21625190 21373820 21137276 20914352 20704122 20505316 
2641.240 20317298 20139250 19970574 19810770 19659174 19515256 19378452 
2644.615 19248168 19123670 19004574 18890528 18781598 18678058 18580180 
2647.990 18488616 18403844 18326038 18255262 18191614 18135056 18086036 
2651.366 18045106 18013052 17990328 17976964 17972164 17974650 17982766 
2654.741 17994646 18009150 18025694 18044552 18066070 18090804 18119062 
2658.116 18150430 18184428 18220292 18257404 18296040 18336372 18379130 
2661.491 18425348 18475614 18530660 18590588 18655644 18725276 18799036 
2664.867 18876410 18956598 19039054 19123496 19209758 19298182 19388950 
2668.242 19482608 19579270 19679144 19782090 19887630 19995586 20105654 
2671.617 20217450 20330908 20445678 20561906 20679136 20797372 20916578 
2674.992 21036964 21158394 21281072 21405112 21530614 21658204 21788830 
2678.368 21923642 22064040 22211422 22366562 22529822 22700822 22878666 
2681.743 23062556 23251560 23445506 23644228 23848114 24057736 24274012 
2685.118 24498002 24731018 24974510 25230184 25499082 25781962 26079064 
2688.493 26390208 26715034 27053506 27406180 27774116 28158630 28561032 
2691.869 28981696 29420354 29875462 30345048 30826026 31315480 31809300 
2695.244 32302502 32789588 33262692 33713180 34131844 34508288 34832604 
2698.619 35095876 35289796 35408264 35447556 35406860 35287892 35096664 
2701.994 34841832 34533864 34185324 33809444 33418182 33023592 32635856 
2705.370 32262530 31909458 31580154 31275134 30993564 30733480 30492176 
2708.745 30267276 30057618 29862330 29681676 29515458 29363806 29226274 
2712.120 29101896 28989418 28887594 28794962 28710848 28634500 28565066 
2715.495 28502260 28446148 28396942 28355628 28323442 28301410 28290234 
2718.871 28289916 28299358 28316652 28339570 28366238 28394606 28423472 
2722.246 28452232 28480642 28508910 28537252 28566446 28597056 28629934 
2725.621 28665966 28705646 28749576 28798646 28853280 28914934 28985238 
2728.996 29065652 29157524 29261716 29377668 29504324 29639884 29782976 
2732.372 29932008 30086488 30246104 30410752 30580512 30754962 30933322 
2735.747 31115212 31300240 31488620 31680652 31876578 32076128 32278698 
2739.122 32482576 32685832 32886398 33082012 33270598 33450284 33619016 
2742.497 33774564 33915048 34038448 34143168 34228236 34292772 34336556 
2745.873 34359688 34362772 34346632 34313140 34264876 34205148 34137940 
2749.248 34067652 33997920 33932460 33874100 33824884 33786308 33759236 
2752.623 33744084 33740932 33749456 33769120 33798920 33837744 33884240 
2755.998 33936612 33992972 34050632 34107436 34160700 34208592 34249640 
2759.374 34283236 34308980 34327376 34338244 34341936 34339104 34330352 
2762.749 34317516 34303208 34290156 34281336 34279544 34286068 34301484 
2766.124 34326012 34359616 34402436 34455628 34520452 34598988 34692688 
2769.499 34802736 34929728 35073676 35234344 35411824 35605452 35815180 
2772.875 36040092 36278952 36530016 36791396 37061448 37338640 37622296 
2776.250 37912284 38208792 38512100 38822356 39139032 39460948 39786080 
2779.625 40111968 40435624 40753992 41063956 41363252 41649692 41922128 
2783.000 42179328 42420604 42644796 42851768 43041244 43213928 43371560 
2786.375 43516792 43653136 43784244 43913672 44044676 44179644 44320928 
2789.751 44470668 44630224 44801008 44983176 45175604 45375440 45578200 
2793.126 45778000 45967832 46141684 46294628 46423036 46526552 46606476 
2796.501 46667088 46713908 46754276 46796528 46848416 46918068 47012580 
2799.876 47138056 47299412 47500336 47742704 48027276 48353072 48718036 
2803.252 49118916 49552220 50014624 50502784 51013968 51546088 52096232 
2806.627 52661324 53237336 53818732 54399928 54974196 55535024 56076184 
2810.002 56591408 57075120 57522228 57928144 58288968 58602116 58865480 
2813.377 59077296 59235968 59339580 59386228 59374224 59303004 59173428 
2816.753 58988856 58754812 58477604 58164884 57824528 57463448 57088988 
2820.128 56707792 56326740 55952468 55591660 55249704 54931288 54639636 
2823.503 54376080 54141324 53934940 53756176 53604104 53478280 53378308 
2826.878 53304160 53256028 53234304 53239700 53272396 53332372 53418960 
2830.254 53530936 53666412 53823004 53999060 54192108 54400568 54622876 
2833.629 54857672 55103728 55360724 55629092 55910108 56205780 56518944 
2837.004 56852232 57208000 57588392 57994940 58429880 58896256 59397664 
2840.379 59939288 60526644 61165372 61861160 62619492 63446292 64348436 
2843.755 65334752 66414580 67598440 68894824 70308408 71836680 73466712 
2847.130 75174816 76921904 78657824 80323832 81853176 83183936 84262664 
2850.505 85050080 85528648 85702456 85596960 85251728 84718488 84055368 
2853.880 83316384 82554848 81817176 81139648 80551360 80071672 79709976 
2857.256 79468088 79340704 79318232 79387920 79536600 79752096 80021992 
2860.631 80335232 80680936 81047320 81422720 81795288 82153160 82486056 
2864.006 82784992 83043224 83257136 83426024 83553240 83644856 83710424 
2867.381 83761096 83808112 83862328 83932704 84025776 84146056 84295976 
2870.757 84475760 84684784 84920896 85180808 85460672 85756664 86064944 
2874.132 86382408 86706344 87034080 87362176 87687000 88003872 88308584 
2877.507 88598528 88873256 89135576 89391016 89647504 89914168 90199832 
2880.882 90513240 90861296 91249296 91680928 92157600 92678352 93240312 
2884.258 93838648 94467584 95120736 95791856 96475304 97165304 97856232 
2887.633 98542448 99218040 99878712 100521480 101145752 101753408 102348208 
2891.008 102934416 103515816 104095648 104676248 105259480 105847728 
2893.901 106443968 107051504 107674112 108314752 108976144 109660280 
2896.794 110369224 111105416 111871456 112669560 113500280 114361528 
2899.687 115248888 116155176 117071600 117989560 118900544 119797200 
2902.580 120673088 121521912 122337656 123115384 123850920 124542672 
2905.473 125190720 125797224 126365528 126899304 127401832 127876504 
2908.366 128326776 128757712 129175352 129587280 130001680 130425128 
2911.260 130862592 131315648 131781624 132253200 132718296 133160832 
2914.153 133559960 133892384 134136704 134273776 134291872 134188696 
2917.046 133971408 133654968 133258000 132800656 132298768 131761464 
2919.939 131191344 130584376 129932496 129225760 128456712 127621976 
2922.832 126725064 125776288 124793368 123799544 122819144 121876664 
2925.725 120993048 120182744 119454440 118810368 118248248 117761848 
2928.618 117342848 116982056 116669080 116394264 116148592 115924648 
2931.511 115717728 115525184 115346544 115182320 115032448 114895368 
2934.404 114768512 114646920 114525352 114398000 114259400 114104072 
2937.297 113927136 113723968 113490640 113225320 112928400 112602560 
2940.190 112252688 111884616 111503712 111113032 110714032 110305744 
2943.083 109886056 109452368 109002112 108532848 108042160 107527792 
2945.976 106987960 106422256 105832800 105224608 104606680 103989624 
2948.869 103386736 102811256 102275744 101792320 101372576 101026904 
2951.762 100765952 100599288 100534216 100575064 100721864 100969536 
2954.656 101307048 101717896 102180352 102666936 103148472 103594128 
2957.549 103974216 104266512 104456032 104539608 104524096 104426784 
2960.442 104271480 104082968 103886200 103701560 103542728 103417336 
2963.335 103326160 103264376 103221344 103183096 103133856 103057136 
2966.228 102939368 102770656 102546120 102266224 101936224 101565064 
2969.121 101163520 100743800 100318432 99898568 99493984 99112168 98757264 
2972.496 98430416 98129560 97850464 97587640 97335576 97089224 96843960 
2975.871 96595680 96340896 96076008 95798424 95506776 95201264 94883632 
2979.247 94557456 94227128 93897496 93573304 93259856 92962032 92685328 
2982.622 92435320 92216640 92032672 91884400 91769904 91685144 91623440 
2985.997 91578352 91542632 91509544 91473096 91426472 91362552 91273656 
2989.372 91150736 90985040 90768512 90494712 90160320 89765672 89315464 
2992.748 88818360 88286544 87734360 87175472 86622120 86082440 85559880 
2996.123 85053472 84559568 84073624 83591192 83110112 82630592 82154600 
2999.498 81684824 81224376 80775504 80340024 79919184 79514120 79125928 
3002.873 78755568 78403496 78070032 77754456 77455384 77171128 76899680 
3006.249 76638552 76385208 76136904 75890520 75643096 75391784 75134080 
3009.624 74868152 74592584 74306336 74008656 73698920 73377056 73043232 
3012.999 72698344 72344256 71983272 71618240 71252648 70889992 70534032 
3016.374 70188600 69856824 69541328 69243272 68962008 68695176 68439080 
3019.750 68188968 67939920 67687648 67428400 67158824 66876432 66578196 
3023.125 66261216 65922984 65561116 65174528 64763212 64328224 63871876 
3026.500 63396560 62904760 62398828 61880684 61351864 60813356 60265888 
3029.875 59709864 59145100 58571212 57987856 57394884 56792600 56181684 
3033.250 55563340 54939220 54311532 53682124 53053584 52428500 51809612 
3036.626 51199772 50601432 50016816 49447428 48894400 48358076 47838500 
3040.001 47335216 46847680 46374960 45916196 45470424 45037164 44616088 
3043.376 44207012 43809864 43424468 43049988 42685004 42328144 41977856 
3046.751 41633136 41293824 40960540 40634560 40316644 40007500 39706780 
3050.127 39413636 39126852 38845688 38569852 38299692 38035848 37778812 
3053.502 37528292 37283760 37043948 36807628 36574096 36343396 36115984 
3056.877 35892980 35675336 35463736 35258204 35058840 34865420 34677716 
3060.252 34496020 34320384 34150984 33987672 33830400 33678700 33532280 
3063.628 33391024 33254788 33123526 32996920 32874424 32755320 32638642 
3067.003 32523602 32409522 32296364 32184236 32073952 31966302 31862390 
3070.378 31763346 31670422 31584110 31505256 31434082 31370894 31315730 
3073.753 31269186 31231800 31204100 31186336 31177898 31177650 31183346 
3077.129 31192104 31201928 31210652 31217274 31221652 31224038 31224680 
3080.504 31223362 31219588 31212254 31200648 31184306 31163304 31138064 
3083.879 31109018 31076414 31040182 31000220 30956344 30909128 30859216 
3087.254 30807922 30756420 30705208 30654464 30603584 30551574 30497756 
3090.630 30441598 30382928 30321882 30258572 30192570 30123564 30050978 
3094.005 29974644 29894594 29811862 29727550 29642830 29558762 29476024 
3097.380 29394578 29314140 29234282 29154548 29074792 28994802 28915004 
3100.755 28835470 28756974 28680230 28605904 28534740 28467622 28405326 
3104.131 28348484 28297554 28252926 28214880 28183376 28158310 28139750 
3107.506 28127378 28121580 28122604 28131230 28148518 28175244 28211698 
3110.881 28257948 28313150 28376250 28445722 28520198 28598296 28678778 
3114.256 28759842 28839718 28916456 28987752 29051800 29107704 29154796 
3117.632 29193386 29223650 29245696 29259164 29263240 29256790 29239422 
3121.007 29211282 29173436 29127512 29075536 29019528 28960940 28901264 
3124.382 28841878 28783564 28727664 28675416 28627458 28584280 28546028 
3127.757 28512238 28482482 28456018 28432350 28411054 28391246 28371934 
3131.133 28352162 28330658 28306716 28280156 28251122 28220042 28187372 
3134.508 28152972 28116312 28076264 28031762 27981650 27925534 27863456 
3137.883 27796124 27724456 27649764 27573462 27496608 27420472 27345906 
3141.258 27273500 27203330 27135500 27069408 27005056 26942368 26881592 
3144.634 26823294 26767858 26715458 26665566 26617336 26570062 26523040 
3148.009 26476550 26431582 26389962 26353874 26325214 26304868 26292688 
3151.384 26287196 26285894 26286350 26286104 26283570 26278572 26271778 
3154.759 26265196 26261008 26260760 26265478 26274700 26287232 26301346 
3158.135 26315674 26329722 26344050 26360174 26379752 26403658 26432074 
3161.510 26463732 26496624 26529134 26559600 26588414 26616420 26645414 
3164.885 26676842 26711406 26748474 26787240 26826042 26863758 26899676 
3168.260 26934012 26966940 26999378 27031676 27064224 27097444 27131410 
3171.635 27166504 27202908 27240512 27278792 27317076 27354372 27389768 
3175.011 27422768 27452838 27480052 27504374 27526014 27544900 27561494 
3178.386 27576144 27589880 27603720 27619010 27636380 27656192 27678368 
3181.761 27702278 27727564 27753948 27781816 27811420 27843566 27878470 
3185.136 27916524 27957408 28000874 28046078 28092522 28139114 28185002 
3188.512 28229518 28272446 28313930 28355098 28397544 28443070 28493096 
3191.887 28548152 28607816 28671204 28736726 28803000 28869392 28935936 
3195.262 29003446 29072382 29143774 29218052 29295104 29374796 29456806 
3198.637 29540958 29626936 29714742 29804090 29894664 29986500 30079420 
3202.013 30173320 30268092 30363348 30458444 30552746 30645610 30736682 
3205.388 30826132 30914430 31002318 31089904 31176474 31260998 31341832 
3208.763 31417482 31487196 31551148 31610370 31666252 31719856 31771940 
3212.138 31822204 31870410 31916268 31959992 32002114 32044240 32087150 
3215.514 32131784 32177598 32224168 32270168 32314640 32357116 32397744 
3218.889 32437048 32475966 32515354 32555814 32597746 32641072 32685690 
3222.264 32731168 32777224 32823604 32870386 32917422 32965354 33014548 
3225.639 33065602 33118558 33173346 33229500 33286694 33344832 33404298 
3229.015 33465530 33529416 33596356 33666600 33739684 33815180 33892584 
3232.390 33971688 34052996 34136824 34223576 34313036 34404588 34496812 
3235.765 34588404 34678260 34765760 34851024 34934720 35017928 35101372 
3239.140 35185836 35271428 35358044 35444896 35531012 35614768 35694364 
3242.516 35768404 35835688 35896036 35950024 35999124 36044660 36087792 
3245.891 36128732 36167012 36201944 36232772 36259392 36282408 36303156 
3249.266 36323296 36344044 36366596 36391384 36418808 36449324 36483596 
3252.641 36522264 36565484 36613532 36665840 36721332 36779244 36838676 
3256.017 36899240 36960856 37023416 37086388 37149364 37211412 37272208 
3259.392 37331528 37390064 37448392 37507844 37568716 37631220 37695324 
3262.767 37760380 37826020 37891892 37957916 38023552 38088292 38151196 
3266.142 38211004 38266980 38319196 38367768 38413704 38458012 38501348 
3269.518 38543744 38585208 38625004 38663032 38699000 38732836 38764424 
3272.893 38793116 38818296 38838840 38854096 38864384 38870548 38874464 
3276.268 38877432 38881200 38886056 38892000 38898304 38904320 38909612 
3279.643 38914392 38919036 38924144 38929904 38936212 38942376 38947808 
3283.019 38951908 38954152 38954660 38953608 38951180 38947412 38942592 
3286.394 38936900 38930340 38923344 38915808 38908128 38900296 38892324 
3289.769 38884316 38876488 38868880 38862104 38856128 38851124 38847572 
3293.144 38845180 38844312 38844892 38846744 38849352 38851848 38852900 
3296.520 38851344 38846160 38837068 38824348 38808804 38791268 38772324 
3299.895 38752288 38731208 38709036 38686400 38664412 38644744 38629064 
3303.270 38618416 38613056 38611968 38613492 38615372 38616024 38614288 
3306.645 38610156 38604364 38598280 38593028 38589880 38589736 38592884 
3310.021 38599692 38610048 38623848 38641232 38661984 38686468 38715156 
3313.396 38748192 38785508 38826740 38870256 38914360 38956652 38995724 
3316.771 39030704 39061844 39090592 39119200 39149764 39184356 39224216 
3320.146 39269404 39319928 39374780 39432828 39492992 39554032 39614572 
3323.521 39674000 39731616 39787680 39842116 39895472 39947812 39998672 
3326.897 40047504 40093144 40135080 40173204 40208096 40241136 40273672 
3330.272 40306540 40339916 40373004 40404496 40432788 40456572 40474536 
3333.647 40485776 40489924 40486432 40475408 40457152 40432640 40402932 
3337.022 40369952 40334824 40298616 40261496 40223036 40182944 40140240 
3340.398 40094816 40046448 39994820 39939604 39879996 39814988 39743996 
3343.773 39666632 39583396 39495424 39404240 39311224 39217652 39124132 
3347.148 39030956 38938496 38846852 38756200 38666404 38577456 38488384 
3350.523 38398172 38305516 38209300 38109272 38005504 37899052 37791572 
3353.899 37684700 37580096 37478908 37381904 37288632 37198056 37108904 
3357.274 37019668 36929072 36837056 36743976 36651276 36560472 36472712 
3360.649 36388432 36306796 36225968 36143856 36058808 35969856 35877360 
3364.024 35782472 35687064 35593188 35502388 35415852 35334072 35256804 
3367.400 35183356 35112152 35041672 34969876 34895292 34817132 34735432 
3370.775 34651164 34565832 34480740 34396912 34313856 34231176 34148116 
3374.150 34064356 33980184 33896884 33815536 33736924 33660724 33585756 
3377.525 33510230 33432890 33353168 33271492 33189796 33109724 33032384 
3380.901 32957778 32884680 32811564 32736492 32658398 32577242 32493786 
3384.276 32409344 32325204 32242082 32160434 32080446 32001864 31924504 
3387.651 31848944 31775110 31703428 31633750 31565792 31498666 31431622 
3391.026 31363346 31293080 31220406 31145218 31068548 30991572 30915782 
3394.402 30842566 30772352 30705208 30640490 30577170 30514676 30452652 
3397.777 30391598 30331794 30273634 30216440 30159044 30099626 30036528 
3401.152 29968644 29895908 29819528 29740964 29661986 29583838 29507230 
3404.527 29432054 29357920 29284542 29211282 29137644 29062994 28986514 
3407.903 28907568 28825838 28741646 28656126 28570622 28486620 28404760 
3411.278 28324892 28245714 28165630 28083084 27996988 27907620 27816152 
3414.653 27724350 27633944 27546770 27463958 27386028 27312384 27241642 
3418.028 27171726 27100022 27023426 26940288 26850012 26754044 26655348 
3421.404 26557734 26464506 26377884 26297758 26222570 26149616 26076670 
3424.779 26001734 25924596 25846134 25766666 25687282 25607706 25527720 
3428.154 25446658 25364734 25282334 25200584 25120496 25042248 24965526 
3431.529 24889132 24812154 24734174 24655296 24577062 24500596 24427158 
3434.905 24356992 24289780 24224400 24159626 24094722 24029790 23964870 
3438.280 23900378 23836004 23771146 23704062 23633310 23557430 23476352 
3441.655 23390638 23302286 23213810 23127062 23043620 22963264 22884638 
3445.030 22805188 22722294 22633692 22538894 22439060 22336878 22235764 
3448.406 22138858 22047864 21962536 21881338 21801686 21720866 21637448 
3451.781 21551016 21462236 21372464 21282674 21193078 21103154 21011888 
3455.156 20918732 20823510 20726886 20630664 20536128 20444776 20357158 
3458.531 20273066 20191452 20111070 20030526 19948404 19863730 19776230 
3461.906 19685766 19593032 19499140 19405338 19312906 19222848 19135372 
3465.282 19050372 18967156 18884506 18801632 18717320 18630810 18541518 
3468.657 18448994 18353414 18255676 18157548 18060820 17967640 17879658 
3472.032 17796904 17718620 17642594 17566578 17488268 17406210 17320098 
3475.407 17230524 17138658 17045880 16953226 16862176 16773384 16687639 
3478.783 16605390 16526356 16449641 16373906 16297838 16220821 16143199 
3482.158 16066242 15991982 15921963 15856009 15792780 15729010 15660990 
3485.533 15585357 15500465 15406732 15306190 15202033 15097318 14994823 
3488.908 14896536 14803655 14717339 14637996 14565761 14499842 14438009 
3492.284 14377212 14313616 14244209 14167246 14082906 13993208 13901271 
3495.659 13809935 13721902 13638400 13559596 13485763 13416385 13351050 
3499.034 13289482 13230691 13172966 13114464 13052896 12987001 12916611 
3502.409 12842853 12767844 12694043 12623598 12557700 12496586 12439572 
3505.785 12385157 12331396 12276416 12218102 12154752 12085519 12010880 
3509.160 11932406 11852753 11775158 11702003 11634883 11573559 11516496 
3512.535 11461720 11407597 11353107 11298250 11243434 11189270 11135793 
3515.910 11082867 11029981 10976558 10923243 10870853 10820676 10774071 
3519.286 10731242 10691439 10653236 10614323 10572731 10527037 10476900 
3522.661 10422594 10365004 10305284 10244689 10184205 10124578 10065976 
3526.036 10008433 9950727 9891403 9828833 9761494 9688711 9611332 9530987 
3529.894 9450555 9373286 9301854 9238251 9183323 9136150 9095037 9057380 
3533.751 9020302 8980825 8936852 8887068 8831203 8770442 8706816 8642828 
3537.608 8580505 8521536 8466394 8414636 8365722 8318840 8273787 8230696 
3541.466 8190009 8151754 8115833 8080557 8043629 8001743 7952572 7893789 
3545.323 7825164 7748859 7668857 7590320 7518304 7456816 7407370 7368612 
3549.181 7336362 7305528 7270486 7226922 7173123 7110505 7042947 6975937 
3553.038 6915132 6864333 6824749 6795366 6772783 6753095 6731995 6705949 
3556.896 6672570 6630816 6580589 6522732 6458930 6391506 6323454 6258001 
3560.753 6198641 6148497 6109717 6083306 6068588 6062843 6061129 6056862 
3564.610 6042549 6011707 5959099 5884498 5791374 5688299 5586692 5496249 
3568.468 5424378 5373250 5340409 5320552 5307303 5295731 5282013 5264640 
3572.325 5243913 5221043 5197334 5173358 5149217 5124205 5097417 5067983 
3576.183 5035165 4998797 4958812 4916084 4871282 4825479 4779714 4735227 
3580.040 4693190 4654440 4620481 4592519 4571859 4559201 4554681 4556891 
3583.897 4562550 4566903 4563822 4546846 4510820 4453372 4375817 4284153 
3587.755 4187357 4095933 4018408 3959688 3921169 3900006 3891614 3889943 
3591.612 3889976 3887101 3878275 3862295 3839329 3811451 3780767 3749951 
3595.470 3721177 3695511 3672822 3652238 3632391 3611241 3587754 3561195 
3599.327 3531531 3499597 3466764 3434568 3404779 3378498 3356560 3339196 
3603.185 3326642 3318495 3314589 3313754 3314455 3314021 3308946 3295892 
3607.042 3272022 3236869 3192273 3142075 3091949 3046133 3006561 2972097 
3610.899 2939271 2903278 2860851 2811191 2757102 2704787 2660579 2631043 
3614.757 2619175 2624275 2641777 2664779 2685116 2694218 2685149 2654078 
3618.614 2601475 2532448 2455601 2381466 2319069 2273535 2246023 2234300 
3622.472 2234066 2241327 2254183 2272469 2297350 2329662 2367206 2404221 
3626.329 2430810 2433809 2400756 2325032 2210187 2073267 1938685 1831363 
3630.187 1764221 1736975 1738772 1755239 1773936 1786080 1789174 1785348 
3634.044 1779492 1776564 1779692 1788708 1801318 1813762 1822779 1826605 
3637.901 1825041 1818686 1808205 1793898 1775001 1750615 1720409 1685348 
3641.759 1648295 1613506 1585338 1568079 1563856 1572668 1592089 1617896 
3645.616 1644304 1665856 1676334 1671511 1647896 1603995 1540712 1461846 
3649.474 1374651 1288770 1215664 1165760 1144996 1154232 1188585 1238758 
3653.331 1292691 1338289 1365311 1367704 1344737 1302528 1252348 1206328 
3657.188 1173468 1157588 1155860 1162405 1170212 1173800 1169947 1157853 
3661.046 1139116 1116427 1092709 1070886 1053514 1043018 1041324 1050292 
3664.903 1071218 1104003 1147289 1197689 1249889 1296613 1329648 1341779 
3668.761 1329581 1297045 1256901 1230118 1237561 1294918 1406063 1562758 
3672.618 1747488 1937055 2107759 2234766 2298683 2291688 2220578 2105329 
3676.476 1969439 1830931 1696691 1565851 1434818 1303293 1175495 1059825 
3680.333 964475 894977 850953 827282 816228 811414 810087 813207 823797 
3684.673 843915 872267 903676 929509 940666 930438 897666 848098 792194 
3689.012 741410 703806 681505 671549 669093 669724 672213 676859 684724 
3693.352 696273 710378 724616 736265 743501 746588 748114 751898 761491 
3697.691 778352 801223 825822 845973 855700 850289 828378 792128 747451 
3702.031 702313 664182 638630 628742 634250 653298 682766 719803 761922 
3706.371 807298 854505 901916 947506 988319 1020367 1038767 1038701 1016814 
3710.710 972644 909487 835715 762254 699824 657213 637701 640157 659337 
3715.050 688607 721363 752529 780112 803846 825689 847633 871072 895707 
3719.389 919116 938109 949465 951325 943455 928048 907926 886411 865262 
3723.729 844944 824096 801223 775432 748048 722823 705897 703640 720567 
3728.069 758271 813074 878509 944750 1001736 1041524 1059493 1056304 1036874 
3732.408 1009441 980282 951557 920577 881663 830204 766569 697999 636739 
3736.748 595694 582356 597851 636805 691793 755715 824461 896139 969456 
3741.087 1040162 1100548 1136890 1132838 1075403 962283 811946 660764 553160 
3745.427 517895 558236 654724 778718 902348 1002566 1066169 1088656 1075536 
3749.767 1037073 985861 931335 878542 830536 790568 763051 752861 762453 
3754.106 790170 830005 874126 915065 946709 966766 975766 976131 970187 
3758.446 959328 944119 925491 906266 891291 886444 895309 918120 950528 
3762.785 985031 1013924 1031759 1037903 1036409 1034748 1040461 1057467 
3766.643 1084305 1114434 1139050 1150711 1144963 1122772 1089254 1052617 
3770.500 1020467 997916 986559 985064 990411 999245 1009108 1018507 1027275 
3774.840 1036210 1046307 1058530 1072879 1088191 1101545 1109783 1109849 
3778.697 1100615 1083840 1064143 1047137 1037372 1036376 1042520 1051588 
3782.555 1058397 1059160 1052684 1040494 1026312 1013891 1005555 1001769 
3786.412 1001271 1001968 1002998 1004492 1007714 1013824 1022858 1034250 
3790.270 1046207 1057301 1067199 1076366 1086663 1098555 1111112 1120845 
3794.127 1123237 1114434 1093838 1065006 1036741 1020400 1024851 1054245 
3797.984 1104900 1166890 1225267 1264212 1270957 1240020 1176458 1096463 
3801.842 1023556 978954 973541 1005090 1061718 1125695 1178385 1204700 
3805.699 1196692 1155495 1092709 1026213 975334 951690 957236 986027 1028471 
3810.039 1075635 1122240 1167123 1211943 1258263 1305752 1349889 1382795 
3813.896 1395725 1381764 1340516 1280761 1219917 1178485 1171043 1201742 
3817.754 1262783 1338189 1408058 1454532 1464273 1432690 1366541 1283718 
3821.611 1207856 1158219 1143967 1162006 1200978 1245802 1282821 1303426 
3825.469 1304888 1290664 1269063 1250122 1241649 1246600 1263015 1285513 
3829.326 1307812 1324829 1334500 1337857 1339220 1342942 1353445 1372923 
3833.183 1401509 1436713 1474513 1510022 1537121 1549890 1543838 1516805 
3837.041 1470457 1410916 1348326 1293489 1254442 1235235 1234272 1246135 
3840.898 1263813 1280196 1290199 1290730 1281392 1263780 1241516 1218721 
3844.756 1199849 1189084 1188951 1201178 1225666 1261752 1307846 1363051 
3848.613 1426341 1496755 1572003 1647364 1714454 1760762 1771873 1733416 
3852.470 1638516 1493996 1324363 1163701 1042753 977161 965172 994263 
3856.328 1048532 1115364 1185230 1252116 1312864 1365078 1406761 1436879 
3860.185 1454864 1462079 1461115 1455230 1446753 1436414 1422717 1404168 
3864.043 1381498 1358829 1344072 1345468 1368801 1413177 1470623 1527245 
3867.900 1568511 1582046 1563025 1517370 1461247 1415072 1393564 1401509 
3871.758 1431327 1469559 1501277 1515807 1510055 1489008 1462777 1443096 
3875.615 1438940 1453102 1482060 1518467 1553448 1578887 1588464 1580051 
3879.472 1555908 1523122 1491801 1472219 1472584 1494461 1533895 1581181 
3883.330 1624082 1650324 1650856 1623949 1577024 1525250 1485750 1473017 
3887.187 1491735 1537221 1597743 1658971 1707435 1732950 1731320 1704674 
3891.045 1661433 1612542 1569309 1539249 1525516 1527411 1541776 1565419 
3894.902 1595182 1628738 1664193 1699285 1731686 1758932 1778827 1790006 
3898.760 1793067 1789773 1783285 1776564 1770609 1764554 1755139 1738539 
3902.617 1711726 1674272 1629038 1581979 1540346 1510421 1495193 1494827 
3906.474 1506132 1524951 1547229 1569941 1591623 1611810 1630368 1647696 
3910.332 1663861 1678829 1693431 1708500 1725299 1744227 1764588 1784084 
3914.189 1799255 1806409 1802948 1788941 1766983 1741932 1719777 1705173 
3918.047 1700350 1704940 1716650 1732484 1750216 1768413 1786912 1805344 
3921.904 1823411 1839316 1851062 1856652 1855155 1847235 1835057 1821747 
3925.761 1810468 1803447 1801484 1804179 1810501 1818986 1828535 1837852 
3929.619 1846171 1852293 1855521 1855022 1850796 1843143 1833759 1823843 
3933.476 1815059 1808471 1804179 1802482 1803214 1806542 1812764 1822479 
3937.334 1835889 1852526 1871527 1890861 1908400 1921778 1929333 1929999 
3941.191 1924308 1913392 1899814 1886735 1877184 1873424 1876552 1885370 
3945.049 1897684 1910330 1919682 1923076 1919449 1909298 1894921 1879613 
3948.906 1866669 1858815 1857451 1862409 1872592 1885970 1900146 1912892 
3952.763 1922244 1926904 1926404 1921046 1912060 1901378 1891261 1883474 
3956.621 1879048 1878582 1881111 1885836 1891793 1898283 1905072 1912560 
3960.478 1920913 1930232 1940250 1950168 1959155 1966377 1971137 1973367 
3964.336 1972968 1970338 1965778 1960086 1954162 1949036 1945875 1945642 
3968.193 1948404 1953663 1960086 1965911 1969606 1969839 1966044 1958755 
3972.051 1949203 1938552 1928668 1920780 1916387 1916454 1921312 1931197 
3975.908 1944843 1960453 1975231 1986748 1992673 1992673 1987147 1978393 
3979.765 1969240 1961884 1957956 1957324 1958888 1961152 1962816 1963315 
3983.623 1963149 1963249 1964480 1966976 1970039 1972235 1972102 1968907 
3987.480 1962949 1955160 1947306 1941348 1938319 1939085 1943445 1951133 
3991.338 1961950 1975597 1991741 2009716 2028257 2045302 2058718 2066275 
3995.195 2066974 2060782 2049430 2035548 2022398 2012578 2008351 2010348 
3999.052 2017938 2029889 2044103 2058452 
##END=
