
##TITLE=Z382_1_e
##JCAMP-DX=5.01  $$ Nicolet v. 1
##DATATYPE=INFRARED SPECTRUM
##ORIGIN=UniL
##OWNER=Nicolet
##LONGDATE=2011/09/09
##TIME=10:01:28
##SPECTROMETER/DATA SYSTEM=Nicolet iS5
##DATA PROCESSING=
Ratio against background
%Transmittance->Absorbance
Truncated
ElementMultiply or ElementDivide
##COMMENTS=
Number of sample scans: 32
Collection length: 51.18 sec
Sample gain: 2.0
Background collected on: Ven Sep 09 09:51:57 2011 (GMT+02:00);
Number of background scans: 32
Background gain: 2.0
Sample spacing:  1.000
Number of scan points: 12415
Resolution points: 8192
Number of FFT points: 65536
Apodization: N-B fort;
Phase correction: Mertz;
Laser frequency: 15798.0 cm-1
Number of rejected sample scans: 0
Number of rejected background scans: 0
Bench serial number: ASB1000141;
##RESOLUTION=4.000
##XUNITS=1/CM
##YUNITS=ABSORBANCE
##FIRSTX=649.893372
##LASTX=4000.122314
##FIRSTY=0.069395
##MAXX=4000.122314
##MINX=649.893372
##MAXY=0.201532
##MINY=-0.000106
##XFACTOR=1.000000
##YFACTOR=1.000000E-009
##NPOINTS=6950
##DELTAX=0.482117
##ZPD=6100
##XYDATA=(X++(Y..Y))
649.893 69395208 69502792 69670840 69905352 70185472 70475880 70745056 
653.268 70984288 71212520 71468376 71789616 72194968 72677976 73210856 
656.643 73758960 74294592 74807688 75299440 75775344 76233768 76665072 
660.018 77056216 77401216 77707896 77996864 78293680 78620408 78987680 
663.393 79396744 79845664 80337104 80878840 81474792 82110096 82730920 
666.767 83229848 83471712 83341032 82811096 81966168 80956400 79921176 
670.142 78934824 78009160 77112992 76203320 75248024 74241784 73203248 
673.517 72165032 71154160 70181000 69240208 68320520 67416904 66538304 
676.892 65703908 64934404 64239396 63612780 63035532 62484028 61944500 
680.267 61417276 60916812 60461096 60062736 59721272 59424828 59155812 
683.642 58900844 58656880 58430676 58231752 58065416 57927352 57804428 
687.016 57682412 57552112 57415116 57281188 57162984 57065636 56983912 
690.391 56902280 56802684 56673284 56513844 56334512 56151780 55979496 
693.766 55823212 55680316 55544780 55412440 55286428 55174376 55084916 
697.141 55020676 54975288 54936180 54888124 54822444 54739224 54647528 
700.516 54558592 54480532 54414800 54357492 54303720 54252700 54209900 
703.890 54183512 54179908 54196536 54221124 54235504 54224728 54182872 
707.265 54117488 54045060 53985136 53950056 53942256 53956660 53987536 
710.640 54036768 54117640 54252360 54464152 54770872 55176636 55671392 
714.015 56232708 56831308 57430848 57988276 58458536 58795292 58965776 
717.390 58967788 58844464 58688928 58619408 58758228 59179196 59873296 
720.765 60732640 61567724 62160844 62304240 61874192 60853952 59332364 
724.139 57468896 55450312 53456804 51615828 50002724 48643464 47527320 
727.514 46625108 45900504 45320632 44854460 44474780 44160244 43892484 
730.889 43658012 43448488 43257156 43077684 42904944 42733516 42561608 
734.264 42391448 42229024 42081224 41953368 41845864 41754700 41673616 
737.639 41596928 41522580 41452952 41392004 41342000 41301992 41266536 
741.013 41229628 41186708 41137604 41085772 41036280 40992144 40952308 
744.388 40912984 40870792 40826128 40785108 40757632 40752716 40774624 
747.763 40819284 40875996 40931192 40975468 41005796 41027540 41048844 
751.138 41077468 41116368 41162848 41211772 41259976 41308548 41362300 
754.513 41426524 41502384 41584308 41661180 41721324 41757252 41770568 
757.888 41771076 41774508 41795192 41842660 41920524 42027020 42159716 
761.262 42317152 42499816 42707412 42937608 43185052 43443400 43710956 
764.637 43993596 44307648 44676824 45124100 45668992 46321724 47084472 
768.012 47957520 48947172 50072844 51376624 52925300 54812712 57168240 
771.387 60138688 63876556 68510424 74088856 80526632 87537088 94645456 
774.762 101160720 106268776 109241352 109533072 106971304 101790936 94594576 
778.136 86198840 77419112 69010904 61509652 55204436 50187720 46380084 
781.511 43607524 41649000 40298432 39383920 38770292 38369832 38125080 
784.886 38000044 37973320 38029700 38155904 38340296 38571624 38841740 
788.261 39147372 39490412 39877380 40316248 40814444 41376112 42002236 
791.636 42692244 43446328 44266884 45159428 46130152 47185448 48331296 
795.010 49574728 50926224 52404312 54034028 55847552 57882676 60176288 
798.385 62768668 65705060 69036856 72831200 77167448 82125584 87777024 
801.760 94156376 101239824 108912736 116958936 125065776 132798672 139667056 
805.135 145171024 148842848 150369760 149643600 146802656 142198544 
808.028 136349552 129866320 123312120 117193616 111900824 107660488 
810.920 104565152 102559384 101469040 101007464 100818728 100543112 99826008 
814.295 98398744 96116800 92958752 89027944 84511784 79656152 74704056 
817.670 69870984 65335564 61211492 57560396 54397336 51700988 49426748 
821.045 47516784 45915164 44568244 43431280 42471896 41664720 40990872 
824.420 40436020 39987160 39633412 39367524 39185988 39089796 39083816 
827.794 39174752 39368832 39669784 40077696 40588176 41192540 41876372 
831.169 42620816 43402056 44192924 44968768 45709376 46401872 47040416 
834.544 47619116 48124288 48528808 48786504 48839296 48632936 48127024 
837.919 47313968 46221724 44914568 43476652 41995704 40555072 39215440 
841.294 38014616 36971136 36086680 35353048 34756788 34282988 33915692 
844.669 33639352 33440548 33307518 33231110 33204674 33222236 33277504 
848.043 33364438 33476088 33607416 33755760 33921136 34105500 34310524 
851.418 34536736 34782672 35046732 35328932 35632176 35962584 36327400 
854.793 36733048 37182208 37674116 38205792 38774968 39382688 40033952 
858.168 40737616 41504172 42344216 43269528 44294992 45441212 46739036 
861.543 48229648 49961684 51992612 54380064 57175648 60420540 64128892 
864.917 68274296 72763568 77432856 82027992 86206872 89607592 91870232 
868.292 92717280 92025136 89839136 86377032 81961768 76992672 71861896 
871.667 66886640 62316288 58297264 54885604 52072884 49804948 48006292 
875.042 46590948 45480948 44610472 43924560 43384592 42962336 42637228 
878.417 42394700 42222892 42111636 42053772 42044392 42081332 42164172 
881.792 42293520 42468792 42688988 42952164 43257268 43603716 43992756 
885.166 44426072 44904756 45428924 45997924 46611864 47273588 47990232 
888.541 48774232 49645712 50630508 51761752 53079644 54623140 56424264 
891.916 58493184 60805392 63286036 65806412 68204704 70289168 71882656 
895.291 72860080 73157760 72790992 71835152 70412280 68656088 66692224 
898.666 64636612 62581680 60602828 58764752 57114916 55686308 54494880 
902.040 53537984 52798248 52249796 51867036 51627804 51516688 51523852 
905.415 51640680 51857996 52166280 52556036 53021612 53562156 54180772 
908.790 54882636 55671428 56550344 57522716 58594876 59780772 61099500 
912.165 62574872 64230524 66084372 68147296 70423384 72911688 75607752 
915.540 78501848 81577624 84804920 88137960 91519896 94878600 98133968 
918.914 101201040 103974384 106328872 108121888 109189240 109386504 
921.807 108623856 106900224 104327976 101128936 97620288 94138352 91012904 
925.182 88527992 86873656 86163480 86431936 87649376 89731904 92548064 
928.557 95935640 99684384 103556736 107316736 110722712 113566080 115686072 
931.932 116958632 117308720 116705880 115166504 112762296 109628000 
934.824 105976440 102072416 98229424 94793440 92077400 90363648 89873048 
938.199 90733840 92987720 96568784 101309096 106905896 112927328 118863864 
941.574 124108440 128066864 130261448 130368304 128313424 124267824 
944.467 118627672 111911200 104664648 97411792 90545568 84330128 78910272 
947.841 74318024 70515080 67418760 64933172 62957844 61400372 60185612 
951.216 59248196 58535496 58008532 57634776 57389740 57255480 57216732 
954.591 57261340 57379080 57559792 57794816 58076212 58396824 58750676 
957.966 59132272 59536580 59958952 60395256 60841792 61296876 61760040 
961.341 62231920 62714040 63207500 63712648 64228720 64754248 65287732 
964.716 65828428 66376164 66931092 67492568 68059032 68628416 69198352 
968.090 69767832 70337984 70912152 71494896 72090672 72703328 73335272 
971.465 73988304 74664552 75367824 76102520 76873656 77685304 78538616 
974.840 79432552 80364376 81331248 82331392 83364400 84429920 85526512 
978.215 86649712 87792192 88944120 90095896 91238016 92362240 93460664 
981.590 94524176 95541536 96501456 97393960 98213728 98961664 99644624 
984.964 100273184 100857264 101404336 101918240 102399752 102849712 
987.857 103269920 103663616 104035016 104386040 104716472 105023400 
990.750 105304408 105559904 105795216 106020176 106246848 106487456 
993.643 106750552 107040952 107361112 107712408 108096808 108516848 
996.535 108973632 109465240 109985496 110525264 111074608 111625968 
999.428 112176880 112728920 113286560 113853744 114432928 115024552 
1002.321 115629688 116251512 116897224 117576080 118298320 119071456 
1005.213 119899768 120786328 121735872 122758296 123871768 125099656 
1008.106 126470240 128013608 129756760 131726992 133947464 136432384 
1010.999 139176464 142137920 145228432 148292000 151119008 153478208 
1013.891 155135952 155925824 155782896 154762976 153029856 150821136 
1016.784 148414736 146055712 143940144 142196784 140877552 139979056 
1019.677 139457744 139255296 139308448 139562096 139977584 140528224 
1022.570 141199984 141987456 142888640 143901424 145021648 146242240 
1025.462 147555072 148953024 150431456 151987632 153619728 155324016 
1028.355 157093424 158918624 160789136 162696752 164637168 166609264 
1031.249 168612960 170646064 172702592 174773408 176849184 178922608 
1034.142 180991008 183054400 185111968 187158128 189179264 191154512 
1037.035 193059024 194863744 196539776 198054976 199367568 200427136 
1039.928 201172016 201532064 201442480 200848832 199712736 198017776 
1042.821 195765264 192974080 189678048 185929424 181799728 177372368 
1045.714 172746624 168024096 163294928 158641856 154129056 149803280 
1048.607 145701008 141847296 138258048 134941664 131896792 129113344 
1051.500 126572848 124252568 122128800 120177720 118379776 116716720 
1054.393 115169920 113721000 112348592 111030232 109746152 108478360 
1057.286 107212936 105940200 104651328 103338600 101995096 100615088 
1060.179 99197432 97746000 96271368 94788784 93315232 91867936 90460600 
1063.554 89103440 87803552 86565776 85393392 84289288 83254448 82288544 
1066.930 81388872 80551208 79770288 79040744 78358960 77722320 77128864 
1070.305 76576848 76064024 75587248 75142952 74727992 74340000 73977152 
1073.680 73638936 73324952 73035280 72770744 72534368 72331696 72172744 
1077.055 72070296 72040136 72099936 72265992 72553400 72973776 73533464 
1080.431 74231568 75057704 75990920 76995280 78022640 79017136 79914920 
1083.806 80656040 81192176 81489712 81537160 81346872 80956040 80420600 
1087.181 79812616 79216024 78710920 78373368 78268888 78444656 78934864 
1090.556 79761576 80938112 82475800 84386944 86686112 89388616 92504160 
1093.932 96027272 99923552 104118880 108494472 112867464 117009600 120662680 
1097.307 123544968 125415208 126100424 125527504 123743848 120908160 
1100.200 117270432 113107376 108705344 104321744 100146144 96315872 92908144 
1103.575 89948600 87429360 85319304 83578344 82160856 81024320 80132760 
1106.950 79454880 78966536 78650352 78492088 78480496 78605680 78857144 
1110.326 79225248 79702056 80283056 80968016 81760208 82661168 83663824 
1113.701 84741648 85837656 86866288 87705088 88211712 88254344 87724472 
1117.076 86574432 84830904 82600048 80046776 77358216 74726496 72300624 
1120.451 70174928 68390984 66942184 65794000 64901388 64227336 63748488 
1123.827 63458256 63363820 63482300 63837408 64453772 65356320 66562520 
1127.202 68073144 69859816 71853528 73944224 75969408 77736232 79048928 
1130.577 79716464 79596976 78614888 76769296 74137472 70863312 67146216 
1133.952 63196688 59221460 55403932 51872148 48709432 45952768 43600896 
1137.328 41628652 39997404 38667128 37597656 36752740 36101548 35613724 
1140.703 35261652 35021088 34869692 34789956 34768704 34795268 34860500 
1144.078 34956088 35073028 35204088 35343816 35489912 35642892 35805172 
1147.453 35978820 36164672 36362200 36569952 36787288 37014972 37255672 
1150.829 37512212 37786476 38077732 38383116 38697660 39016788 39337812 
1154.204 39659584 39982544 40306792 40631180 40953036 41268212 41572460 
1157.579 41861740 42132992 42382060 42604004 42791468 42935816 43028472 
1160.954 43062280 43032792 42938448 42779476 42556748 42270400 41920376 
1164.330 41506504 41030488 40496252 39910144 39280068 38614468 37921320 
1167.705 37207660 36480644 35747860 35017496 34299120 33601512 32932006 
1171.080 32295614 31694550 31129344 30600100 30107866 29654926 29244774 
1174.455 28880298 28563084 28292250 28065446 27879250 27730742 27618162 
1177.831 27540418 27496678 27485206 27503316 27548360 27619256 27717606 
1181.206 27848688 28020630 28243202 28525010 28873854 29295848 29795610 
1184.581 30377882 31047194 31807266 32661754 33614148 34669788 35840112 
1187.956 37144924 38612800 40280984 42185608 44351864 46783132 49451696 
1191.332 52295200 55213504 58088180 60789844 63193164 65205412 66771708 
1194.707 67889784 68607776 69023256 69269664 69487816 69824016 70402888 
1198.082 71307824 72579552 74201456 76104488 78161568 80206080 82052256 
1201.457 83497336 84364336 84517464 83871896 82409176 80171096 77254528 
1204.833 73788648 69930344 65851448 61711152 57660168 53825144 50292768 
1208.208 47117928 44319352 41885748 39784340 37970460 36399132 35027232 
1211.583 33820836 32756214 31816360 30991038 30273918 29661346 29152138 
1214.958 28746496 28446218 28252042 28163366 28176236 28284328 28479120 
1218.333 28751594 29095340 29505882 29980820 30518762 31117026 31771154 
1221.709 32475966 33225994 34016624 34844884 35707748 36600844 37517672 
1225.084 38448924 39385228 40319808 41251304 42185060 43132060 44108048 
1228.459 45128880 46210188 47366292 48609588 49952576 51407020 52982756 
1231.834 54686984 56522864 58490000 60585684 62807760 65156364 67633784 
1235.210 70243200 72986472 75861872 78864016 81984456 85210400 88524704 
1238.585 91899672 95287320 98618488 101794576 104689440 107172776 109114648 
1241.960 110409632 110999816 110880896 110113224 108810904 107145000 
1244.853 105319272 103537136 102002848 100885560 100306200 100346944 
1247.746 101044424 102403192 104407232 107031416 110247144 114016992 
1250.639 118291664 122992264 127991720 133120072 138146592 142785520 
1253.532 146737568 149684016 151329040 151452480 149919184 146718288 
1256.426 141960800 135873536 128758880 120939816 112755552 104508376 
1259.319 96447912 88787632 81678776 75217960 69456248 64396240 60004336 
1262.694 56218644 52964300 50159268 47722284 45585668 43691792 41997272 
1266.069 40474576 39107016 37889000 36823460 35920944 35197944 34673808 
1269.444 34370444 34306364 34492000 34924880 35584700 36431272 37399852 
1272.820 38409104 39363932 40158340 40696272 40896604 40706608 40114000 
1276.195 39147664 37875732 36386272 34781664 33158970 31592696 30138088 
1279.570 28824954 27661490 26642526 25754606 24982020 24307510 23715364 
1282.945 23191614 22723410 22301472 21919774 21575392 21267746 20996728 
1286.321 20760980 20558292 20384626 20236646 20112666 20012622 19937234 
1289.696 19886902 19859360 19849580 19851904 19860470 19872332 19887768 
1293.071 19909586 19941050 19984208 20039098 20103816 20176804 20257790 
1296.446 20348964 20453840 20576462 20718474 20879724 21058248 21252192 
1299.822 21461294 21687184 21932286 22198102 22484038 22786540 23100994 
1303.197 23423510 23752634 24089992 24438690 24801104 25177058 25563562 
1306.572 25955584 26348344 26739806 27130140 27521530 27915324 28310816 
1309.947 28704620 29092682 29471414 29840786 30203938 30567322 30939300 
1313.323 31328264 31743598 32195724 32694798 33249922 33862640 34522420 
1316.698 35199204 35844036 36396360 36788944 36967888 36902520 36591000 
1320.073 36058776 35351036 34523284 33626176 32703944 31792224 30916388 
1323.448 30097780 29354092 28698176 28138124 27675508 27306244 27021770 
1326.823 26812438 26670464 26588942 26562770 26585914 26650592 26748228 
1330.199 26870490 27010908 27165764 27332848 27509562 27691258 27870416 
1333.574 28037914 28186454 28311844 28414202 28496670 28562800 28614008 
1336.949 28648374 28661542 28649614 28612346 28554450 28484782 28413178 
1340.324 28347422 28290730 28242460 28200100 28162588 28132044 28113662 
1343.700 28113342 28136356 28185710 28262474 28368042 28505692 28681468 
1347.075 28903530 29179814 29514962 29910674 30365480 30877928 31447370 
1350.450 32074702 32760538 33502464 34292880 35120124 35968312 36822228 
1353.825 37668112 38491608 39275676 39996348 40619356 41106280 41418252 
1357.201 41525568 41417048 41103696 40619860 40014588 39350148 38693280 
1360.576 38104388 37643216 37362368 37304916 37506004 37985400 38746092 
1363.951 39773808 41039412 42502480 44106360 45781272 47438908 48966644 
1367.326 50249280 51180160 51683820 51740180 51386620 50711272 49823456 
1370.702 48841412 47870128 46985144 46240080 45663216 45260472 45016328 
1374.077 44892268 44830984 44754612 44581756 44242008 43682776 42885012 
1377.452 41864000 40670948 39380876 38081132 36859452 35782364 34896620 
1380.827 34230100 33796480 33604340 33660260 33970652 34545672 35405064 
1384.203 36583000 38133724 40122032 42600644 45575660 48967680 52598488 
1387.578 56187456 59418596 62004616 63719936 64446972 64166180 62942944 
1390.953 60901296 58203828 55034556 51562056 47953488 44373296 40971752 
1394.328 37894060 35253392 33107222 31449330 30217222 29322186 28666106 
1397.704 28167784 27773446 27453086 27199310 27016198 26909970 26881524 
1401.079 26924600 27027128 27175464 27356774 27561918 27787892 28037806 
1404.454 28321038 28650250 29039682 29502620 30048742 30684902 31412638 
1407.829 32226414 33108902 34027624 34937232 35778408 36492208 37034964 
1411.205 37386056 37555964 37579516 37507664 37388872 37261772 37151532 
1414.580 37068704 37016092 36993472 37001156 37040376 37111720 37214988 
1417.955 37349652 37518320 37729552 37997584 38336644 38751820 39237304 
1421.330 39776496 40348532 40933596 41520572 42109992 42712568 43343220 
1424.706 44012516 44720676 45456368 46200792 46933904 47642520 48319744 
1428.081 48965416 49584832 50187052 50787128 51406872 52080056 52848952 
1431.456 53755276 54835564 56110872 57588088 59265972 61147824 63250504 
1434.831 65600268 68220832 71105688 74191112 77355400 80453056 83364600 
1438.207 86026128 88420224 90544792 92388592 93910704 95043776 95717872 
1441.582 95871840 95476848 94543168 93117656 91274064 89095784 86674744 
1444.957 84090840 81402976 78652256 75863608 73063152 70300656 67657208 
1448.332 65239796 63163200 61514348 60341148 59647940 59400132 59530004 
1451.708 59938376 60510456 61112008 61606172 61872740 61796600 61275968 
1455.083 60230372 58626236 56525812 54114748 51692144 49553932 47881524 
1458.458 46712244 45980872 45591780 45458984 45523812 45746704 46095148 
1461.833 46539424 47045108 47573528 48088864 48559416 48965828 49306432 
1465.208 49598868 49875076 50169088 50513616 50932220 51436824 52029552 
1468.584 52703144 53443428 54225480 55015448 55766244 56408908 56862768 
1471.959 57047688 56908700 56441392 55691544 54735504 53649276 52497332 
1475.334 51332472 50198952 49145188 48221020 47467404 46914008 46572212 
1478.709 46437564 46498484 46743132 47166204 47770696 48566712 49566260 
1482.085 50777968 52202712 53833996 55661336 57678936 59891476 62317740 
1485.460 64989932 67945848 71216392 74816104 78737688 82956464 87443064 
1488.835 92171608 97122536 102268440 107565224 112938288 118289272 123512784 
1492.210 128517080 133233640 137594704 141532848 144961088 147757568 
1495.104 149797760 150987408 151315616 150876144 149860912 148508656 
1497.997 147026800 145576320 144263248 143150784 142288016 141715616 
1500.890 141460112 141530160 141901120 142514384 143263552 143995248 
1503.783 144505584 144499344 143601376 141385728 137471504 131738752 
1506.676 124477400 116325264 107970784 99874792 92191528 84870624 77797216 
1510.051 70893776 64153776 57665540 51578960 46038668 41164052 37002636 
1513.426 33528700 30668474 28323618 26395946 24791914 23435994 22274686 
1516.802 21273384 20420916 19718670 19167784 18758868 18465796 18245378 
1520.177 18051150 17845960 17622336 17407624 17249588 17187982 17233144 
1523.552 17366238 17552536 17759796 17968088 18178726 18409168 18684180 
1526.927 19019840 19416458 19859846 20331844 20820278 21324224 21853286 
1530.302 22422174 23042292 23716728 24439180 25195596 25971236 26755522 
1533.678 27545606 28342576 29147568 29956006 30756916 31533084 32264922 
1537.053 32935470 33527088 34023824 34409896 34667708 34779044 34730764 
1540.428 34527696 34195900 33777284 33314742 32835040 32342196 31819280 
1543.803 31241592 30591816 29874432 29118052 28365816 27655628 27001882 
1547.179 26393482 25800034 25188468 24538038 23853120 23162080 22506440 
1550.554 21919148 21410682 20968838 20568680 20187356 19815348 19460638 
1553.929 19143926 18886514 18697464 18568630 18475580 18385524 18258026 
1557.304 18046210 17704160 17198152 16536579 15784534 15042192 14395536 
1560.680 13882934 13501622 13224304 13015543 12841248 12674768 12502043 
1564.055 12323522 12153696 12013265 11920383 11880880 11886805 11920383 
1567.430 11962820 11999946 12027299 12050327 12081567 12134377 12217420 
1570.805 12334771 12487311 12676201 12903127 13169277 13474279 13812877 
1574.181 14177448 14560930 14960630 15382153 15838310 16345384 16911678 
1577.556 17537770 18219254 18952480 19737566 20578650 21480094 22440666 
1580.931 23447080 24475778 25490508 26449682 27314570 28048586 28622114 
1584.306 29014072 29211034 29209688 29016764 28650746 28138866 27515246 
1587.682 26820228 26091802 25361152 24648808 23960562 23291166 22628876 
1591.057 21963096 21287824 20602868 19912084 19220424 18532564 17854246 
1594.432 17195738 16573995 16009893 15525979 15136978 14846030 14643411 
1597.807 14512758 14438797 14413073 14437222 14519302 14668840 14890091 
1601.183 15181582 15538548 15959222 16450021 17026960 17710544 18521462 
1604.558 19473876 20573648 21820326 23210488 24740662 26402778 28180302 
1607.933 30043416 31944622 33824776 35624300 37288452 38782864 40095796 
1611.308 41239500 42242024 43137220 43953704 44704480 45383824 45966948 
1614.684 46416696 46687268 46734496 46528360 46059412 45339432 44393152 
1618.059 43243684 41907568 40394604 38711424 36865224 34863300 32721736 
1621.434 30464666 28131478 25788010 23517624 21410610 19543468 17957280 
1624.809 16654104 15602736 14755798 14061925 13476432 12970717 12530552 
1628.185 12154072 11846318 11611809 11450290 11355590 11317397 11323280 
1631.560 11361849 11421204 11489311 11552121 11591764 11588225 11523743 
1634.935 11390556 11198348 10975674 10760009 10580473 10449271 10362018 
1638.310 10304809 10260634 10215413 10161649 10098667 10031626 9968086 
1641.686 9915132 9875743 9848423 9827884 9806125 9774304 9722898 9642803 
1645.543 9527295 9374370 9190666 8992867 8805504 8652123 8549753 8504912 
1649.400 8512886 8560161 8624746 8679165 8687717 8613423 8432541 8156514 
1653.258 7840345 7553063 7341248 7210246 7140112 7104376 7082517 7062108 
1657.115 7037727 7008902 6977553 6946005 6915368 6884665 6851138 6810276 
1660.973 6756763 6685255 6593372 6483078 6362287 6243950 6142213 6068286 
1664.830 6027128 6016478 6028203 6051184 6072251 6079307 6063952 6021551 
1668.688 5952717 5863238 5762732 5661913 5571219 5499236 5450313 5423740 
1672.545 5413541 5408643 5394183 5355471 5283757 5182479 5067782 4961997 
1676.402 4884517 4842935 4832682 4841494 4856773 4870511 4882205 4898625 
1680.260 4929254 4981100 5053535 5136308 5209205 5248475 5232176 5152268 
1684.117 5023232 4879256 4757772 4679491 4646201 4646670 4666463 4692018 
1687.975 4713421 4725178 4724743 4713287 4695468 4679257 4674233 4688669 
1691.832 4727490 4789396 4867160 4947284 5014182 5053803 5059602 5037948 
1695.689 5009623 5000741 5028428 5094199 5183686 5274198 5338564 5352351 
1699.547 5303210 5200151 5075660 4968666 4907136 4895676 4922049 4966454 
1703.404 5009791 5036271 5035668 5004998 4949295 4879826 4808727 4745310 
1707.262 4693659 4653134 4620113 4591180 4564525 4540819 4522404 4512662 
1711.119 4513934 4526858 4550630 4583143 4622290 4666999 4716537 4770200 
1714.977 4825713 4877447 4916989 4935018 4924931 4887164 4831208 4772914 
1718.834 4727590 4704914 4707560 4731409 4769999 4816399 4865585 4914676 
1722.691 4963270 5012104 5063122 5118304 5179059 5246731 5321759 5403477 
1726.549 5489269 5574441 5653152 5719454 5770186 5805712 5830965 5852592 
1730.406 5876740 5904515 5930010 5939583 5914156 5835902 5696188 5506316 
1734.264 5297441 5110224 4974967 4900535 4877112 4885254 4904791 4916821 
1738.121 4908343 4872957 4812177 4734122 4650756 4572964 4507305 4454678 
1741.979 4412400 4376118 4341980 4307845 4274148 4243297 4218337 4201709 
1745.836 4194583 4195721 4202679 4211914 4219976 4224259 4222620 4213620 
1749.693 4195486 4167083 4128981 4084227 4039377 4002222 3979985 3976139 
1753.551 3989047 4012221 4034929 4046567 4037939 4005433 3953134 3891146 
1757.408 3832076 3785313 3754263 3735748 3722680 3705771 3677366 3633961 
1761.266 3576195 3509685 3442316 3383340 3338996 3313153 3306142 3315223 
1765.123 3335023 3358196 3377196 3386278 3383440 3371853 3359031 3353087 
1768.980 3358162 3372454 3386946 3388883 3365308 3309046 3223049 3121049 
1772.838 3022209 2942140 2888435 2858616 2844675 2837471 2831334 2824598 
1776.695 2818795 2816627 2819262 2824998 2830767 2832368 2827766 2817894 
1780.553 2806322 2797118 2792916 2793950 2797385 2800086 2798985 2793250 
1784.410 2784546 2775876 2770707 2771674 2780711 2798652 2826298 2864086 
1788.268 2911650 2966793 3024445 3077499 3117445 3136267 3129559 3098456 
1792.125 3050237 2995618 2945576 2907815 2884465 2873992 2872558 2876127 
1795.982 2881730 2887601 2892871 2897374 2900509 2901743 2899976 2894238 
1799.840 2883765 2868089 2848310 2825998 2804255 2786313 2775142 2772608 
1803.697 2779344 2793783 2813392 2835437 2857616 2878795 2899242 2919623 
1807.555 2940138 2959987 2976735 2987911 2991548 2987210 2976334 2962323 
1811.412 2948812 2938370 2932366 2930498 2931632 2934701 2939438 2945576 
1815.270 2954049 2965392 2979804 2997153 3017305 3039960 3065386 3093751 
1819.127 3124587 3157127 3190838 3225052 3259736 3295191 3331316 3366944 
1822.984 3399803 3426152 3443051 3449964 3450131 3449831 3456076 3473578 
1826.842 3502403 3537410 3569246 3587387 3584380 3557955 3513125 3459650 
1830.699 3409220 3369716 3343537 3327744 3316592 3304639 3288413 3266847 
1834.557 3241476 3214837 3189169 3166205 3147214 3133030 3125020 3125020 
1838.414 3134866 3155425 3186699 3227288 3274726 3326308 3378331 3426820 
1842.271 3467633 3496791 3513025 3518336 3518670 3522979 3539180 3570816 
1846.129 3616520 3671151 3727259 3778929 3824354 3865304 3907160 3955508 
1849.986 4013525 4080581 4152398 4222921 4286830 4342850 4392485 4440049 
1853.844 4489762 4544034 4602364 4662812 4722800 4781188 4838680 4897821 
1857.701 4960924 5030171 5105933 5188112 5276747 5372579 5476485 5589175 
1861.559 5708845 5831536 5951037 6060558 6154479 6229900 6286171 6324060 
1865.416 6343896 6344602 6322513 6273397 6194238 6085893 5954598 5811421 
1869.273 5669097 5539001 5427095 5333969 5255182 5184860 5116427 5044887 
1873.131 4967091 4881602 4788358 4689439 4587731 4486950 4390845 4301520 
1876.988 4218538 4138883 4057303 3968749 3870319 3762585 3649933 3538780 
1880.846 3436004 3345975 3270386 3208195 3156660 3113407 3077299 3048202 
1884.703 3026714 3012734 3004793 3000823 2999121 2998254 2998120 2999555 
1888.561 3002658 3006995 3011499 3014869 3016971 3019440 3024512 3034688 
1892.418 3051806 3074930 3101393 3128091 3151253 3168375 3178688 3181825 
1896.275 3177754 3166639 3148783 3125521 3100959 3080503 3070592 3076432 
1900.133 3100125 3139338 3188668 3240207 3287445 3326675 3357227 3381270 
1903.990 3402809 3425117 3450866 3481460 3517568 3559024 3605662 3655880 
1907.848 3707074 3755433 3797212 3829134 3850127 3860590 3862128 3856612 
1911.705 3845514 3829468 3810315 3790527 3774550 3766629 3770573 3785747 
1915.563 3807941 3829468 3842071 3839563 3821847 3793635 3763721 3739925 
1919.420 3725554 3718202 3711786 3699221 3676030 3643417 3607266 3576162 
1923.277 3557687 3555616 3568177 3590828 3617823 3645188 3671652 3697784 
1927.135 3724685 3753327 3783474 3814593 3846550 3881117 3920300 3966208 
1930.992 4018876 4075330 4129717 4175848 4207932 4222419 4219274 4199802 
1934.850 4167920 4127844 4083859 4041517 4006670 3984299 3977845 3988311 
1938.707 4011519 4040447 4067905 4087705 4097974 4101854 4106135 4117776 
1942.564 4141225 4176417 4217601 4258722 4293021 4316981 4330601 4336424 
1946.422 4338767 4342850 4353760 4376486 4416116 4475835 4555284 4651325 
1950.279 4755193 4856103 4944871 5016126 5069659 5111833 5151162 5194182 
1954.137 5243947 5298414 5350808 5394955 5426391 5444743 5452964 5456655 
1957.994 5459808 5465915 5476485 5492826 5515913 5548465 5590149 5639892 
1961.852 5693066 5742788 5782073 5807727 5818876 5819849 5815988 5812025 
1965.709 5809641 5808634 5806854 5803697 5802085 5806015 5820219 5846849 
1969.566 5883020 5922687 5959166 5988426 6010699 6030555 6054712 6087775 
1973.424 6132602 6188726 6254303 6331153 6423620 6537398 6676978 6840569 
1977.281 7017455 7190269 7341147 7456008 7530070 7568235 7578958 7574338 
1981.139 7563178 7549928 7536577 7524473 7513786 7506201 7504583 7509067 
1984.996 7518979 7534284 7554074 7580508 7619521 7676850 7757460 7862005 
1988.854 7985712 8118871 8252984 8380787 8501330 8619034 8740251 8871173 
1992.711 9014754 9169617 9331136 9495764 9659675 9820835 9978596 10130615 
1996.568 10272983 10402910 10518007 10617786 10706314 10788711 10868372 
1999.944 10947232 11022029 11087796 11139465 11175297 11196886 11211880 
2003.319 11228677 11255029 11295632 11350863 11417836 11491863 11570224 
2006.694 11649824 11731481 11815912 11904548 11998822 12101021 12213058 
2010.069 12337874 12477558 12632569 12801524 12982153 13171190 13367348 
2013.445 13571048 13784146 14006657 14237122 14468736 14692146 14898285 
2016.820 15080886 15237412 15370653 15485494 15586662 15677789 15761271 
2020.195 15837727 15908351 15974073 16035059 16088318 16127896 16143851 
2023.570 16126107 16067825 15966097 15826695 15660372 15477906 15291294 
2026.946 15107782 14930142 14758540 14592454 14431433 14276121 14129490 
2030.321 13992387 13864940 13747619 13638844 13539052 13451107 13378112 
2033.696 13323990 13290747 13276706 13276569 13286715 13301781 13320812 
2037.071 13345583 13378659 13422024 13475612 13535393 13595287 13649204 
2040.447 13691672 13718721 13730383 13727066 13711027 13685243 13653956 
2043.822 13619424 13585098 13552417 13520627 13489420 13456677 13421135 
2047.197 13383579 13345686 13308102 13270283 13227651 13173000 13098311 
2050.572 12997038 12867903 12714958 12547127 12373157 12201607 12035474 
2053.948 11872844 11707789 11533882 11346918 11147828 10941694 10735624 
2057.323 10537289 10351770 10180033 10021182 9873913 9737401 9612619 9501826 
2061.180 9405824 9323350 9250640 9182510 9113546 9041480 8966246 8890958 
2065.038 8819097 8753672 8694647 8640056 8586555 8530728 8470347 8404468 
2068.895 8332620 8254572 8170459 8079780 7983619 7884544 7784716 7687710 
2072.752 7595075 7505730 7416302 7322714 7220555 7108147 6987150 6860967 
2076.610 6734956 6614735 6502887 6400652 6307754 6222740 6144364 6072251 
2080.467 6006063 5944823 5888327 5834391 5781703 5729425 5676986 5624519 
2084.325 5573166 5523363 5475881 5432128 5392942 5358959 5330849 5306531 
2088.182 5282147 5252667 5211921 5155084 5080957 4991725 4892660 4791038 
2092.040 4693793 4605278 4527929 4461541 4405137 4357543 4318219 4286161 
2095.897 4260429 4238780 4218170 4195654 4170194 4141425 4111922 4083892 
2099.754 4059008 4036969 4016535 3995166 3971625 3946547 3921604 3899638 
2103.612 3882086 3868647 3857247 3845547 3832310 3818136 3805902 3798850 
2107.469 3799485 3807540 3820710 3834616 3846282 3853670 3857782 3861226 
2111.327 3866942 3876002 3887937 3900006 3909200 3913513 3912878 3908130 
2115.184 3901711 3895526 3890411 3886065 3882019 3876670 3869650 3859888 
2119.042 3846216 3827897 3804565 3776054 3743936 3711318 3680875 3654945 
2122.899 3635064 3619728 3606430 3593000 3578199 3562565 3547966 3535907 
2126.756 3525885 3516599 3503205 3482162 3451401 3412092 3368013 3325273 
2130.614 3289515 3264377 3251624 3250422 3258801 3275861 3299899 3328645 
2134.471 3360032 3389584 3412059 3424783 3427254 3421777 3413762 3408619 
2138.329 3408887 3414764 3422545 3428223 3428857 3424415 3415299 3404044 
2142.186 3389852 3369582 3337928 3290550 3225185 3145512 3059847 2976301 
2146.043 2902944 2843007 2794550 2753434 2716223 2682282 2653911 2635776 
2149.901 2629509 2633309 2640943 2642643 2628909 2594475 2537347 2459732 
2153.758 2364975 2256548 2136427 2008484 1879680 1762525 1674471 1635590 
2157.616 1660069 1753775 1907767 2102499 2314305 2519350 2701786 2853380 
2161.473 2972598 3060948 3123786 3167841 3199549 3227656 3258568 3295057 
2165.331 3335624 3374758 3403810 3416100 3409688 3387214 3355758 3324872 
2169.188 3299364 3280768 3267281 3253827 3237269 3218142 3199316 3185097 
2173.045 3180390 3184896 3196812 3213102 3230059 3246984 3266046 3289315 
2176.903 3317827 3351050 3385544 3417770 3447693 3476684 3508883 3549269 
2180.760 3599915 3658387 3720040 3779196 3831574 3877974 3922473 3969284 
2184.618 4022354 4080949 4139987 4193613 4236170 4264946 4281576 4290043 
2188.475 4294493 4297906 4301286 4302089 4299345 4291916 4279569 4262704 
2192.333 4242160 4215761 4182372 4140756 4091318 4037470 3985001 3938556 
2196.190 3902848 3879111 3865738 3859454 3858150 3860122 3865939 3877239 
2200.047 3894991 3918428 3945578 3973531 3999380 4022454 4042755 4061116 
2203.905 4078407 4094496 4109681 4124566 4141726 4164173 4195788 4239015 
2207.762 4292987 4354464 4418526 4479685 4535295 4584918 4629958 4672391 
2211.620 4713053 4749833 4779111 4798308 4806080 4804506 4799313 4795795 
2215.477 4798374 4808191 4822229 4835296 4842097 4838914 4824306 4801289 
2219.334 4772880 4743468 4716436 4692856 4672492 4654339 4636321 4616295 
2223.192 4593021 4565563 4533788 4500241 4467466 4438978 4418024 4406074 
2227.049 4402593 4406208 4414074 4424651 4437606 4453741 4473760 4498198 
2230.907 4525284 4551936 4575039 4592084 4602096 4607555 4611540 4616998 
2234.764 4626275 4640173 4657554 4678487 4702770 4731844 4767386 4810570 
2238.622 4860123 4913939 4968532 5020517 5068151 5111800 5152100 5190862 
2242.479 5228487 5264137 5295831 5322497 5342958 5358087 5369325 5378517 
2246.336 5386534 5393646 5398947 5401698 5402772 5403544 5406227 5412736 
2250.194 5423472 5437060 5451655 5464473 5474069 5480746 5486551 5493598 
2254.051 5504504 5520511 5540579 5563232 5585316 5603809 5616329 5621431 
2257.909 5618041 5607065 5590115 5569575 5548230 5529202 5513463 5501148 
2261.766 5491215 5481015 5468767 5453869 5436825 5419781 5405523 5395794 
2265.624 5391298 5391869 5395291 5399585 5403611 5406227 5407636 5408542 
2269.481 5409817 5412400 5417802 5427229 5441892 5462828 5489672 5520645 
2273.338 5553701 5585719 5614080 5637945 5657583 5674199 5689776 5705488 
2277.196 5721602 5737886 5754036 5769212 5783852 5798291 5812428 5825928 
2281.053 5837782 5846816 5852559 5855514 5856891 5858604 5861928 5866631 
2284.911 5871534 5874758 5874389 5869620 5861324 5851014 5841275 5833954 
2288.768 5829823 5828950 5830999 5835700 5843189 5854003 5868780 5887185 
2292.625 5908580 5930849 5952213 5971293 5987686 6002031 6015033 6027565 
2296.483 6040197 6053032 6066270 6079912 6095066 6112910 6134551 6160562 
2300.340 6190944 6224388 6260052 6297063 6334751 6373786 6414607 6457350 
2304.198 6502047 6548431 6596030 6645014 6696427 6751177 6810410 6874937 
2308.055 6944052 7016579 7090701 7164533 7236356 7305293 7370264 7430761 
2311.913 7486582 7537420 7583948 7627648 7670476 7715231 7764409 7819766 
2315.770 7882182 7951559 8026786 8106280 8188995 8273720 8359710 8447034 
2319.627 8535897 8626300 8718310 8810847 8901002 8985086 9057685 9113512 
2323.485 9149516 9165217 9163830 9152527 9140683 9137706 9151580 9187891 
2327.342 9247424 9328462 9426242 9534949 9648630 9761663 9869167 9967001 
2331.200 10052005 10122170 10176878 10217381 10245504 10264400 10276818 
2334.575 10284587 10289099 10290965 10290558 10288489 10285435 10282178 
2337.950 10278854 10274782 10268336 10257377 10240246 10215447 10182679 
2341.325 10142045 10093512 10036034 9967510 9883844 9779997 9651477 9495493 
2345.183 9313127 9110771 8900867 8699650 8525963 8398691 8332350 8336201 
2349.040 8413048 8558505 8761955 9007413 9277279 9553375 9820665 10068722 
2352.898 10292289 10490104 10663220 10813882 10944650 11057884 11156361 
2356.273 11243808 11322770 11395250 11461856 11520681 11569135 11605479 
2359.648 11628484 11639103 11639035 11630084 11613000 11588157 11554503 
2363.023 11511529 11460121 11401746 11338687 11272848 11204944 11134094 
2366.399 11059347 10979412 10894227 10805355 10715008 10624645 10535626 
2369.774 10446725 10355740 10260533 10158868 10049699 9933336 9811210 
2373.149 9684509 9555170 9424921 9294914 9166740 9041480 8919570 8800872 
2377.007 8684506 8569319 8454602 8340626 8227995 8118669 8014635 7917105 
2380.864 7826445 7742416 7664203 7591871 7525788 7467199 7417583 7377914 
2384.721 7347482 7324971 7308494 7296127 7286996 7281403 7280122 7283997 
2388.579 7293196 7306842 7323219 7340742 7358401 7376094 7394697 7415257 
2392.436 7438446 7464536 7492919 7523125 7554850 7588331 7623905 7661944 
2396.294 7701908 7742753 7782692 7820171 7854178 7884476 7911200 7934585 
2400.151 7954225 7969411 7978759 7981459 7977443 7967353 7952842 7935664 
2404.009 7916970 7897299 7876851 7855460 7834037 7813660 7796118 7782826 
2407.866 7774596 7771088 7771223 7774056 7778542 7784851 7794094 7807284 
2411.723 7825603 7849623 7879145 7913697 7952909 7996578 8044405 8096827 
2415.581 8153341 8213036 8275205 8338700 8402542 8466495 8530086 8592604 
2419.438 8653373 8710670 8763308 8810509 8852033 8888421 8920888 8950518 
2423.296 8977848 9002914 9025343 9044389 9059918 9072267 9081538 9088338 
2427.153 9092872 9094969 9094766 9092601 9089455 9086714 9086105 9088507 
2431.010 9094090 9102515 9112598 9123426 9133983 9144439 9155066 9166537 
2434.868 9179295 9193746 9210296 9229350 9251283 9276805 9305747 9337163 
2438.725 9370273 9403183 9435046 9465624 9496238 9528108 9563164 9602016 
2442.583 9644362 9688304 9732047 9773931 9813582 9851779 9889538 9928319 
2446.440 9968628 10009925 10050580 10088900 10123221 10152152 10175047 
2449.815 10191091 10199911 10201505 10196451 10186343 10173792 10161887 
2453.191 10153542 10150728 10153577 10161005 10171350 10182848 10194246 
2456.566 10206254 10219688 10236004 10256190 10280279 10307964 10338841 
2459.941 10372469 10408781 10448389 10491597 10538070 10587772 10640027 
2463.316 10694733 10752368 10814255 10881486 10955149 11035249 11120428 
2466.692 11209194 11299678 11390862 11482745 11576723 11674160 11776929 
2470.067 11886022 12001717 12123916 12252421 12386930 12528096 12676712 
2473.442 12833433 12999632 13176382 13365059 13567287 13785275 14020550 
2476.817 14274957 14549932 14846099 15163946 15504002 15866112 16250608 
2480.193 16657410 17086132 17535218 18002346 18483740 18974216 19467708 
2483.568 19956452 20431822 20885392 21307730 21690596 22026916 22310298 
2486.943 22535474 22698728 22797190 22829632 22796738 22702602 22552646 
2490.318 22355470 22120762 21857922 21576296 21284102 20987546 20692550 
2493.694 20404526 20127970 19867858 19628598 19413410 19225238 19066402 
2497.069 18938602 18843778 18784576 18763090 18782014 18843536 18949260 
2500.444 19100332 19298564 19545510 19843544 20195478 20603700 21069622 
2503.819 21593290 22172506 22802952 23479326 24193746 24936082 25694560 
2507.195 26453096 27192078 27890518 28523488 29066324 29495952 29791280 
2510.570 29935558 29918200 29735534 29391636 28899210 28279270 27556726 
2513.945 26760632 25920410 25060992 24204290 23366722 22558614 21787228 
2517.320 21055814 20365284 19715028 19102896 18525784 17980486 17463188 
2520.696 16971830 16504845 16062461 15645498 15255464 14894205 14562610 
2524.071 14261123 13990128 13748542 13534984 13347975 13184613 13041935 
2527.446 12916781 12806712 12709806 12625781 12554835 12497166 12452904 
2530.821 12421024 12399817 12386964 12380623 12379259 12382464 12390100 
2534.197 12401965 12417376 12435379 12454030 12472306 12489731 12506203 
2537.572 12522641 12540033 12558757 12578608 12599686 12621347 12644167 
2540.947 12669105 12696773 12727582 12761600 12797429 12833672 12869166 
2544.322 12903434 12937296 12972457 13011070 13054637 13104219 13159441 
2547.698 13219452 13283265 13349922 13418982 13490514 13564484 13641066 
2551.073 13720705 13803984 13891077 13982601 14078319 14177311 14278346 
2554.448 14378994 14477711 14573642 14667469 14761043 14857790 14961213 
2557.823 15073717 15197024 15330938 15474266 15625749 15783880 15948154 
2561.198 16118748 16296461 16482301 16677449 16882740 17098506 17324306 
2564.574 17559368 17801668 18049112 18298978 18548814 18796304 19039848 
2567.949 19277712 19508600 19731082 19943340 20143102 20328650 20497814 
2571.324 20649078 20781556 20894046 20985772 21056232 21104926 21132232 
2574.699 21139364 21128824 21103534 21067640 21025314 20980140 20935596 
2578.075 20894360 20858030 20827716 20804114 20787256 20777836 20777038 
2581.450 20786456 20808738 20847044 20903852 20981842 21082074 21204316 
2584.825 21347820 21510976 21692408 21891200 22107166 22340156 22590478 
2588.200 22858234 23143244 23445086 23763342 24096926 24444088 24802366 
2591.576 25167788 25534886 25898112 26251538 26589472 26907432 27201214 
2594.951 27466428 27699134 27894122 28046290 28151734 28207490 28212794 
2598.326 28169130 28078914 27945568 27772634 27563400 27320956 27049096 
2601.701 26752528 26436476 26106896 25769760 25430532 25093746 24763392 
2605.077 24442686 24135106 23844300 23573382 23326268 23106200 22915654 
2608.452 22756824 22631424 22540220 22483934 22462544 22475104 22519842 
2611.827 22594074 22694644 22817934 22960610 23119410 23291132 23472540 
2615.202 23660392 23851090 24041522 24228570 24409912 24584426 24750766 
2618.578 24908712 25058080 25199494 25334176 25464190 25592488 25722086 
2621.953 25855734 25994840 26138812 26285824 26431968 26572704 26703476 
2625.328 26819382 26915892 26988132 27031008 27038906 27006430 26928372 
2628.703 26801302 26623536 26395488 26119386 25799718 25442336 25053798 
2632.079 24641654 24213926 23777832 23340464 22907936 22484806 22074846 
2635.454 21680738 21303866 20945506 20606410 20286674 19985906 19703484 
2638.829 19437698 19186796 18949018 18722924 18507632 18302848 18108456 
2642.204 17924060 17749510 17584038 17426386 17276068 17131902 16993504 
2645.580 16861004 16734194 16613513 16499201 16391316 16290201 16196057 
2648.955 16109189 16029626 15957883 15893916 15837898 15789961 15750483 
2652.330 15719596 15697576 15684007 15678132 15679333 15686102 15697198 
2655.705 15711695 15728941 15748456 15770171 15794223 15820580 15849307 
2659.081 15880994 15915742 15954480 15997654 16045751 16098976 16156850 
2662.456 16218929 16284525 16353125 16424108 16497618 16573789 16652761 
2665.831 16734917 16820292 16908852 17000222 17094230 17190672 17289238 
2669.206 17390068 17493130 17598494 17706506 17817030 17929930 18044760 
2672.582 18161140 18278414 18396138 18514306 18632748 18752226 18873122 
2675.957 18995920 19121038 19248928 19379906 19514942 19654980 19801060 
2679.332 19954336 20115372 20283932 20459536 20641190 20827960 21019506 
2682.707 21216250 21418896 21628636 21846562 22073558 22310158 22557148 
2686.083 22815104 23084920 23367806 23664554 23976354 24303796 24647406 
2689.458 25007536 25384898 25780274 26194520 26628292 27081752 27554644 
2692.833 28045618 28553212 29074686 29607072 30146080 30686040 31220230 
2696.208 31739500 32234122 32693404 33106078 33461378 33749388 33961300 
2699.583 34090264 34132560 34087256 33957108 33749028 33472974 33140584 
2702.959 32765538 32361366 31940124 31513668 31091932 30682662 30292500 
2706.334 29925724 29584336 29268484 28977092 28707910 28458424 28227254 
2709.709 28012996 27815340 27633804 27467840 27316298 27177828 27050508 
2713.084 26932780 26823858 26723280 26631180 26547942 26473946 26409186 
2716.460 26353802 26307896 26271496 26244780 26227708 26220178 26221092 
2719.835 26229258 26242880 26260620 26280650 26301980 26323806 26345810 
2723.210 26367922 26390314 26413446 26437920 26464472 26494300 26527830 
2726.585 26566152 26610290 26660916 26719686 26788262 26868198 26960524 
2729.961 27066094 27184248 27313828 27453050 27600332 27754196 27914050 
2733.336 28079796 28251512 28429344 28613372 28802858 28997812 29197426 
2736.711 29401492 29609768 29821550 30035816 30251324 30466194 30678750 
2740.086 30887532 31091292 31288628 31478218 31657734 31824668 31975932 
2743.462 32108274 32219596 32308250 32373786 32416236 32436762 32436800 
2746.837 32417412 32380786 32329418 32266312 32195438 32120940 32046914 
2750.212 31977326 31915482 31863600 31823452 31795968 31781350 31779602 
2753.587 31790118 31812150 31844276 31885066 31932566 31984706 32039172 
2756.963 32093324 32145056 32192014 32232802 32266386 32292690 32311748 
2760.338 32324136 32330058 32329700 32323670 32312534 32297506 32280840 
2763.713 32264564 32251574 32243866 32243260 32250966 32267526 32294008 
2767.088 32331344 32380890 32444152 32522890 32618068 32730420 32860450 
2770.464 33007752 33172630 33355422 33555868 33773916 34008920 34259608 
2773.839 34524504 34801804 35090128 35388096 35695012 36010032 36332912 
2777.214 36662744 36998952 37340412 37686292 38034656 38383984 38731820 
2780.589 39075404 39411312 39737060 40049576 40346716 40627540 40890780 
2783.965 41135748 41362632 41571328 41762396 41937272 42098272 42248416 
2787.340 42391268 42530512 42669800 42812460 42961532 43119508 43288304 
2790.715 43468964 43661232 43863228 44071228 44279912 44483148 44673996 
2794.090 44846780 44997104 45122076 45221528 45297208 45353444 45395780 
2797.466 45432092 45471124 45521308 45591592 45689608 45821112 45991112 
2800.841 46202784 46457516 46756156 47098064 47482004 47905572 48365960 
2804.216 48859988 49383944 49934660 50508892 51102928 51713084 52334780 
2807.591 52961904 53588732 54208136 54813460 55398548 55957216 56483808 
2810.967 56973032 57419352 57817108 58162004 58449208 58675276 58837972 
2814.342 58935568 58967788 58934888 58838656 58681152 58466572 58200156 
2817.717 57887368 57535428 57151952 56744152 56320404 55888740 55457016 
2821.092 55032524 54622540 54232012 53865764 53526700 53216776 52936900 
2824.468 52687396 52468092 52278088 52117040 51983764 51877896 51799384 
2827.843 51748428 51725956 51732976 51769932 51836416 51931260 52052188 
2831.218 52196208 52360836 52543324 52741900 52955616 53183852 53426192 
2834.593 53682832 53954148 54240832 54544164 54865904 55208088 55573244 
2837.969 55964192 56383628 56835196 57323308 57852464 58428472 59057212 
2841.344 59744308 60495680 61317252 62215248 63197152 64272588 65451272 
2844.719 66744388 68160864 69705304 71374136 73152664 75013408 76911744 
2848.094 78790600 80583152 82214256 83614856 84726224 85506864 85940256 
2851.469 86034280 85821016 85348064 84675800 83870640 82994248 82105488 
2854.845 81255008 80481088 79813376 79269944 78858536 78578440 78422584 
2858.220 78379792 78436472 78579112 78795328 79072736 79399136 79762608 
2861.595 80149416 80545784 80938112 81312712 81658464 81965648 82227952 
2864.970 82442064 82608184 82730672 82816592 82876376 82922176 82965528 
2868.346 83017832 83087960 83182256 83305224 83459192 83644536 83860880 
2871.721 84106272 84378096 84672304 84985368 85313016 85651760 85998696 
2875.096 86350632 86703632 87053672 87395480 87724304 88037152 88333400 
2878.471 88615632 88889960 89164984 89450696 89756840 90093200 90467784 
2881.847 90886664 91354288 91872528 92440400 93054592 93709120 94396792 
2885.222 95109480 95839288 96579872 97324920 98069592 98808888 99538312 
2888.597 100253856 100952696 101633888 102298512 102949704 103591304 
2891.490 104227296 104861640 105497504 106137600 106785088 107443344 
2894.383 108115936 108807200 109520792 110260248 111028696 111829104 
2897.276 112664536 113537336 114449016 115399440 116385520 117402368 
2900.169 118442880 119498768 120561984 121624536 122678920 123717672 
2903.063 124732824 125716176 126660616 127559888 128410664 129212288 
2905.956 129966688 130677032 131347392 131982016 132584912 133161096 
2908.849 133717072 134260240 134799200 135342656 135897008 136466528 
2911.742 137051888 137649456 138251280 138844192 139410832 139928560 
2914.635 140370944 140712544 140929920 141007392 140940016 140733968 
2917.528 140405280 139975360 139467392 138900672 138286704 137630048 
2920.421 136927952 136173344 135357968 134476672 133529216 132522328 
2923.314 131469816 130392728 129316704 128267872 127271488 126348776 
2926.207 125513000 124771416 124124048 123566416 123090256 122685776 
2929.100 122343144 122051992 121802664 121586616 121395952 121224832 
2931.993 121069400 120927072 120796520 120676640 120565448 120460448 
2934.886 120357176 120251144 120137040 120009872 119864528 119696448 
2937.779 119500944 119274832 119016368 118726216 118407672 118065696 
2940.672 117706712 117336416 116958504 116574512 116183624 115782832 
2943.565 115368536 114936896 114483904 114005920 113499976 112963504 
2946.458 112395680 111797776 111174320 110533088 109884216 109241304 
2949.352 108618912 108032552 107498344 107032512 106649984 106365488 
2952.245 106190616 106134008 106199760 106386656 106687944 107090304 
2955.138 107575160 108118016 108688360 109253280 109778192 110229456 
2958.031 110581512 110817208 110932224 110934112 110842272 110683632 
2960.924 110486168 110278448 110084112 109918448 109790776 109701920 
2963.817 109646160 109611408 109581856 109539512 109465840 109346096 
2966.710 109169560 108931128 108632408 108279592 107883648 107457304 
2969.603 107014832 106570912 106138152 105727248 105345912 104997616 
2972.496 104681768 104394120 104128232 103876064 103630040 103383920 
2975.389 103132216 102870840 102596352 102305808 101997232 101669816 
2978.282 101324624 100964648 100594616 100220808 99849528 99487192 99140184 
2981.657 98814256 98515000 98248080 98017480 97826184 97674920 97561504 
2985.033 97481160 97427088 97391512 97365680 97341176 97310040 97263368 
2988.408 97193112 97090216 96945384 96750136 96496736 96178824 95793800 
2991.783 95342048 94828640 94262616 93657360 93028488 92391344 91759792 
2995.158 91143056 90545976 89967680 89404288 88850648 88301936 87755328 
2998.534 87210632 86670096 86136528 85613552 85104136 84610056 84132984 
3001.909 83673864 83233376 82812256 82410584 82027792 81662792 81314104 
3005.284 80979472 80657200 80345360 80041792 79744616 79451256 79158848 
3008.659 78864296 78564504 78256744 77938536 77608160 77264384 76906960 
3012.035 76536176 76153128 75759616 75358128 74951496 74543056 74136368 
3015.410 73734816 73342416 72962760 72599016 72253584 71927392 71619328 
3018.785 71326448 71044568 70768264 70491856 70210832 69920728 69618328 
3022.160 69301064 68966360 68611456 68234168 67832176 67404016 66949336 
3025.536 66469020 65964476 65438292 64893120 64331724 63756660 63170172 
3028.911 62573492 61967736 61353048 60729248 60095268 59450472 58794188 
3032.286 58126324 57447488 56758876 56062348 55360872 54656960 53954148 
3035.661 53255840 52565276 51885588 51219532 50569044 49935548 49319908 
3039.037 48722148 48142128 47579076 47032184 46500256 45982860 45479216 
3042.412 44989204 44513140 44051128 43603016 43168436 42746168 42334388 
3045.787 41931544 41536252 41147656 40765560 40390456 40022688 39662380 
3049.162 39308940 38961908 38620516 38284676 37954988 37632520 37318604 
3052.538 37013816 36718264 36430840 36149908 35873652 35600776 35330656 
3055.913 35063656 34800512 34541904 34288576 34041024 33799168 33563312 
3059.288 33333920 33111192 32895688 32687296 32485608 32289832 32099426 
3062.663 31913810 31733260 31558384 31390018 31228738 31074528 30926422 
3066.039 30783094 30642978 30504758 30367682 30231928 30098456 29968394 
3069.414 29843448 29725102 29614450 29512194 29418298 29331934 29252322 
3072.789 29178360 29109300 29045422 28987752 28937672 28896836 28866100 
3076.164 28845348 28832742 28825484 28820670 28815110 28806788 28794644 
3079.540 28778218 28757932 28734036 28706778 28676336 28643172 28607744 
3082.915 28571012 28533536 28495608 28456902 28416504 28373276 28326378 
3086.290 28275488 28220854 28163330 28103764 28042402 27979458 27914334 
3089.665 27846534 27775920 27702736 27627272 27550196 27471404 27390298 
3093.041 27305996 27217582 27124566 27027412 26927596 26826820 26727050 
3096.416 26629456 26534558 26441758 26350034 26257874 26164396 26068932 
3099.791 25971484 25872650 25773382 25675156 25579132 25486642 25398318 
3103.166 25314892 25236716 25163856 25096518 25034914 24979388 24930046 
3106.542 24887132 24850466 24819416 24794228 24774618 24761534 24756378 
3109.917 24760726 24776022 24803278 24842292 24891800 24950050 25014276 
3113.292 25082126 25151390 25220072 25286268 25348646 25405202 25454494 
3116.667 25495392 25527156 25549260 25561664 25564302 25556990 25539596 
3120.042 25511730 25473466 25425508 25369266 25306322 25238648 25168140 
3123.418 25095536 25021786 24947136 24871516 24795174 24718812 24643372 
3126.793 24570156 24500912 24437008 24379456 24328640 24283718 24243108 
3130.168 24204500 24165090 24122634 24075494 24023452 23967252 23908572 
3133.543 23849058 23789662 23730586 23671030 23609066 23543158 23471736 
3136.919 23393576 23308648 23217128 23119970 23018462 22914572 22809972 
3140.294 22706966 22607094 22511362 22419452 22330460 22242600 22154514 
3143.669 22065294 21975084 21884892 21796600 21711322 21629786 21551886 
3147.044 21476998 21404484 21334248 21267050 21204142 21147400 21097796 
3150.420 21055396 21019470 20988138 20959102 20930798 20901906 20871902 
3153.795 20841414 20810858 20781174 20753160 20727164 20703600 20682506 
3157.170 20663638 20646958 20632470 20620342 20610894 20604952 20602900 
3160.545 20604846 20610718 20619230 20629272 20639522 20648766 20656896 
3163.921 20664124 20671318 20679414 20689178 20700716 20713886 20727998 
3167.296 20742316 20755698 20767410 20776446 20782564 20785658 20786526 
3170.671 20786492 20787256 20791010 20798902 20811206 20827126 20844682 
3174.046 20861090 20874406 20882852 20885842 20884104 20878646 20871240 
3177.422 20863106 20855562 20849200 20844750 20842352 20842074 20843742 
3180.797 20847010 20851042 20855284 20859352 20862828 20866164 20869642 
3184.172 20873812 20878992 20885738 20893910 20904304 20916960 20932120 
3187.547 20949818 20969672 20990988 21013280 21036060 21059466 21084196 
3190.923 21111502 21142182 21176832 21215206 21256682 21299760 21343680 
3194.298 21387498 21431462 21476126 21521874 21569646 21619652 21671962 
3197.673 21726578 21783430 21842556 21903814 21967068 22031690 22097124 
3201.048 22162672 22227916 22292822 22357878 22423430 22489970 22557636 
3204.424 22626536 22696250 22766916 22838014 22909368 22980210 23049070 
3207.799 23114098 23173580 23226112 23271136 23309418 23342490 23372386 
3211.174 23400604 23428054 23454460 23479254 23501744 23521856 23539904 
3214.549 23557536 23575482 23594932 23615572 23636564 23656472 23673898 
3217.925 23687824 23697972 23705074 23710324 23715118 23721382 23730026 
3221.300 23742170 23757638 23776222 23796976 23818572 23839994 23860226 
3224.675 23879340 23897822 23916482 23936370 23958358 23982728 24009586 
3228.050 24039072 24071500 24107434 24147540 24192134 24241042 24293248 
3231.426 24346794 24400240 24452046 24501894 24550520 24599572 24650702 
3234.801 24705554 24764726 24827696 24893448 24960402 25026980 25092130 
3238.176 25155218 25215928 25274434 25331190 25386092 25439068 25489664 
3241.551 25536504 25578182 25613258 25640742 25660708 25674030 25682432 
3244.927 25688162 25693118 25697936 25702610 25705986 25706794 25703910 
3248.302 25697302 25687634 25676386 25665138 25655260 25647562 25642466 
3251.677 25639900 25639900 25642466 25647422 25655260 25665840 25679092 
3255.052 25694982 25713296 25733970 25756646 25781012 25806116 25831190 
3258.427 25854960 25877432 25898288 25918722 25939930 25963356 25989810 
3261.803 26019254 26051058 26083638 26115974 26146940 26175974 26203142 
3265.178 26228590 26252770 26275792 26297616 26318702 26339192 26359400 
3268.553 26379610 26399890 26419504 26437674 26453380 26465916 26475072 
3271.928 26480884 26483948 26484826 26484016 26481798 26477890 26472572 
3275.304 26465670 26457816 26448908 26439470 26429222 26418622 26407566 
3278.679 26396580 26386370 26377814 26371478 26367954 26366688 26366512 
3282.054 26366160 26364260 26359752 26352252 26342044 26329652 26315500 
3285.429 26300290 26284098 26267590 26251116 26235242 26220530 26207506 
3288.805 26196280 26186532 26177240 26167492 26156336 26143668 26129346 
3292.180 26114530 26100562 26088774 26080296 26075792 26074632 26075792 
3295.555 26077620 26078078 26075510 26069036 26058692 26045148 26029666 
3298.930 26013448 25997056 25980804 25964378 25947424 25929802 25912180 
3302.306 25895474 25881266 25870400 25863154 25859180 25857106 25855348 
3305.681 25852428 25847470 25840296 25831646 25822398 25813502 25805976 
3309.056 25800352 25796938 25795744 25796834 25800352 25806610 25815998 
3312.431 25828762 25845324 25865932 25890374 25917914 25947598 25977850 
3315.807 26006694 26033396 26056758 26076742 26094512 26111118 26128466 
3319.182 26147962 26170906 26197512 26228060 26261816 26297790 26334862 
3322.557 26371934 26407778 26441934 26473946 26504092 26532550 26559742 
3325.932 26585772 26610572 26633894 26655208 26674620 26692732 26710174 
3329.308 26728178 26747770 26768984 26791294 26813812 26834502 26852054 
3332.683 26865662 26874226 26877822 26876728 26871196 26861676 26848214 
3336.058 26831470 26811418 26788860 26763768 26736494 26707072 26675818 
3339.433 26643088 26609410 26575452 26541566 26507966 26473700 26437532 
3342.809 26398378 26354788 26306522 26253932 26197864 26139550 26080014 
3346.184 26019924 25959242 25898148 25836568 25775070 25714564 25655962 
3349.559 25599938 25546378 25494548 25442934 25389992 25334526 25275170 
3352.934 25212028 25145422 25076088 25005254 24934328 24864464 24796790 
3356.310 24731928 24670376 24611988 24556340 24502770 24450292 24398242 
3359.685 24345954 24293004 24239220 24184252 24127678 24069714 24010496 
3363.060 23950304 23890156 23830682 23772652 23716834 23663436 23612286 
3366.435 23563062 23515070 23467574 23419382 23370008 23318716 23265718 
3369.811 23211642 23157536 23104628 23053298 23003684 22954812 22904758 
3373.186 22851844 22795620 22736470 22676072 22616938 22561580 22510838 
3376.561 22464218 22419872 22374936 22327634 22277058 22223592 22169194 
3379.936 22115740 22064668 22015796 21968218 21919984 21869666 21816598 
3383.312 21760962 21703936 21646852 21590538 21535348 21480860 21426448 
3386.687 21371558 21315838 21259778 21203862 21148792 21094804 21042110 
3390.062 20990258 20938934 20887268 20834842 20781452 20726850 20671630 
3393.437 20616314 20561592 20508582 20457660 20408970 20362054 20316358 
3396.813 20271190 20226304 20181732 20137758 20094758 20052630 20010716 
3400.188 19967694 19922524 19874206 19822424 19767768 19711076 19653556 
3403.563 19596186 19539376 19483302 19427858 19373150 19319418 19266664 
3406.938 19214746 19162834 19110306 19055948 18998896 18939396 18878104 
3410.313 18816580 18756344 18698502 18643470 18591108 18540030 18489134 
3413.689 18437378 18384280 18329806 18274684 18219772 18166392 18114984 
3417.064 18066002 18018716 17971784 17923232 17870438 17812232 17748096 
3420.439 17679310 17608466 17539184 17474158 17415418 17362892 17314444 
3423.814 17267656 17220078 17169714 17116426 17061320 17005668 16950746 
3427.190 16896898 16843990 16790706 16736466 16680513 16623050 16564563 
3430.565 16505705 16447164 16389389 16332550 16277129 16223572 16172843 
3433.940 16125042 16080616 16038874 15998961 15959704 15920106 15879756 
3437.315 15838895 15798243 15758041 15718360 15678717 15637530 15593703 
3440.691 15546137 15494628 15439863 15383285 15326647 15271286 15217680 
3444.066 15164975 15111899 15056222 14996333 14931308 14861939 14790593 
3447.441 14720286 14654069 14594099 14540715 14492237 14445819 14398208 
3450.816 14346184 14288618 14225823 14159202 14090949 14023013 13956390 
3454.192 13891077 13826320 13761470 13695912 13629646 13563698 13498854 
3457.567 13435966 13375994 13318933 13264373 13211939 13160774 13109649 
3460.942 13057608 13003559 12946410 12886197 12823399 12759041 12694828 
3464.317 12632262 12571820 12513944 12457849 12402068 12345748 12287254 
3467.693 12226213 12161874 12094377 12023859 11951137 11877918 11805698 
3471.068 11736758 11672935 11615008 11562703 11514081 11466177 11415659 
3474.443 11359774 11296754 11226432 11150343 11071005 10991510 10915020 
3477.818 10843708 10779167 10721800 10670351 10622879 10576976 10530058 
3481.194 10480531 10428160 10373318 10317939 10263789 10211783 10161988 
3484.569 10113047 10063025 10010060 9953067 9891708 9826630 9758817 9688879 
3488.426 9617632 9545754 9474192 9404266 9338212 9277786 9224105 9176927 
3492.284 9134254 9092635 9048618 8999396 8943516 8881894 8816459 8749785 
3496.141 8684471 8622042 8563405 8509136 8459535 8414568 8374504 8339038 
3499.999 8307087 8276927 8246331 8213307 8176874 8136798 8094127 8050514 
3503.856 8007616 7966812 7928241 7891596 7855798 7819631 7781545 7739852 
3507.713 7693241 7641035 7583206 7521068 7457221 7394495 7335687 7282986 
3511.571 7236625 7195356 7157088 7119498 7080833 7040656 6999844 6959876 
3515.428 6922606 6889513 6860799 6835890 6813877 6793447 6773826 6754239 
3519.286 6734485 6714362 6693667 6671494 6647369 6620521 6590345 6556705 
3523.143 6519940 6480555 6439223 6396853 6353713 6309939 6265362 6219009 
3527.000 6169905 6117480 6060961 6000721 5937869 5874053 5811253 5751820 
3530.858 5697263 5648721 5606729 5570716 5539136 5510812 5483598 5455614 
3534.715 5425519 5392372 5355269 5314681 5270811 5224060 5175270 5125177 
3538.573 5074587 5024607 4976609 4931801 4891621 4856572 4826718 4801222 
3542.430 4778475 4756633 4733854 4707962 4678219 4643220 4602799 4557226 
3546.288 4507707 4456285 4405505 4358112 4316010 4280104 4249353 4221683 
3550.145 4193880 4162567 4125737 4082956 4035631 3986773 3939659 3897298 
3554.002 3860791 3830438 3804498 3781068 3757772 3732272 3703364 3670416 
3557.860 3633393 3593300 3551140 3508649 3467499 3429726 3396731 3370350 
3561.717 3351785 3341901 3341200 3348880 3362436 3377697 3387948 3385978 
3565.575 3364440 3318896 3248920 3159964 3062383 2967394 2886067 2824831 
3569.432 2784946 2763138 2753968 2750866 2748699 2743797 2734962 2722491 
3573.290 2707621 2691317 2674381 2656878 2638110 2617109 2593309 2566177 
3577.147 2535714 2503120 2469529 2436274 2404688 2375435 2349184 2326131 
3581.004 2306744 2291754 2282961 2281895 2289789 2306544 2330262 2356912 
3584.862 2380499 2393959 2391094 2367906 2323599 2261644 2189041 2114485 
3588.719 2045934 1989477 1948471 1922677 1910663 1909065 1914423 1922378 
3592.577 1929134 1931497 1927203 1915755 1897917 1875420 1850729 1825540 
3596.434 1800985 1777130 1753775 1730189 1706304 1682088 1657641 1633395 
3600.292 1609549 1586170 1563823 1543106 1525317 1512017 1505067 1505367 
3604.149 1513114 1526946 1544070 1560663 1572236 1574697 1565386 1543871 
3608.006 1511518 1472252 1431427 1393697 1362153 1337392 1317749 1299604 
3611.864 1279498 1254442 1224436 1191775 1160478 1136558 1124566 1126692 
3615.721 1141840 1166059 1192373 1212308 1217791 1202673 1165229 1108521 
3619.579 1039730 968692 904274 852380 815332 792759 782601 783033 793987 
3623.918 816228 850986 898563 955808 1015884 1068793 1101213 1100183 1057965 
3628.258 975168 864830 748280 648785 580963 548084 543439 556013 574725 
3632.597 591215 601268 605283 605781 606544 610426 617859 627183 635445 
3636.937 639725 638033 630169 616863 599211 578507 554985 528411 498389 
3641.277 465517 431918 401173 378091 367711 373680 397492 437821 490561 
3645.616 549113 605781 651439 678949 681969 657280 605183 529937 439082 
3649.956 343271 254842 185523 143162 131396 148134 186684 237138 288395 
3654.295 329543 352357 352424 331433 296418 256665 220563 193313 174353 
3658.635 160630 147338 130468 108295 81318 51824 23459 -165 -16169 -22431 
3663.457 -17295 0 30285 73663 129871 197125 272944 352954 430989 499948 
3668.279 552198 582290 589722 581228 570976 576915 614806 693485 811979 
3672.618 960623 1122938 1279564 1406894 1482957 1494361 1439738 1332406 
3676.476 1193270 1041856 888834 737692 587764 439911 298176 170607 64881 
3680.815 -13551 -64308 -92003 -103895 -106413 -102968 -93229 -74545 -44728 
3685.155 -3843 44335 92354 131429 154100 156387 139748 110615 77739 48577 
3689.977 27237 13552 5931 2650 3545 9277 20874 38172 59280 80920 99612 
3695.281 112305 118205 118768 117509 118006 123276 133550 146974 159271 
3699.620 165171 160000 141173 108560 65974 19549 -23458 -56589 -74743 -76466 
3704.442 -62055 -33696 5135 51294 101733 154398 206971 257693 303613 341016 
3709.264 365257 370729 353584 312500 249935 173590 94011 22067 -33199 -67753 
3714.085 -82264 -80408 -67455 -48571 -27533 -5135 18654 45694 77043 112968 
3718.907 151382 189137 221889 245857 258754 260776 254212 242907 230674 
3723.247 220231 212407 205811 197987 187214 172994 158011 147537 148068 
3727.586 165005 200739 253483 317540 384425 444654 490826 519023 530501 
3731.926 530634 528113 529008 534250 538828 533454 508739 459812 390593 
3736.266 311604 238829 185258 158409 158608 182043 222751 275795 337700 
3740.605 405186 473378 534548 576616 584347 544800 453477 322878 183037 
3744.945 73464 22664 38072 106969 206175 312002 403362 466778 496366 494575 
3749.767 469033 429695 384359 336772 288759 242575 202065 172132 157415 
3754.106 158840 174452 199247 228022 255505 278580 295324 305006 306995 
3758.446 300198 283786 258621 228220 199181 178960 173458 184927 210518 
3762.785 243669 276425 302519 318866 326890 332063 340419 356403 380213 
3767.125 407740 432216 446843 446412 429662 398918 359487 317440 278017 
3771.465 244266 217247 196429 180684 168950 160862 156354 156188 161227 
3775.804 171999 187711 206805 225403 239525 244962 239691 224375 203656 
3780.144 183269 169215 164541 169149 179623 190960 198617 199910 194407 
3784.483 184396 172728 162320 154962 150918 149857 151581 156056 163447 
3788.823 173325 184463 194805 202463 206076 206242 204352 203424 205015 
3793.163 209225 213767 215258 210518 199545 185490 175778 179192 202065 
3797.502 246620 308388 377958 442399 488007 503962 485021 435267 367512 
3801.842 301558 256334 242111 259417 299734 349539 393479 418353 416164 
3806.181 385818 334749 276657 226894 195833 186120 194175 213402 237801 
3810.521 264490 294329 330571 375637 429596 487509 540752 578872 592608 
3814.861 578474 541980 498091 466446 463063 495503 559795 643807 729826 
3819.200 800560 840927 841392 802120 734008 656085 587267 541150 521046 
3823.540 522108 534316 546558 550307 540819 518658 488869 459314 437523 
3827.879 427241 428734 438717 452216 465020 474639 481936 490030 503697 
3832.219 526819 561720 608203 662921 721098 776958 824129 856995 871703 
3836.559 866391 842819 805804 763117 722989 691527 671582 662058 658773 
3840.898 656749 650676 637004 614109 582356 543871 502834 463228 429961 
3845.238 407308 397956 403528 424157 459082 506583 565634 635279 714725 
3849.577 802418 894545 983802 1058563 1104003 1103571 1046174 932431 780875 
3853.917 622769 489864 402367 363765 365124 392650 434438 481140 527549 
3858.257 571772 613379 652103 687180 717414 741111 757342 765142 764013 
3862.596 753690 733577 703939 667866 630998 601700 588925 599344 633388 
3866.936 685753 745061 798335 833125 841757 825457 794385 764611 749641 
3871.275 756379 781307 814867 843915 857991 851218 825755 789207 752662 
3875.615 726408 716517 722890 741011 764013 784095 794186 790535 772909 
3879.955 745559 716617 694879 688706 701218 731121 771780 813572 846272 
3884.294 860946 854239 829673 797572 771349 763283 778983 816394 867287 
3888.634 920079 962947 985795 983171 955144 907893 850554 794352 748015 
3892.973 716418 700952 700355 712668 735734 767631 806701 850422 896205 
3897.313 940633 980017 1011500 1033586 1046539 1052684 1054378 1053680 
3901.170 1051089 1044214 1029866 1005090 968460 921739 869511 818718 775996 
3905.510 745625 728797 723719 727271 735668 746488 758304 770884 784195 
3909.850 798601 813340 827648 840927 853243 865262 878110 892553 908424 
3914.189 924063 936980 944418 944717 938209 927052 914832 905336 900887 
3918.529 902215 908656 918651 931235 945779 962748 982175 1003695 1025283 
3922.868 1043782 1055773 1058430 1050591 1033519 1010304 985496 962881 
3926.726 945414 934390 929841 930704 935519 942559 949964 955708 958132 
3931.065 955542 947075 933095 915397 895973 877812 863104 852712 847334 
3935.405 846637 850322 858057 870474 887506 909088 934323 961187 987024 
3939.745 1008843 1024319 1032025 1032457 1027010 1018673 1010337 1004758 
3943.602 1003429 1006784 1013592 1022028 1029866 1034848 1035412 1030995 
3947.459 1021895 1009441 995459 981943 970486 962549 958099 957070 958564 
3951.799 961553 964907 967597 968925 968294 965737 961387 956074 951093 
3956.139 947573 946543 948702 953915 961652 970851 980149 988551 995725 
3960.478 1001304 1005821 1009806 1013725 1017445 1020733 1022626 1022725 
3964.336 1020400 1015850 1009706 1002931 996987 992603 990477 990743 992769 
3968.675 995658 998680 1000939 1002134 1002267 1001437 1000241 999012 998149 
3973.015 998182 999378 1002167 1006751 1012895 1020002 1026943 1032457 
3976.872 1034914 1033685 1028405 1020234 1010238 1000673 992835 987522 
3980.730 984998 984400 984965 985728 986326 986559 986824 986990 986990 
3985.069 986127 983603 978921 971781 963047 954181 946809 942426 942326 
3989.409 946344 954546 965737 979087 994031 1009806 1025947 1041723 1056038 
3993.749 1067265 1073842 1074573 1069225 1058662 1045011 1031128 1020002 
3997.606 1013990 1014090 1020467 1030929 1043384 1055474 1065006 
##END=
