
##TITLE=Z382_3_b
##JCAMP-DX=5.01  $$ Nicolet v. 1
##DATATYPE=INFRARED SPECTRUM
##ORIGIN=UniL
##OWNER=Nicolet
##LONGDATE=2011/09/09
##TIME=10:40:24
##SPECTROMETER/DATA SYSTEM=Nicolet iS5
##DATA PROCESSING=
Ratio against background
%Transmittance->Absorbance
Truncated
ElementMultiply or ElementDivide
##COMMENTS=
Number of sample scans: 32
Collection length: 51.18 sec
Sample gain: 2.0
Background collected on: Ven Sep 09 10:32:29 2011 (GMT+02:00);
Number of background scans: 32
Background gain: 2.0
Sample spacing:  1.000
Number of scan points: 12415
Resolution points: 8192
Number of FFT points: 65536
Apodization: N-B fort;
Phase correction: Mertz;
Laser frequency: 15798.0 cm-1
Number of rejected sample scans: 0
Number of rejected background scans: 0
Bench serial number: ASB1000141;
##RESOLUTION=4.000
##XUNITS=1/CM
##YUNITS=ABSORBANCE
##FIRSTX=649.893372
##LASTX=4000.122314
##FIRSTY=0.080933
##MAXX=4000.122314
##MINX=649.893372
##MAXY=0.212360
##MINY=-0.000596
##XFACTOR=1.000000
##YFACTOR=1.000000E-009
##NPOINTS=6950
##DELTAX=0.482117
##ZPD=6100
##XYDATA=(X++(Y..Y))
649.893 80932728 80943344 81041768 81242072 81526288 81855688 82191720 
653.268 82517504 82843136 83198904 83613408 84097592 84636344 85198024 
656.643 85750488 86279344 86793208 87316968 87873520 88469416 89087736 
660.018 89697072 90268432 90786680 91259024 91704336 92142648 92580584 
663.393 93008040 93401992 93738192 93997256 94162544 94216464 94133168 
666.767 93880312 93437400 92821360 92099760 91364920 90690032 90096008 
670.142 89553504 89001672 88374008 87623104 86731424 85718568 84628328 
673.517 83515608 82420352 81358416 80325592 79309952 78307416 77328832 
676.892 76395472 75529176 74740184 74022488 73357480 72724080 72109368 
680.267 71514312 70949208 70425528 69947704 69508664 69093920 68689344 
683.642 68289224 67900480 67539136 67221944 66957684 66743888 66568196 
687.016 66415040 66272324 66135140 66004128 65880136 65759800 65635072 
690.391 65495304 65335796 65161556 64988928 64837912 64725132 64655608 
693.766 64621040 64603812 64585200 64554944 64512432 64465188 64420184 
697.141 64378372 64331532 64266288 64171328 64045556 63899204 63751556 
700.516 63620648 63515896 63435516 63368648 63302636 63230224 63152812 
703.890 63078016 63012280 62955776 62899552 62830204 62738000 62623396 
707.265 62499868 62388004 62308484 62273412 62282784 62328292 62401584 
710.640 62501548 62637904 62827484 63087216 63425048 63836180 64302824 
714.015 64797632 65292776 65757336 66158064 66461028 66630764 66642008 
717.390 66495276 66230648 65932812 65708876 65670028 65883644 66344084 
720.765 66957728 67560080 67963048 67988240 67529416 66570936 65184736 
724.139 63500820 61671088 59843592 58125300 56584008 55250040 54123720 
727.514 53187712 52415040 51776536 51241636 50783104 50380872 50021796 
730.889 49700320 49415424 49166264 48948912 48754844 48573868 48396888 
734.264 48220168 48045076 47876236 47717664 47569280 47427268 47285000 
737.639 47137432 46984040 46828784 46678012 46536472 46404712 46279260 
741.013 46154988 46028208 45899952 45774832 45658688 45555016 45462184 
744.388 45373968 45283784 45188656 45091492 45001588 44929636 44884364 
747.763 44867468 44873968 44894028 44918244 44940768 44960244 44978512 
751.138 44996740 45013608 45025072 45026396 45015776 44995820 44973364 
754.513 44956312 44949512 44952860 44961348 44968216 44968512 44961752 
757.888 44951316 44942128 44937608 44937424 44939260 44941208 44945212 
761.262 44958408 44991520 45055396 45157036 45297796 45474580 45684052 
764.637 45926320 46207536 46537872 46928552 47387872 47919224 48523064 
768.012 49201664 49964880 50835028 51853328 53080056 54596200 56511508 
771.387 58949308 62039240 65891588 70549968 75946000 81841728 87840256 
774.762 93362712 97725712 100314344 100661240 98604512 94321112 88298768 
778.136 81214584 73756368 66572480 60131536 54693148 50347308 47032816 
781.511 44603164 42868592 41651552 40803488 40208788 39793416 39509936 
784.886 39329400 39235712 39218012 39267840 39377828 39540748 39750424 
788.261 40003104 40296868 40632416 41010896 41433412 41900452 42411652 
791.636 42967604 43570636 44225648 44940032 45721968 46579328 47520112 
795.010 48552152 49685572 50934272 52315792 53851288 55565600 57484288 
798.385 59637600 62064124 64810596 67939184 71523184 75635048 80338296 
801.760 85664152 91593656 98032968 104803896 111650096 118214752 124094072 
805.135 128874776 132163808 133690936 133347616 131223528 127586872 
808.028 122849480 117510232 112040904 106875600 102358856 98700160 95996480 
811.402 94217456 93228152 92794648 92620040 92400400 91831832 90679744 
814.777 88811088 86194472 82904808 79090312 74952600 70696824 66510344 
818.152 62553480 58932988 55711620 52910440 50515848 48491464 46787080 
821.527 45352524 44139224 43106556 42225008 41472052 40831188 40290504 
824.902 39839504 39470348 39177796 38960172 38819132 38758920 38784820 
828.277 38901384 39110680 39412184 39801952 40272436 40811820 41404800 
831.651 42032240 42672648 43306976 43919796 44500988 45044920 45544416 
835.026 45984592 46338756 46565164 46614224 46441292 46015092 45331892 
838.401 44416860 43323228 42118976 40873776 39653816 38508156 37469300 
841.776 36555532 35772292 35116640 34579684 34149876 33813280 33555692 
845.151 33365336 33232574 33150814 33115410 33121776 33163652 33233826 
848.525 33324332 33429026 33545524 33675260 33822624 33992256 34187332 
851.900 34408320 34653568 34921216 35211168 35525508 35867968 36241960 
855.275 36649112 37088768 37558924 38058380 38588792 39155204 39765636 
858.650 40429584 41156400 41956540 42842848 43832884 44952564 46236320 
862.025 47724468 49465324 51506280 53890708 56652748 59804044 63321992 
865.400 67128744 71087416 74987376 78545680 81463808 83444856 84257752 
868.774 83796656 82091992 79314728 75724816 71648840 67412960 63286000 
872.149 59484520 56140320 53308020 50985612 49128604 47671252 46536804 
875.524 45655484 44967960 44426292 43998072 43661308 43401364 43209276 
878.899 43078268 43003232 42980772 43008500 43085404 43210488 43382140 
882.274 43597816 43854472 44149824 44483148 44856480 45273084 45736620 
885.648 46248152 46806936 47410080 48054884 48741092 49473272 50262036 
889.023 51124956 52084464 53169252 54413148 55847664 57497980 59370312 
892.398 61441476 63646392 65874504 67988160 69825808 71238168 72120552 
895.773 72419888 72148328 71368352 70180336 68695016 67016564 65242676 
899.148 63452044 61710388 60074988 58588732 57282056 56170748 55254968 
902.523 54522680 53954332 53530600 53234040 53051676 52973960 52991816 
905.897 53095816 53276932 53527528 53844576 54228896 54685140 55218472 
909.272 55833044 56531696 57317596 58197504 59184136 60294512 61548216 
912.647 62963480 64552256 66320540 68268984 70395600 72697480 75168832 
916.022 77797968 80561496 83421328 86328848 89222320 92033688 94692760 
919.397 97113168 99192976 100814136 101837848 102138264 101630544 100301024 
922.771 98231128 95596744 92659240 89702248 87010552 84834640 83347256 
926.146 82656120 82800472 83761696 85473624 87827768 90688480 93879648 
929.521 97201232 100454328 103433736 105960160 107893128 109120560 109571024 
932.896 109210840 108045768 106129904 103570992 100544952 97273648 94023128 
936.271 91090704 88748776 87246640 86783216 87477672 89374408 92423392 
939.646 96484696 101302328 106509136 111672248 116275936 119814144 121877232 
943.020 122179944 120644480 117398456 112761784 107165096 101071392 94933144 
946.395 89096400 83799112 79175704 75261264 72027736 69406680 67317304 
949.770 65674460 64398968 63427000 62702404 62179576 61824980 61610944 
953.145 61517136 61529012 61633856 61820780 62079836 62400324 62772652 
956.520 63188760 63641748 64126356 64638496 65173528 65727068 66294364 
959.894 66871604 67456696 68049664 68652520 69267248 69895240 70535816 
963.269 71186520 71844144 72506056 73171288 73841000 74517488 75202320 
966.644 75896280 76598904 77308720 78025576 78751272 79489208 80244264 
970.019 81020768 81821648 82648832 83503808 84389040 85309304 86270360 
973.394 87278880 88339936 89455944 90626752 91850872 93127016 94455024 
976.768 95835360 97267592 98747704 100267008 101813176 103370296 104923616 
980.143 106460016 107967768 109435824 110851296 112198032 113459616 
983.036 114621896 115676048 116622488 117468760 118227584 118910824 
985.929 119528176 120085712 120587264 121038136 121446224 121821704 
988.821 122174976 122513352 122839408 123151856 123448936 123731416 
991.714 124005760 124282744 124574944 124894032 125246648 125634848 
994.607 126057984 126515376 127007600 127536120 128100736 128697160 
997.500 129315672 129943448 130567240 131178352 131774488 132359432 
1000.392 132939592 133520440 134104136 134690064 135277776 135870416 
1003.285 136475808 137105696 137773040 138487120 139253200 140074016 
1006.178 140953392 141900800 142934496 144078272 145360096 146808176 
1009.070 148446016 150294912 152372560 154689008 157238928 159986256 
1011.963 162854752 165707808 168360416 170606944 172238544 173104592 
1014.856 173144432 172403152 171021600 169206032 167199424 165217856 
1017.748 163436640 161974608 160884480 160169904 159798416 159721296 
1020.641 159883440 160235248 160741872 161380016 162139280 163017136 
1023.534 164012864 165123360 166340768 167652304 169044288 170505376 
1026.427 172028096 173608816 175244640 176929888 178654960 180406464 
1029.320 182170112 183935584 185697488 187454320 189205296 190946528 
1032.213 192668848 194360496 196010128 197611760 199166176 200679264 
1035.106 202156640 203598400 204996416 206335120 207595952 208759360 
1037.999 209807968 210722960 211477792 212035888 212349216 212359952 
1040.892 212014480 211267920 210090288 208469600 206408784 203922912 
1043.785 201037840 197793744 194247488 190468032 186539520 182550096 
1046.678 178577920 174693408 170949488 167382304 164018336 160874592 
1049.571 157961376 155282688 152834160 150603008 148568176 146705008 
1052.464 144988016 143394064 141905136 140505456 139179328 137910160 
1055.357 136677632 135459776 134236720 132990896 131708832 130380960 
1058.250 128998504 127553624 126038984 124450440 122789424 121064408 
1061.144 119291920 117492944 115689104 113901464 112146552 110437112 
1064.037 108784464 107197584 105684392 104251128 102900480 101631344 
1066.930 100438920 99316440 98257224 97255904 96309704 95416992 94576168 
1070.305 93784488 93037400 92329448 91656088 91014128 90402160 89820152 
1073.680 89267448 88742592 88242648 87765144 87309712 86880096 86485464 
1077.055 86138272 85854896 85652728 85547536 85554320 85685224 85947688 
1080.431 86343680 86866208 87498256 88208792 88955272 89688880 90354424 
1083.806 90901296 91289688 91492200 91499840 91322272 90989120 90545600 
1087.181 90050880 89575456 89187120 88950952 88922496 89141064 89634504 
1090.556 90420280 91509088 92911512 94639896 96708600 99131976 101917904 
1093.932 105059992 108526376 112251104 116131104 120009256 123690584 
1096.825 126953792 129556864 131290584 132003608 131629496 130205320 
1099.718 127864584 124820048 121307752 117573384 113837984 110265120 
1102.611 106974568 104036144 101475064 99288584 97453136 95935640 94698080 
1105.986 93703776 92921856 92325600 91894600 91612968 91466392 91441720 
1109.361 91525248 91702368 91959936 92286832 92675280 93121640 93624064 
1112.737 94178896 94775184 95387528 95967872 96448288 96734232 96717296 
1116.112 96298792 95399160 93987752 92093128 89808296 87273336 84645848 
1119.487 82086512 79719016 77620328 75822456 74316760 73071072 72044360 
1122.862 71203040 70525136 70002824 69640504 69451384 69455432 69674888 
1126.238 70133528 70849656 71827184 73045816 74450104 75949560 77409336 
1129.613 78669216 79566448 79940896 79672040 78692768 76995880 74639328 
1132.988 71736960 68452080 64960108 61437776 58044512 54895080 52066572 
1136.363 49596604 47488396 45723876 44271508 43097552 42166544 41445732 
1139.739 40906432 40520152 40260916 40106844 40038528 40041512 40105096 
1143.114 40220856 40380784 40576784 40799448 41040288 41292444 41551892 
1146.489 41817592 42090132 42370664 42659600 42956812 43262168 43576572 
1149.864 43902528 44243772 44603272 44982404 45379228 45790036 46209748 
1153.240 46634144 47060948 47489692 47920560 48352888 48783576 49207896 
1156.615 49619484 50012132 50380388 50719240 51022988 51285260 51496992 
1159.990 51648180 51729728 51734132 51656356 51494456 51246928 50912624 
1163.365 50489836 49976888 49373844 48683380 47912452 47071032 46170868 
1166.740 45224432 44243036 43236620 42214892 41187148 40163284 39154480 
1170.116 38170372 37219932 36309856 35443820 34624212 33852032 33128820 
1173.491 32456260 31836324 31270612 30759264 30300742 29892784 29532234 
1176.866 29216812 28944754 28714742 28524762 28372358 28253704 28165770 
1180.241 28107298 28080256 28089978 28144524 28252962 28422764 28659808 
1183.617 28967776 29348950 29805546 30340110 30955276 31654098 32440048 
1186.992 33318572 34300052 35402008 36648428 38070316 39697380 41549636 
1190.367 43628884 45911076 48343964 50844228 53313868 55645892 57736680 
1193.742 59508876 60916240 61955352 62664696 63123844 63442684 63737476 
1197.118 64128928 64719252 65576300 66731328 68168152 69827016 71600808 
1200.493 73350424 74921384 76145824 76877288 77003160 76452760 75210200 
1203.868 73309424 70829768 67877624 64582168 61085424 57519128 54008552 
1207.243 50659960 47547760 44721264 42200980 39982688 38044780 36354636 
1210.619 34878308 33581532 32436762 31424038 30528716 29741956 29058496 
1213.994 28475476 27991474 27606368 27320038 27131762 27039400 27038060 
1217.369 27121992 27283696 27516200 27814634 28175882 28598048 29079716 
1220.744 29617926 30208236 30845556 31524428 32240830 32992308 33776284 
1224.120 34589408 35425304 36275564 37130848 37984060 38832100 39678064 
1227.495 40530480 41402284 42307400 43260120 44274332 45362344 46536212 
1230.870 47806912 49182740 50668784 52265640 53970768 55779656 57688808 
1234.245 59697588 61808440 64025588 66352464 68790080 71335664 73983552 
1237.621 76724056 79543168 82417984 85308904 88158704 90885848 93386008 
1240.996 95550544 97270872 98457352 99058592 99066584 98526560 97528648 
1244.371 96211240 94742128 93290376 92027800 91098312 90606664 90625608 
1247.746 91190144 92308144 93970224 96158680 98851696 102018600 105617664 
1251.122 109581392 113800952 118132760 122382888 126312528 129673240 
1254.015 132199880 133645728 133825872 132623136 130022688 126110168 
1256.908 121068920 115146816 108611520 101747296 94808816 88008536 81528640 
1260.283 75499720 70006480 65094768 60769260 57003596 53746840 50936764 
1263.658 48504764 46383476 44516996 42858496 41373528 40040640 38847504 
1267.033 37790344 36872040 36101224 35491168 35057256 34816592 34783568 
1270.409 34965460 35358732 35944912 36689204 37536308 38417720 39253556 
1273.784 39954824 40441008 40643876 40518404 40053824 39273500 38233836 
1277.159 37008048 35681308 34334332 33029024 31810402 30702470 29711088 
1280.534 28831680 28052792 27362100 26746960 26196456 25701450 25254416 
1283.910 24850220 24485628 24159836 23872478 23623340 23410676 23231670 
1287.285 23082718 22961134 22865114 22794850 22750576 22731510 22734584 
1290.660 22754102 22784374 22819888 22858198 22900180 22949014 23008156 
1294.035 23080028 23164668 23260894 23367806 23485550 23616624 23764672 
1297.411 23933114 24123616 24335404 24566158 24813978 25077842 25359044 
1300.786 25659618 25981366 26323948 26685684 27063272 27454462 27858862 
1304.161 28277858 28713504 29166206 29634280 30112518 30595406 31077944 
1307.536 31557814 32035782 32513928 32993380 33473116 33949120 34416388 
1310.912 34870516 35309920 35735916 36152932 36566740 36982936 37407904 
1314.287 37848436 38311164 38801888 39320364 39857008 40386748 40869740 
1317.662 41257464 41496624 41545256 41380780 41004160 40438860 39724352 
1321.037 38908780 38036644 37146584 36269872 35428792 34641152 33921636 
1324.413 33280794 32725808 32259532 31880394 31584606 31367120 31223326 
1327.788 31149064 31139346 31188010 31286206 31423822 31591020 31779174 
1331.163 31981890 32194440 32411524 32626570 32831288 33016298 33173562 
1334.538 33298500 33389806 33449568 33480812 33485930 33465602 33419080 
1337.914 33346262 33248816 33132148 33003784 32871242 32740708 32614924 
1341.289 32493822 32376286 32262030 32152872 32052658 31966552 31899150 
1344.664 31854830 31837072 31850122 31899866 31992804 32136314 32335806 
1348.039 32593854 32910344 33283692 33712788 34198480 34742684 35346652 
1351.415 36007980 36719096 37467964 38239080 39017332 39789348 40541792 
1354.790 41259904 41923624 42505004 42973088 43296724 43451240 43426996 
1358.165 43231056 42888960 42438212 41927968 41412164 40942040 40569256 
1361.540 40341476 40297960 40471376 40880768 41530164 42408620 43492804 
1364.916 44748996 46129340 47574160 49007000 50330160 51444056 52256260 
1368.291 52701984 52763864 52472728 51902428 51143596 50294144 49441044 
1371.666 48646944 47957888 47399696 46980496 46690996 46502356 46369208 
1375.041 46227660 46009604 45654788 45117040 44377004 43444060 42357656 
1378.417 41178004 39977784 38831704 37798620 36921460 36227804 35732316 
1381.792 35444824 35372712 35522056 35901616 36527384 37426792 38643948 
1385.167 40231252 42231144 44648000 47414848 50383476 53321396 55967432 
1388.542 58084692 59486872 60076472 59835340 58814452 57113136 54861956 
1391.917 52210448 49295484 46254860 43225532 40334932 37709164 35448676 
1395.293 33607096 32183238 31125996 30360184 29801216 29378268 29044360 
1398.668 28773438 28559616 28407306 28322524 28306078 28351914 28448554 
1402.043 28583290 28745008 28926832 29128184 29354446 29616330 29925902 
1405.418 30295234 30734262 31248856 31842456 32514748 33260618 34065644 
1408.794 34903980 35739152 36523240 37208884 37760560 38161328 38418224 
1412.169 38556924 38613852 38622472 38607696 38584084 38557180 38529444 
1415.544 38504244 38487840 38488568 38515396 38576012 38678356 38831920 
1418.919 39048432 39340788 39717132 40175640 40704424 41284024 41894396 
1422.295 42517684 43144828 43776476 44420460 45086308 45778660 46492140 
1425.670 47211636 47916856 48587132 49208232 49772508 50280264 50737708 
1429.045 51157720 51560380 51971216 52425580 52963892 53623708 54436656 
1432.420 55420724 56581860 57919396 59437064 61150420 63083268 65256460 
1435.796 67664648 70252664 72915416 75527512 77986112 80236768 82264592 
1439.171 84067520 85635296 86932664 87901912 88484368 88629160 88314120 
1442.546 87549568 86376184 84855712 83056664 81053432 78910352 76674048 
1445.921 74377160 72038960 69680608 67344048 65098428 63036108 61256816 
1449.297 59836788 58818472 58206216 57970212 58051780 58365440 58813384 
1452.672 59281960 59656492 59836100 59723816 59233276 58295068 56880408 
1456.047 55043656 52947384 50854100 49022948 47611128 46648940 46077720 
1459.422 45811724 45775460 45917116 46200940 46596040 47072176 47592792 
1462.798 48114884 48598136 49007000 49321652 49545240 49704628 49842484 
1466.173 50001424 50219116 50519688 50914260 51403776 51981152 52633828 
1469.548 53339976 54068136 54772488 55382704 55813076 55975800 55806632 
1472.923 55293996 54480304 53442752 52260672 51003424 49728368 48483500 
1476.299 47319440 46285524 45419580 44745724 44268976 43979260 43860776 
1479.674 43899924 44091212 44438476 44952564 45645108 46524152 47590016 
1483.049 48836408 50253744 51837500 53591544 55532048 57685668 60082712 
1486.424 62748648 65696656 68923440 72413584 76147480 80106376 84271792 
1489.800 88612832 93079712 97596016 102069688 106409088 110540480 114414648 
1493.175 117985744 121208056 124018848 126324984 128028152 129051048 
1496.068 129380528 129086272 128317680 127264384 126093464 124936832 
1498.961 123882864 122984824 122283600 121811432 121588584 121620064 
1501.854 121885264 122336952 122891552 123428416 123786632 123730320 
1504.747 122956552 121115120 117885400 113153896 107142800 100368152 
1507.640 93399560 86624384 80176392 74017384 68052448 62217008 56506072 
1511.015 50995376 45814044 41088616 36924200 33364724 30390710 27941082 
1514.391 25932404 24281720 22909962 21753124 20766854 19922110 19209306 
1517.766 18629150 18181594 17857664 17634864 17476744 17345098 17209840 
1521.141 17065798 16935862 16859488 16868134 16968626 17144896 17368136 
1524.516 17613194 17865882 18129632 18420990 18761290 19163734 19627558 
1527.892 20140394 20686886 21256578 21848444 22470464 23134926 23851860 
1531.267 24626188 25455302 26329758 27237584 28165346 29101896 30036634 
1534.642 30960756 31864278 32735954 33560344 34320348 35000656 35584340 
1538.017 36057660 36408788 36627880 36704816 36631808 36411924 36063780 
1541.393 35620268 35118256 34583772 34024648 33429314 32778260 32056690 
1544.768 31269864 30444122 29620480 28834690 28100228 27406074 26722680 
1548.143 26018058 25273554 24496564 23718618 22985170 22331540 21769078 
1551.518 21284484 20850764 20442970 20049020 19675574 19341764 19067648 
1554.894 18860524 18709572 18587374 18458016 18278794 18003210 17589592 
1558.269 17014144 16297253 15512277 14757923 14109808 13595492 13204457 
1561.644 12906131 12666546 12454064 12245264 12028900 11808047 11598094 
1565.019 11420285 11292299 11219122 11192058 11192705 11202020 11205896 
1568.395 11200320 11191820 11194302 11222319 11284648 11383821 11518946 
1571.770 11688353 11891914 12129504 12400090 12698615 13018001 13351358 
1575.145 13696117 14057545 14448525 14884741 15374807 15918387 16510008 
1578.520 17143656 17816892 18531490 19290598 20093474 20930416 21782630 
1581.896 22620636 23409592 24116400 24709518 25163750 25462010 25593506 
1585.271 25556606 25358306 25015082 24551326 23996908 23387456 22756336 
1588.646 22130700 21527514 20950408 20393308 19844620 19294374 18737418 
1592.021 18174338 17608570 17044192 16484229 15931586 15392863 14880558 
1595.396 14411943 14006451 13678268 13431217 13259283 13149708 13090696 
1598.772 13075466 13105926 13188883 13331609 13536693 13801008 14118741 
1602.147 14486996 14910562 15403128 15982701 16667498 17470018 18395342 
1605.522 19443140 20610926 21896356 23294664 24793736 26370350 27985502 
1608.897 29589442 31130766 32561388 33849884 34984312 35972884 36837520 
1612.273 37605932 38301936 38936864 39507216 39993840 40366968 40589740 
1615.648 40625648 40448680 40050084 39438704 38635328 37660492 36529764 
1619.023 35252456 33835344 32283730 30602910 28805268 26910782 24953032 
1622.398 22989082 21091464 19337502 17791486 16486190 15420705 14565728 
1625.774 13879787 13319070 12846880 12440152 12087733 11788811 11547187 
1629.149 11366270 11245406 11179343 11159386 11175297 11216912 11273425 
1632.524 11333789 11385759 11414639 11405488 11346645 11234967 11082153 
1635.899 10911895 10753420 10627226 10539597 10484571 10449543 10419778 
1639.275 10383804 10335482 10274612 10206560 10139026 10079303 10031252 
1642.650 9993820 9961305 9924691 9873675 9796975 9685526 9534339 9345998 
1646.507 9132901 8916187 8721082 8568677 8470989 8429230 8435042 8473050 
1650.365 8520725 8551138 8530525 8424906 8215839 7921188 7600807 7324466 
1654.222 7133880 7028264 6982536 6966610 6957890 6943513 6918499 6883656 
1658.080 6842992 6801121 6760499 6721260 6680477 6633306 6574635 6500163 
1661.937 6408656 6303484 6192692 6087103 5997731 5931488 5890107 5869250 
1665.794 5860820 5854607 5839999 5808097 5754103 5677389 5582899 5478867 
1669.652 5376202 5284260 5210144 5157398 5125713 5110794 5104692 5096512 
1673.509 5073649 5025042 4946748 4845146 4738075 4646234 4585386 4559369 
1677.367 4561077 4577484 4595901 4608794 4615826 4623361 4639670 4670717 
1681.224 4714862 4762127 4794455 4791775 4738879 4635518 4502082 4373105 
1685.082 4279836 4234330 4230583 4252934 4285826 4316546 4337696 4346164 
1688.939 4342248 4328962 4311426 4297170 4294159 4309050 4345695 4402258 
1692.796 4471751 4541154 4595231 4620079 4608995 4568309 4518353 4485644 
1696.654 4487887 4527058 4588668 4650856 4686860 4674267 4604541 4490130 
1700.511 4365675 4268459 4222017 4225631 4263407 4313434 4356037 4376453 
1704.369 4366044 4324712 4260529 4187457 4119147 4065062 4028775 4007841 
1708.226 3997474 3992257 3988545 3985202 3983028 3983462 3988144 3997441 
1712.083 4010649 4026300 4043357 4061149 4080080 4099914 4118846 4132628 
1715.941 4134568 4118311 4081050 4026835 3966977 3916823 3888639 3887569 
1719.798 3912042 3954906 4007606 4062453 4114498 4161363 4203449 4242461 
1723.656 4280840 4321097 4364805 4413706 4468738 4529804 4595366 4661875 
1727.513 4724174 4776800 4815796 4840958 4856036 4866658 4878251 4891956 
1731.371 4903048 4899328 4864245 4782696 4648411 4473358 4286462 4123897 
1735.228 4010582 3951596 3935780 3944474 3959253 3964469 3950325 3913680 
1739.085 3857983 3791830 3725421 3667174 3620997 3586318 3560427 3539615 
1742.943 3521242 3504207 3488842 3477152 3470872 3471440 3478989 3492249 
1746.800 3508850 3525618 3539281 3547331 3547832 3539448 3521643 3494988 
1750.658 3461287 3425017 3392490 3370117 3362670 3371252 3392723 3420141 
1754.515 3443819 3454841 3446725 3418304 3374691 3325807 3282538 3251490 
1758.373 3234132 3225686 3218743 3205357 3179790 3140673 3091081 3037291 
1762.230 2987044 2946977 2921157 2910416 2913185 2926061 2943908 2960821 
1766.087 2971230 2970830 2959287 2939471 2917955 2901277 2892571 2889635 
1769.945 2885433 2870157 2835270 2777776 2702620 2623042 2553611 2504753 
1773.802 2478193 2468563 2467497 2467730 2465864 2462798 2461898 2466130 
1777.660 2475661 2487491 2496888 2499088 2492389 2478793 2463465 2452002 
1781.517 2447970 2450969 2457733 2463331 2463831 2457567 2445837 2432143 
1785.375 2420714 2414617 2415716 2425145 2442972 2469196 2503187 2543013 
1789.232 2584142 2620775 2645744 2652711 2638810 2605942 2561044 2513585 
1793.089 2472695 2444271 2429410 2426345 2431909 2443005 2456967 2471595 
1796.947 2484925 2494922 2499521 2497522 2488691 2474028 2455901 2436974 
1800.804 2419448 2405354 2395259 2389428 2387929 2390428 2396791 2405987 
1804.662 2417215 2429244 2441206 2453035 2465131 2478360 2492723 2507253 
1808.519 2519850 2527682 2528548 2521783 2508686 2492356 2476661 2464198 
1812.376 2456434 2452968 2452002 2452135 2452835 2454268 2457933 2465431 
1816.234 2477860 2495655 2518484 2545779 2576743 2610809 2647377 2685616 
1820.091 2724392 2762871 2800219 2836237 2869923 2900576 2926361 2944975 
1823.949 2954750 2955417 2949646 2942106 2938303 2942006 2953916 2971163 
1827.806 2987577 2996519 2993016 2975967 2948578 2917221 2888701 2867188 
1831.664 2852779 2842207 2831201 2816227 2795984 2771641 2745932 2722024 
1835.521 2702119 2687316 2677115 2670914 2668547 2670613 2678315 2693184 
1839.378 2716056 2747299 2786013 2830134 2876360 2919923 2955150 2976568 
1843.236 2981038 2969829 2950113 2932733 2928496 2944475 2981572 3035256 
1847.093 3097922 3161332 3220045 3272188 3319530 3365709 3413996 3465595 
1850.951 3519372 3572921 3623938 3671920 3717968 3764189 3811919 3861058 
1854.808 3909635 3955408 3997039 4035631 4074427 4118077 4170295 4232523 
1858.666 4304131 4382745 4465893 4552371 4642316 4736467 4834893 4935386 
1862.523 5034026 5126082 5207126 5274601 5327897 5367681 5394116 5405825 
1866.380 5399283 5369560 5312702 5227783 5119042 4995479 4868299 4748526 
1870.238 4643455 4555016 4481526 4418760 4361860 4306507 4249220 4187223 
1874.095 4118679 4043189 3961393 3875467 3788154 3702329 3619494 3539381 
1877.953 3460285 3380068 3297728 3213736 3130861 3052406 2980905 2917188 
1881.810 2859950 2806122 2753467 2701586 2652245 2609175 2576176 2555478 
1885.667 2547012 2548545 2556511 2567710 2579676 2591242 2601808 2611508 
1889.525 2620342 2628943 2638277 2649711 2664079 2681182 2699185 2714856 
1893.382 2724258 2724925 2717223 2704520 2691917 2684749 2686249 2695785 
1897.240 2710555 2725759 2738429 2747565 2755335 2764871 2779177 2799352 
1901.097 2824031 2850178 2875293 2898108 2919389 2941406 2966326 2995885 
1904.955 3029950 3067022 3105498 3143743 3180924 3216606 3250088 3280735 
1908.812 3308178 3332418 3354122 3374691 3395095 3414998 3432464 3444688 
1912.669 3448929 3445055 3434702 3422545 3413495 3410489 3412961 3417536 
1916.527 3418104 3410089 3392390 3368280 3344772 3329046 3324973 3332485 
1920.384 3347678 3364740 3378832 3388249 3393291 3396297 3399336 3402775 
1924.242 3405948 3407584 3408386 3410456 3418037 3435136 3463558 3502937 
1928.099 3549503 3599281 3649264 3698653 3747812 3798281 3849224 3898167 
1931.957 3940763 3972695 3991789 3998744 3996604 3989314 3979684 3968516 
1935.814 3955308 3939760 3923175 3909668 3905054 3914449 3939893 3978614 
1939.671 4024562 4069745 4107808 4135872 4155007 4169459 4183175 4199234 
1943.529 4217869 4238044 4258555 4279502 4302625 4330300 4363935 4404066 
1947.386 4449389 4498366 4549960 4604876 4663851 4728026 4796365 4866658 
1951.244 4935252 4999836 5060105 5118304 5178657 5243243 5312837 5384991 
1955.101 5454541 5516417 5567494 5607501 5638986 5665539 5690112 5714048 
1958.958 5737920 5760415 5781938 5804839 5830394 5860955 5897429 5938675 
1962.816 5983319 6030151 6079542 6132534 6190944 6253127 6316260 6374391 
1966.673 6420896 6451128 6464345 6463269 6453583 6441914 6433775 6433641 
1970.531 6444234 6467809 6506318 6560977 6630715 6712376 6801727 6893587 
1974.388 6986812 7084909 7195289 7325612 7480817 7656514 7840818 8015412 
1978.246 8161512 8267201 8328669 8350725 8342719 8314584 8273820 8224281 
1982.103 8167825 8105840 8041570 7980075 7927195 7888053 7865919 7861533 
1985.960 7874186 7903473 7948926 8010012 8085721 8171336 8261190 8347989 
1989.818 8426562 8496296 8561242 8628530 8707120 8802427 8915511 9042292 
1993.675 9175979 9310351 9441073 9566076 9686101 9801584 9912623 10018334 
1997.533 10118371 10212225 10301246 10386790 10468686 10545368 10613373 
2000.908 10668721 10708249 10733279 10747511 10758549 10774649 10802706 
2004.283 10846766 10908701 10986277 11076715 11177405 11284783 11396202 
2007.658 11509895 11623244 11735771 11849280 11965136 12086371 12214762 
2011.034 12348918 12486799 12625270 12763340 12903196 13050301 13209889 
2014.409 13385971 13576655 13775014 13969700 14152151 14315260 14459727 
2017.784 14590193 14712677 14830601 14943826 15046686 15134714 15204058 
2021.159 15255601 15292564 15320125 15339484 15348786 15342368 15312059 
2024.535 15252959 15162471 15042364 14896880 14731358 14550549 14358650 
2027.910 14161324 13964808 13777716 13608449 13464162 13346779 13254022 
2031.285 13179524 13116273 13060305 13011992 12975632 12956583 12957300 
2034.660 12975257 13001818 13026741 13040911 13040399 13027629 13010592 
2038.036 12998233 12998233 13013972 13043779 13082705 13123957 13160534 
2041.411 13187140 13200393 13197968 13179626 13147146 13103604 13053613 
2044.786 13002603 12954228 12911763 12876436 12847698 12823536 12801729 
2048.161 12778218 12747848 12703084 12636730 12541227 12414342 12257397 
2051.537 12078535 11889734 11702275 11525581 11364025 11214668 11070631 
2054.912 10923311 10767006 10600368 10427481 10254934 10089850 9936285 
2058.287 9794535 9662013 9535830 9413578 9295050 9182611 9078188 8982922 
2062.145 8896166 8815615 8739473 8667266 8599668 8538364 8484538 8436494 
2066.002 8390854 8343226 8289794 8229109 8163538 8096220 8031275 7970930 
2069.859 7914304 7859306 7802662 7741978 7676007 7605292 7529868 7449131 
2073.717 7361164 7263815 7155910 7038906 6916378 6793582 6676238 6567840 
2077.574 6469726 6381016 6300291 6226337 6159218 6099535 6047152 6000587 
2081.432 5956815 5911939 5862802 5808466 5750947 5693536 5639288 5589947 
2085.289 5544337 5499907 5453534 5403510 5350070 5295899 5243075 5193310 
2089.146 5145495 5096747 5043847 4984016 4916821 4844242 4770133 4697980 
2093.004 4630930 4570888 4518789 4475400 4441221 4416417 4400116 4390242 
2096.861 4382879 4374009 4360990 4342248 4318754 4292887 4266050 4238981 
2100.719 4211278 4181201 4148283 4113628 4079778 4050246 4028006 4013793 
2104.576 4006035 4002992 4001787 4001955 4004697 4011787 4024528 4042487 
2108.434 4062888 4081752 4096937 4107239 4114632 4123161 4135906 4154472 
2112.291 4177621 4202177 4224159 4241356 4252867 4259927 4264544 4267589 
2116.148 4268560 4265816 4257150 4240955 4217333 4187123 4151829 4112792 
2120.006 4070548 4025765 3979951 3935814 3896863 3866708 3847152 3837056 
2123.863 3832443 3827763 3818203 3801156 3777425 3750353 3724285 3702429 
2127.721 3685754 3673256 3662864 3653040 3643618 3636501 3633694 3637035 
2131.578 3647761 3666139 3692103 3726256 3769771 3823017 3884126 3948520 
2135.436 4009044 4059008 4093592 4111855 4117909 4119515 4123462 4134635 
2139.293 4154003 4178859 4204218 4224895 4236940 4237308 4224393 4195620 
2143.150 4150390 4090147 4018174 3942669 3874330 3822081 3791931 3784444 
2147.008 3793268 3809379 3825490 3837056 3846048 3857481 3875400 3900674 
2150.865 3929027 3950793 3955475 3935814 3888070 3814894 3721678 3615852 
2154.723 3505409 3399736 3310549 3254194 3250122 3316058 3462723 3686155 
2158.580 3964770 4264310 4548119 4783466 4953249 5056049 5101742 5106570 
2162.438 5087762 5060374 5034026 5015389 5006976 5008182 5015322 5021355 
2166.295 5018808 5000507 4962566 4905930 4835832 4760351 4686760 4621084 
2170.152 4565061 4517650 4477944 4445171 4421438 4410258 4414676 4436200 
2174.010 4473425 4521501 4575207 4628987 4679559 4724408 4762328 4792646 
2177.867 4814891 4829365 4838579 4847659 4862335 4888103 4928550 4981938 
2181.725 5043847 5107542 5166686 5217354 5259643 5294993 5325281 5351378 
2185.582 5371740 5383717 5385327 5376302 5358121 5335445 5310891 5287111 
2189.439 5264908 5242706 5219265 5194182 5167323 5139594 5112135 5084007 
2193.297 5054071 5021221 4984653 4945340 4905896 4868835 4835731 4807286 
2197.154 4781624 4757202 4733653 4712517 4696975 4691215 4697042 4714158 
2201.012 4739381 4766281 4789396 4805779 4813719 4815494 4814288 4813082 
2204.869 4813752 4817404 4823770 4833419 4847894 4868601 4897452 4934951 
2208.727 4980128 5030405 5082867 5133760 5179964 5219802 5251359 5274064 
2212.584 5288084 5294322 5293953 5288956 5280269 5268664 5253706 5234960 
2216.441 5212189 5186402 5159846 5135303 5115186 5100066 5088432 5076867 
2220.299 5060944 5037713 5006406 4968532 4927377 4886192 4847458 4811709 
2224.156 4777905 4745076 4713723 4685018 4661406 4645833 4639134 4641077 
2228.014 4649651 4661975 4676544 4692554 4710105 4729165 4749129 4768023 
2231.871 4783433 4793349 4797638 4797202 4795259 4793751 4794019 4796096 
2235.729 4798040 4798609 4797905 4797638 4801691 4814288 4837808 4872756 
2239.586 4917390 4967325 5017902 5065100 5106067 5139259 5164339 5181540 
2243.443 5191600 5196060 5196697 5195657 5194685 5195020 5196697 5199312 
2247.301 5201593 5202800 5203638 5204443 5206287 5209540 5213598 5216649 
2251.158 5217823 5216113 5212659 5210010 5210781 5216918 5228353 5242975 
2255.016 5257027 5267289 5270576 5266082 5254478 5237039 5215174 5189923 
2258.873 5161925 5132184 5102211 5073984 5049345 5029534 5014484 5002417 
2262.730 4991256 4979089 4965281 4950568 4936828 4925702 4917994 4912799 
2266.588 4908644 4903550 4896547 4888237 4880395 4875370 4874733 4879189 
2270.445 4888203 4900434 4914676 4930158 4946647 4964041 4982407 5001110 
2274.303 5019411 5036774 5053568 5070330 5088097 5107642 5128563 5149787 
2278.160 5169302 5185564 5197233 5204812 5208836 5211083 5213028 5215274 
2282.018 5217957 5220908 5222954 5223625 5221847 5216616 5206757 5191164 
2285.875 5169066 5140734 5107609 5072006 5037076 5005602 4979257 4958812 
2289.732 4943865 4933242 4925702 4920172 4915648 4911526 4907505 4902746 
2293.590 4896715 4889409 4880463 4870109 4858616 4846453 4833419 4819884 
2297.447 4806147 4793048 4782194 4774991 4772746 4775828 4783533 4793952 
2301.305 4804807 4813685 4819046 4820219 4817337 4811240 4803199 4794690 
2305.162 4786850 4781155 4778676 4780049 4785544 4794421 4805377 4816533 
2309.020 4826182 4833252 4837473 4838914 4838411 4836166 4832180 4826484 
2312.877 4818677 4808995 4797838 4786079 4774421 4763199 4752245 4740822 
2316.734 4728495 4714895 4700090 4684951 4670248 4656952 4646033 4638063 
2320.592 4633542 4633006 4635785 4640775 4644660 4643120 4631398 4605612 
2324.449 4564258 4509514 4446878 4383849 4328627 4288302 4266385 4263306 
2328.307 4276423 4301688 4334618 4372603 4413639 4457021 4502819 4549458 
2332.164 4595399 4638498 4676042 4706254 4727624 4739482 4741424 4733419 
2336.021 4715934 4690143 4657956 4621988 4584717 4549023 4516077 4486213 
2339.879 4459499 4434560 4410660 4387062 4363433 4339403 4314772 4289574 
2343.736 4264812 4242795 4227505 4223757 4236070 4267522 4318119 4384820 
2347.594 4461808 4542025 4618170 4683276 4732046 4760988 4768425 4754523 
2351.451 4721930 4675205 4620012 4562985 4510352 4466462 4434057 4412769 
2355.309 4400986 4394727 4389740 4382510 4370027 4351083 4326151 4297438 
2359.166 4268426 4242595 4223222 4212750 4211445 4218203 4230716 4246610 
2363.023 4263842 4281811 4301755 4325113 4353627 4388033 4427731 4470278 
2366.881 4513465 4554681 4592720 4627648 4660535 4693324 4728093 4766314 
2370.738 4808727 4855835 4907170 4962298 5020618 5081426 5143685 5206858 
2374.596 5270073 5332828 5394787 5455279 5513699 5569407 5621666 5669970 
2378.453 5714519 5755547 5794027 5830697 5865992 5900015 5932260 5962088 
2382.311 5989030 6013185 6034754 6054712 6074032 6093285 6112809 6132904 
2386.168 6153269 6173972 6194675 6215446 6235681 6255043 6272859 6288961 
2390.025 6303652 6317436 6331624 6347426 6365918 6387471 6412220 6439694 
2393.883 6469558 6501677 6535615 6571237 6607973 6644913 6681015 6715337 
2397.740 6747341 6776855 6804318 6829730 6853090 6873557 6889513 6899983 
2401.598 6904090 6901700 6893822 6882107 6868305 6853764 6839828 6826970 
2405.455 6815694 6806068 6798496 6792640 6787860 6783216 6777932 6771739 
2409.313 6765749 6761946 6763326 6772480 6790755 6817748 6851407 6888604 
2413.170 6926040 6961695 6995029 7027187 7060256 7096090 7136474 7181780 
2417.027 7232111 7286760 7344786 7405583 7467806 7529834 7589679 7644913 
2420.885 7693611 7734557 7767343 7792778 7812614 7828437 7841897 7854245 
2424.742 7865751 7876615 7886704 7895510 7902798 7908231 7911841 7913731 
2428.600 7914406 7914676 7915182 7916903 7919872 7924326 7930198 7937453 
2432.457 7946261 7957397 7971233 7988142 8008459 8031106 8055341 8080387 
2436.314 8105638 8131194 8157325 8184234 8212226 8240827 8269633 8297967 
2440.172 8326237 8354407 8383287 8413116 8443487 8473489 8501972 8527889 
2444.029 8551104 8572699 8594361 8617884 8644653 8674804 8707796 8741941 
2447.887 8775750 8808007 8838067 8865729 8890484 8912128 8929851 8943008 
2451.744 8951262 8955523 8956910 8957215 8957891 8959447 8962017 8964892 
2455.602 8967294 8968884 8970169 8972030 8975954 8983260 8995201 9012555 
2459.459 9035458 9064046 9097846 9135912 9176960 9219840 9263366 9307135 
2463.316 9351246 9397021 9446152 9499828 9558862 9623528 9692607 9765120 
2467.174 9840492 9918251 9998769 10083135 10171723 10265113 10363511 
2470.549 10466785 10574871 10687975 10806477 10930548 11060604 11196784 
2473.924 11339061 11488291 11645672 11813529 11994598 12191351 12405545 
2477.300 12638573 12889883 13158998 13445741 13749739 14070926 14409990 
2480.675 14766287 15138660 15524949 15921757 16325187 16730510 17132350 
2484.050 17524800 17901512 18255158 18578484 18864782 19107604 19301648 
2487.425 19443280 19529810 19560658 19537054 19462302 19341936 19183402 
2490.801 18995366 18786166 18563580 18333816 18101546 17870334 17643628 
2494.176 17424558 17217010 17024790 16851292 16699106 16570002 16464749 
2497.551 16383953 16328834 16301278 16304305 16341494 16416814 16533997 
2500.926 16695525 16903892 17160580 17466362 17821346 18224508 18673700 
2504.302 19165500 19695438 20258622 20848992 21459694 22082622 22706444 
2507.677 23316828 23896600 24424774 24879518 25240052 25487238 25607072 
2511.052 25591538 25439878 25157500 24756902 24256072 23674562 23034500 
2514.427 22357286 21661130 20962266 20274002 19605476 18963798 18353482 
2517.802 17776330 17233246 16723175 16244175 15793707 15369452 14968895 
2521.178 14590466 14233115 13896037 13578910 13282138 13005198 12748498 
2524.553 12512512 12297582 12103815 11931520 11779686 11647203 11532794 
2527.928 11434709 11351814 11282879 11227147 11183525 11150275 11125051 
2531.303 11105233 11088509 11073316 11059483 11047858 11040007 11037526 
2534.679 11041265 11051461 11067028 11086809 11109550 11133890 11159284 
2538.054 11184544 11208990 11231295 11250574 11266489 11279615 11291143 
2541.429 11302705 11316342 11333313 11353957 11378243 11405692 11435695 
2544.804 11468218 11503261 11541232 11582270 11626340 11673309 11722767 
2548.180 11774512 11828646 11885239 11944223 12005600 12069268 12134854 
2551.555 12202391 12272462 12345646 12422831 12504463 12590375 12680124 
2554.930 12772485 12866606 12961977 13058154 13155479 13254466 13355663 
2558.305 13459651 13567424 13679978 13798614 13924946 14059598 14203124 
2561.681 14354951 14514231 14679465 14849938 15025212 15205705 15391971 
2565.056 15584567 15783366 15987411 16195197 16404666 16613686 16819912 
2568.431 17020724 17213908 17396346 17565130 17717894 17853036 17969988 
2571.806 18069318 18151914 18219254 18272438 18311938 18338308 18351892 
2575.182 18353448 18343804 18324622 18297492 18264280 18226822 18187330 
2578.557 18148220 18112014 18081684 18059854 18049146 18051218 18067384 
2581.932 18098438 18145040 18207196 18285534 18379476 18488754 18612238 
2585.307 18748802 18897728 19058476 19231716 19418364 19620104 19838238 
2588.683 20073278 20325110 20592966 20874960 21168760 21471148 21778902 
2592.058 22087780 22393218 22690384 22974410 23240934 23486040 23705740 
2595.433 23897228 24056930 24182044 24269948 24318794 24327624 24296578 
2598.808 24226852 24120640 23979926 23807510 23606406 23380008 23132446 
2602.184 22868536 22593132 22312006 22030052 21751834 21481068 21220598 
2605.559 20972524 20738980 20521330 20321670 20142304 19985456 19853498 
2608.934 19748802 19673180 19627558 19612028 19625720 19666420 19731290 
2612.309 19817500 19921796 20041838 20175416 20320456 20475028 20636498 
2615.685 20801890 20967864 21131118 21288868 21439296 21581346 21715048 
2619.060 21841476 21962084 22078822 22193636 22308344 22424336 22542490 
2622.435 22662422 22783396 22903498 23020700 23132446 23236354 23329310 
2625.810 23408194 23468938 23506816 23516890 23494504 23435260 23336128 
2629.186 23195842 23014272 22792966 22534708 22243612 21924654 21584062 
2632.561 21228428 20864636 20499100 20137342 19783410 19440090 19109092 
2635.936 18791184 18487198 18197452 17922678 17662952 17418626 17188812 
2639.311 16972864 16769700 16578469 16398404 16229386 16070919 15922444 
2642.687 15783057 15650995 15524674 15402785 15284258 15168990 15057319 
2646.062 14950067 14848087 14751753 14661644 14577788 14500082 14428692 
2649.437 14363479 14304371 14251399 14204288 14162899 14127025 14096768 
2652.812 14072158 14053677 14041357 14035299 14035026 14040262 14050084 
2656.188 14063876 14081126 14101012 14123158 14146810 14171869 14198194 
2659.563 14226097 14256192 14289509 14326629 14368342 14414683 14465413 
2662.938 14519782 14576931 14636180 14697048 14759191 14822785 14887895 
2666.313 14954765 15023944 15095809 15171083 15250213 15333752 15421495 
2669.688 15513067 15607338 15703313 15799927 15896322 15992429 16088696 
2673.064 16185809 16284732 16386500 16491560 16600018 16711777 16826388 
2676.439 16943304 17061904 17182260 17304444 17429076 17557022 17689422 
2679.814 17827248 17971024 18120994 18276860 18438104 18604422 18775406 
2683.189 18951302 19132880 19320664 19515602 19718392 19929498 20149350 
2686.565 20378376 20617146 20866582 21127780 21401910 21690318 21994046 
2689.940 22314308 22651948 23007878 23382456 23775450 24186248 24613108 
2693.315 25053972 25505194 25962970 26422884 26879794 27327908 27761118 
2696.690 28172310 28553884 28897156 29193740 29435068 29613494 29723150 
2700.066 29760584 29725102 29619558 29449606 29223792 28952086 28646074 
2703.441 28317112 27975536 27631050 27291318 26961794 26646470 26347748 
2706.816 26066574 25803550 25558960 25332982 25125482 24936292 24764200 
2710.191 24607604 24464312 24331934 24208600 24092936 23984688 23884344 
2713.567 23792392 23709626 23636110 23571178 23514056 23463762 23419872 
2716.942 23382386 23351930 23329240 23315220 23309836 23312946 23323470 
2720.317 23340218 23361930 23387282 23414870 23443792 23472820 23501326 
2723.692 23528816 23555402 23581744 23608856 23638384 23671380 23709100 
2727.068 23752528 23802192 23858616 23922612 23994878 24075912 24166352 
2730.443 24266198 24374970 24492182 24616862 24748520 24886606 25030912 
2733.818 25181026 25336564 25497148 25662080 25830730 26002790 26177874 
2737.193 26355986 26536882 26719968 26904366 27088630 27271208 27450298 
2740.569 27624554 27792380 27952532 28103798 28244794 28373950 28489452 
2743.944 28589838 28673078 28737788 28782784 28807638 28812844 28799778 
2747.319 28770746 28728832 28677576 28620804 28561916 28503958 28449544 
2750.694 28401010 28360366 28329172 28309226 28300986 28304910 28320332 
2754.070 28346044 28380352 28421138 28466314 28513794 28561880 28608912 
2757.445 28653506 28694564 28731096 28762532 28788414 28808558 28822722 
2760.820 28830936 28833416 28830866 28824244 28815392 28806364 28799424 
2764.195 28796238 28798114 28805904 28819854 28840284 28867940 28903990 
2767.571 28950032 29008084 29079646 29165780 29267138 29383410 29514430 
2770.946 29659858 29819316 29992606 30179536 30379550 30591994 30816032 
2774.321 31050682 31295146 31548976 31811900 32083516 32363362 32650858 
2777.696 32944906 33243950 33546418 33850456 34153744 34454372 34749896 
2781.072 35037936 35316496 35583548 35837560 36077316 36301860 36510660 
2784.447 36703628 36881348 37044816 37196288 37338100 37473600 37605784 
2787.822 37737576 37871428 38009408 38153008 38303528 38461996 38628956 
2791.197 38804132 38986372 39173264 39361028 39545212 39720724 39882648 
2794.573 40027192 40151508 40254916 40339008 40407220 40464320 40516768 
2797.948 40571440 40634960 40713704 40813568 40939420 41095680 41286068 
2801.323 41513320 41779032 42083636 42425864 42803316 43212464 43649180 
2804.698 44109552 44590020 45087336 45598476 46120720 46650892 47185260 
2808.073 47719956 48250828 48773084 49282124 49772436 50237860 50672320 
2811.449 51069312 51422648 51728048 51981932 52182608 52329664 52423376 
2814.824 52464092 52452352 52389060 52275320 52113456 51907096 51660868 
2818.199 51380652 51073372 50745604 50404872 50058196 49712320 49373400 
2821.574 49046876 48737124 48447528 48180372 47937432 47719588 47527432 
2824.950 47361116 47220684 47105520 47014976 46948376 46905188 46884808 
2828.325 46887208 46912496 46960484 47030892 47123468 47237420 47372056 
2831.700 47526284 47699284 47889704 48096080 48316704 48550188 48795404 
2835.075 49052624 49323212 49609904 49916408 50246196 50602920 50989152 
2838.451 51406760 51857924 52345100 52871368 53441592 54061496 54737460 
2841.826 55476928 56287812 57178484 58158936 59240680 60435200 61754616 
2845.201 63208460 64800904 66527216 68371400 70303576 72276400 74229440 
2848.576 76092648 77786280 79237296 80382792 81177152 81600488 81658704 
2851.952 81383352 80822680 80040080 79106096 78086528 77045616 76039040 
2855.327 75108600 74287272 73595408 73042024 72627216 72343832 72180760 
2858.702 72123576 72158072 72270768 72448184 72678168 72948808 73247336 
2862.077 73561688 73879608 74189160 74480080 74743496 74972920 75164776 
2865.453 75318992 75438968 75531104 75604760 75670072 75736728 75813536 
2868.828 75907368 76022416 76161776 76326696 76517408 76732872 76970760 
2872.203 77227568 77498912 77780376 78068120 78359480 78652776 78946904 
2875.578 79240800 79532704 79820056 80100320 80371752 80634536 80891048 
2878.954 81146040 81406296 81679384 81972488 82292864 82646504 83038136 
2882.329 83471560 83948464 84468760 85029688 85626424 86252784 86901704 
2885.704 87567000 88243144 88925296 89609664 90292216 90969144 91636616 
2889.079 92291784 92932936 93560152 94174936 94780088 95378688 95973824 
2892.455 96568992 97167256 97772560 98389024 99020552 99670888 100342600 
2895.830 101037608 101757016 102501984 103274376 104075976 104908512 
2898.723 105772104 106664816 107582080 108517144 109461952 110408568 
2901.616 111349536 112278048 113188768 114075800 114934224 115759728 
2904.509 116549248 117302384 118020912 118708800 119371000 120012360 
2907.402 120637528 121250232 121854112 122453776 123054720 123663936 
2910.295 124288824 124935640 125608608 126308184 127030376 127765592 
2913.188 128498000 129207208 129866136 130444768 130914136 131247816 
2916.081 131427616 131446760 131310448 131034288 130640104 130153272 
2918.974 129594904 128980088 128316000 127601400 126829464 125990224 
2921.867 125075312 124080928 123009944 121873680 120692080 119491784 
2924.760 118301144 117149784 116063272 115059912 114151688 113342992 
2927.654 112632024 112012688 111475952 111011792 110609080 110257384 
2930.547 109947256 109670392 109421032 109195248 108991128 108807328 
2933.440 108642664 108495200 108361400 108236696 108115512 107991728 
2936.333 107859440 107712032 107543880 107349104 107123504 106864368 
2939.226 106571592 106248208 105898808 105529696 105146344 104752696 
2942.119 104350640 103939952 103518968 103085544 102637936 102174608 
2945.012 101694568 101197408 100683048 100151992 99606160 99049064 98486616 
2948.387 97926592 97379152 96855808 96368856 95931344 95556152 95255016 
2951.762 95038704 94915048 94888832 94961264 95129568 95387200 95722872 
2955.138 96121976 96565392 97029272 97487672 97912648 98276448 98557328 
2958.513 98740584 98821536 98806472 98710928 98557656 98370656 98174464 
2961.888 97989408 97829040 97701272 97606672 97540144 97491320 97446624 
2965.263 97391344 97310208 97190920 97024832 96807552 96539320 96224472 
2968.639 95870888 95487912 95087040 94680152 94278136 93890872 93525704 
2972.014 93186432 92873760 92585304 92316832 92062936 91818528 91579336 
2975.389 91341328 91101088 90855336 90600464 90333464 90052392 89756712 
2978.764 89448128 89129752 88806744 88484288 88168280 87864552 87578472 
2982.140 87315064 87079016 86873456 86700232 86559632 86449728 86367448 
2985.515 86308080 86266928 86238200 86215608 86192336 86160168 86110144 
2988.890 86033232 85919864 85761872 85552864 85288376 84966752 84589232 
2992.265 84160776 83689056 83184624 82660368 82128464 81600328 81083976 
2995.641 80583240 80098296 79626024 79162392 78703136 78245912 77789960 
2999.016 77336472 76888008 76447232 76016888 75599320 75196248 74809104 
3002.391 74438936 74086384 73751464 73433904 73132936 72847344 72575640 
3005.766 72316272 72067240 71826088 71590032 71355776 71120480 70881216 
3009.142 70635728 70382200 70119824 69847480 69564664 69270912 68966360 
3012.517 68651392 68327504 67996528 67661088 67323920 66987604 66655220 
3015.892 66329764 66013888 65710416 65421492 65148160 64889544 64643532 
3019.267 64406352 64173632 63940972 63704780 63462168 63210756 62948772 
3022.643 62673696 62382956 62073836 61743464 61390216 61013504 60613720 
3026.018 60192540 59751728 59293772 58820444 58333720 57835280 57326744 
3029.393 56809252 56283664 55750344 55209180 54660040 54102512 53536632 
3032.768 52962580 52380832 51792400 51198428 50600684 50001612 49404248 
3036.144 48812084 48229132 47658940 47104152 46566640 46046776 45543792 
3039.519 45056388 44583080 44122536 43673584 43235888 42808948 42392656 
3042.894 41987164 41592512 41208532 40835304 40471920 40117416 39770104 
3046.269 39428476 39091320 38758048 38429124 38105764 37789512 37481656 
3049.645 37182676 36892352 36609600 36333276 36062412 35796536 35536116 
3053.020 35281564 35033408 34791428 34555072 34323072 34094352 33867904 
3056.395 33643756 33422406 33204712 32992166 32785728 32586496 32395136 
3059.770 32211888 32036748 31869092 31708132 31552680 31401240 31253058 
3063.146 31107594 30964992 30826312 30692724 30565154 30444122 30329166 
3066.521 30219142 30112482 30007802 29903752 29800224 29697392 29596290 
3069.896 29497976 29403584 29314282 29230952 29154690 29086058 29026364 
3073.271 28975888 28935156 28904204 28882848 28870136 28865036 28865922 
3076.646 28871020 28878316 28886212 28892906 28897190 28898110 28895278 
3080.022 28888586 28878740 28866170 28851792 28836036 28819146 28801124 
3083.397 28781402 28759206 28733680 28704122 28670496 28633190 28593094 
3086.772 28551230 28508558 28465430 28421632 28376708 28329738 28280050 
3090.147 28227538 28172240 28114686 28055408 27995042 27933626 27871442 
3093.523 27808488 27744870 27680734 27616114 27551114 27485206 27417932 
3096.898 27348620 27276922 27202802 27126754 27049520 26971982 26894776 
3100.273 26818712 26744072 26671064 26600356 26532232 26467394 26406370 
3103.648 26349508 26297300 26249954 26208140 26172630 26144618 26125192 
3107.024 26114882 26113580 26120268 26133356 26151092 26172244 26196456 
3110.399 26224260 26256818 26295998 26342854 26397990 26460916 26530224 
3113.774 26604020 26679660 26754606 26826466 26893120 26952838 27004738 
3117.149 27048322 27084046 27111904 27132398 27144918 27148656 27141990 
3120.525 27123686 27093038 27050684 26998672 26940394 26880148 26821426 
3123.900 26767082 26718100 26674056 26633188 26593592 26553612 26512826 
3127.275 26471762 26431722 26394962 26362956 26336764 26316414 26300890 
3130.650 26288392 26276530 26263260 26246716 26225386 26198850 26166788 
3134.026 26129486 26087860 26042578 25994276 25943730 25891254 25837130 
3137.401 25781328 25723564 25663732 25601590 25537206 25470410 25401478 
3140.776 25330592 25258314 25185414 25112844 25041618 24973248 24908746 
3144.151 24848816 24793562 24742346 24694154 24647580 24601782 24556270 
3147.527 24511534 24468870 24429786 24395998 24368346 24346932 24331024 
3150.902 24319108 24309192 24299626 24289184 24277234 24263992 24250292 
3154.277 24237048 24225590 24216868 24211578 24210036 24211928 24217044 
3157.652 24224750 24234630 24246226 24259330 24273698 24289254 24305724 
3161.028 24322894 24340310 24357938 24375846 24394492 24414504 24436270 
3164.403 24460352 24486504 24514304 24543088 24571978 24600310 24627942 
3167.778 24654454 24680230 24705412 24730596 24755816 24781880 24808822 
3171.153 24837344 24867658 24899974 24933802 24968404 25002692 25035196 
3174.529 25064820 25090444 25111720 25128782 25142404 25153708 25164276 
3177.904 25175582 25188856 25204726 25223442 25244372 25266778 25289500 
3181.279 25311836 25333368 25354092 25374080 25394032 25414266 25435134 
3184.654 25457022 25480388 25505686 25533692 25564616 25598638 25635120 
3188.030 25673152 25711504 25749088 25785408 25820604 25855522 25891254 
3191.405 25929062 25969936 26014364 26062564 26114530 26170272 26229610 
3194.780 26292054 26357078 26423798 26491412 26559248 26627164 26696150 
3198.155 26766764 26840600 26918254 26999626 27084432 27171054 27258790 
3201.531 27346540 27434060 27521672 27609616 27697898 27786232 27873774 
3204.906 27959492 28042260 28121332 28196528 28267744 28335114 28398604 
3208.281 28458388 28514396 28566906 28616132 28663204 28708654 28753542 
3211.656 28798256 28843188 28888444 28933952 28979714 29025726 29072170 
3215.031 29118972 29166064 29212806 29258880 29303470 29345902 29385678 
3218.407 29422268 29455918 29486732 29515494 29543194 29570858 29599516 
3221.782 29629774 29661914 29695866 29731490 29768782 29807818 29849020 
3225.157 29892572 29938752 29987566 30038622 30091530 30146008 30202126 
3228.532 30260348 30321136 30384702 30451160 30520222 30591070 30663496 
3231.908 30737390 30812580 30889562 30968192 31047906 31127812 31206808 
3235.283 31284000 31359248 31433370 31507644 31583502 31661868 31742920 
3238.658 31825878 31909350 31992160 32073062 32151658 32227878 32301434 
3242.033 32372002 32438978 32501462 32558850 32610782 32657504 32699406 
3245.409 32737028 32770720 32800630 32826856 32849658 32869634 32887756 
3248.784 32905302 32923714 32943908 32966714 32993060 33023198 33057626 
3252.159 33096566 33139798 33186648 33235792 33285838 33335638 33384080 
3255.534 33431102 33477482 33523512 33570292 33617976 33666920 33716904 
3258.910 33768044 33820512 33874492 33929520 33985268 34040200 34093172 
3262.285 34143064 34189876 34234116 34277640 34321820 34368112 34416172 
3265.660 34465276 34513812 34560704 34605268 34648112 34690244 34732704 
3269.035 34775992 34819248 34860716 34898452 34930412 34955940 34975048 
3272.411 34988980 34999324 35007476 35014408 35020552 35025832 35029924 
3275.786 35032796 35034416 35035172 35035852 35037292 35040164 35045156 
3279.161 35052484 35061676 35071808 35081792 35090128 35096052 35099144 
3282.536 35099360 35097060 35093036 35087504 35080572 35072344 35063152 
3285.912 35053524 35044652 35037432 35032440 35029640 35027772 35025544 
3289.287 35021560 35014948 35005680 34994908 34983524 34972820 34963340 
3292.662 34955008 34947324 34939888 34932604 34925528 34918812 34912564 
3296.037 34906424 34899312 34890840 34880532 34869012 34857308 34846788 
3299.413 34838708 34833068 34829376 34826288 34822376 34816808 34809416 
3302.788 34800904 34792220 34784356 34777788 34772332 34767736 34763176 
3306.163 34758440 34753340 34748460 34744156 34741028 34739772 34741176 
3309.538 34745696 34753916 34765868 34781092 34798788 34817740 34837092 
3312.914 34856120 34874936 34894288 34915256 34938884 34965856 34996236 
3316.289 35029748 35065808 35103564 35143224 35184648 35227984 35273408 
3319.664 35320880 35369872 35419840 35470028 35519396 35567472 35613472 
3323.039 35657604 35700012 35741600 35783516 35827124 35872900 35920760 
3326.415 35969680 36017660 36062484 36102628 36137088 36166148 36191176 
3329.790 36213864 36235080 36255864 36275600 36293540 36308740 36319836 
3333.165 36326320 36327724 36323728 36314108 36298904 36278376 36253124 
3336.540 36224416 36193120 36160204 36126140 36090492 36052548 36011720 
3339.916 35967480 35920188 35870452 35818884 35765848 35710840 35653432 
3343.291 35592324 35527308 35458632 35387092 35313836 35239840 35165680 
3346.666 35090916 35014912 34937052 34856768 34774092 34689636 34603904 
3350.041 34517648 34431092 34343980 34256092 34167116 34077008 33985732 
3353.417 33893800 33801712 33710068 33619660 33531170 33445164 33361792 
3356.792 33281010 33201884 33123780 33045438 32966286 32886218 32805130 
3360.167 32723486 32641642 32559496 32476682 32392636 32307252 32220598 
3363.542 32133282 32046306 31960454 31876578 31794894 31715688 31638916 
3366.917 31565260 31495140 31428952 31366370 31306398 31247360 31187260 
3370.293 31124608 31058618 30989898 30919448 30848508 30777830 30707446 
3373.668 30636402 30563554 30488302 30410466 30330764 30250082 30169378 
3377.043 30088724 30007910 29926540 29844336 29761650 29679652 29599374 
3380.418 29521806 29447196 29374442 29302478 29229464 29154228 29076704 
3383.794 28997494 28917768 28838514 28760834 28684830 28610612 28538350 
3387.169 28468152 28400338 28335184 28272800 28212156 28152300 28091534 
3390.544 28028512 27962674 27894264 27824630 27755290 27687726 27623106 
3393.919 27561494 27501726 27442250 27381192 27316968 27248980 27177616 
3397.295 27104288 27031078 26960242 26893508 26831754 26774942 26721518 
3400.670 26669582 26617230 26562524 26504056 26441264 26373976 26302650 
3404.045 26227708 26150072 26070690 25990302 25909366 25828480 25747646 
3407.420 25666298 25584262 25501258 25417218 25332946 25249394 25167612 
3410.796 25088198 25011256 24935836 24860640 24784020 24704606 24622052 
3414.171 24536916 24450714 24365542 24283508 24206006 24133740 24065862 
3417.546 24000866 23936510 23870484 23801140 23727926 23650944 23571878 
3420.921 23492826 23415500 23341058 23269668 23200632 23132446 23063886 
3424.297 22993728 22921696 22847862 22772852 22696876 22620322 22542944 
3427.672 22464742 22385366 22305030 22224394 22144472 22066098 21990140 
3431.047 21917128 21846910 21779110 21713028 21647792 21582668 21517104 
3434.422 21451026 21384890 21319422 21255636 21194608 21136860 21082422 
3437.798 21030494 20979792 20928192 20873848 20814786 20749684 20677886 
3441.173 20599984 20516988 20431336 20345284 20261296 20180830 20104406 
3444.548 20030666 19957426 19881870 19801788 19716138 19626310 19534698 
3447.923 19445116 19360228 19281488 19208372 19138594 19069000 18996888 
3451.299 18920638 18839832 18755652 18669170 18581460 18493042 18403776 
3454.674 18313284 18221882 18130460 18040306 17952998 17869506 17790104 
3458.049 17713822 17639624 17565716 17490924 17413934 17334340 17252002 
3461.424 17166716 17078758 16988782 16897588 16806344 16715944 16626734 
3464.800 16538575 16450847 16362311 16271969 16179342 16085016 15989920 
3468.175 15895566 15803294 15714204 15628908 15547511 15469734 15395060 
3471.550 15322493 15250591 15177842 15102567 15023223 14939230 14850796 
3474.925 14759295 14666681 14575493 14487681 14404990 14328342 14257528 
3478.301 14191997 14129798 14069010 14006690 13940582 13868806 13791226 
3481.676 13709078 13624552 13541342 13461257 13385561 13313330 13241724 
3485.051 13168116 13089467 13004959 12914938 12821625 12727513 12635230 
3488.426 12546240 12461258 12380486 12303854 12231427 12163339 12099044 
3491.802 12037621 11976955 11914901 11849212 11778870 11704113 11626102 
3495.177 11547119 11469306 11393889 11321171 11251220 11183321 11117538 
3498.552 11054248 10993889 10936903 10882608 10829576 10776245 10720476 
3501.927 10661318 10599044 10535082 10471774 10411293 10355434 10304266 
3505.302 10256869 10211342 10165176 10115827 10061635 10001312 9935099 
3508.678 9864117 9790299 9716426 9645141 9578474 9517575 9462068 9410768 
3512.535 9362012 9314244 9265939 9216997 9167552 9118317 9069763 9022332 
3516.393 8975886 8930190 8884734 8839386 8794718 8750934 8708878 8668956 
3520.250 8630897 8594328 8557829 8519847 8478692 8433419 8383456 8329277 
3524.107 8272132 8213408 8154759 8096827 8039814 7982775 7924326 7863288 
3527.965 7798311 7729127 7656110 7580778 7504887 7430020 7358232 7290601 
3531.822 7227563 7168744 7113301 7059482 7005770 6950584 6893216 6833938 
3535.680 6773893 6714598 6657564 6603666 6552871 6504367 6457181 6410303 
3539.537 6363565 6317638 6273397 6231614 6192490 6154681 6116270 6074603 
3543.395 6027464 5973611 5913383 5848462 5781602 5716264 5655300 5601124 
3547.252 5554405 5515007 5481115 5449977 5418305 5382710 5340510 5290163 
3551.109 5231774 5167055 5099328 5032417 4969839 4913838 4865485 4824206 
3554.967 4788659 4757337 4728629 4701296 4674066 4646201 4616864 4585018 
3558.824 4550195 4512026 4470947 4427731 4384452 4343084 4305938 4275085 
3562.682 4251428 4234464 4222218 4210609 4194081 4167150 4125068 4065163 
3566.539 3988980 3901678 3811551 3726891 3654243 3596909 3554080 3522679 
3570.396 3497894 3475715 3452636 3426820 3397900 3366276 3333153 3299464 
3574.254 3266046 3232963 3200551 3168208 3135533 3102260 3068523 3034254 
3578.111 3000356 2967660 2937002 2909149 2884165 2861785 2841340 2822497 
3581.969 2805322 2790482 2779377 2772441 2769940 2770507 2770440 2765172 
3585.826 2749166 2717590 2668913 2604809 2530948 2455567 2386363 2329395 
3589.684 2287091 2258246 2238929 2224541 2210687 2193869 2172656 2146916 
3593.541 2117714 2086351 2053824 2020435 1986115 1950701 1914623 1878948 
3597.398 1845239 1815226 1790006 1769844 1753908 1740967 1729657 1719211 
3601.256 1709398 1701215 1695493 1693398 1695493 1701448 1710662 1721041 
3605.113 1730255 1735179 1731786 1716716 1687178 1642707 1585338 1520196 
3608.971 1454299 1394263 1344936 1307580 1280362 1259194 1239489 1218057 
3612.828 1193802 1167953 1143402 1123104 1108620 1099984 1094768 1089753 
3616.686 1081183 1065671 1040793 1005721 961686 911213 858954 809887 768129 
3621.025 737062 717447 708320 708220 714958 727005 744463 767830 797771 
3625.365 833457 870806 903444 921042 912442 869345 790767 686250 574261 
3629.704 476264 406977 370298 360614 366849 377328 382667 377958 362969 
3634.044 341248 318137 298408 284482 276392 271883 268402 264457 259749 
3638.384 255107 251858 250333 249769 248311 243769 234586 221690 207534 
3642.723 196429 193114 201137 221922 254046 293235 333920 369402 393346 
3647.063 401073 389864 359222 310709 247813 175811 101733 33665 -20078 
3651.402 -53276 -63016 -50162 -20078 19118 58021 86985 97524 85626 52354 
3656.224 4473 -48041 -95084 -130197 -151396 -160968 -163816 -164611 -167360 
3660.564 -174018 -184683 -197400 -210151 -220351 -226147 -226908 -222570 
3664.421 -213496 -200348 -183490 -163419 -141061 -117079 -94123 -75174 
3668.279 -63877 -62585 -70569 -82429 -87630 -74280 -32205 43308 150056 
3672.618 280039 420475 556710 670520 744961 767930 736796 660764 555648 
3676.958 438054 318269 200341 85759 -24684 -128276 -220086 -295521 -351741 
3681.297 -388951 -410469 -420995 -424372 -422187 -413978 -397261 -370777 
3685.155 -335187 -294528 -254858 -224425 -210416 -216874 -243400 -284197 
3689.012 -331743 -377563 -416924 -448734 -474220 -495071 -512380 -525850 
3692.870 -534487 -537465 -534719 -527438 -517940 -508243 -500234 -494409 
3696.727 -490107 -485970 -480542 -473492 -465449 -458465 -455453 -458829 
3700.584 -470513 -490636 -516517 -544613 -569928 -588260 -596367 -593091 
3704.442 -578797 -555170 -524757 -489941 -453169 -415831 -378921 -342967 
3708.299 -308434 -277110 -251447 -234823 -231048 -243102 -271216 -312076 
3712.157 -359620 -405073 -440459 -460617 -463993 -452607 -430694 -404212 
3716.014 -378226 -356872 -341908 -333333 -329724 -328532 -327274 -325320 
3719.872 -322771 -320751 -321347 -325618 -333995 -345748 -359156 -372432 
3723.729 -384747 -395936 -407357 -420499 -436387 -454228 -470712 -481170 
3727.586 -480806 -465912 -436023 -394049 -345549 -297739 -257474 -229591 
3731.444 -215682 -213496 -218364 -226246 -235452 -248069 -268402 -300123 
3735.301 -343464 -393222 -440194 -474121 -488452 -482196 -459061 -425199 
3739.159 -385740 -343729 -299362 -251845 -200613 -148680 -102869 -74280 
3743.016 -74247 -110057 -177760 -260785 -333233 -373425 -373061 -338034 
3746.874 -282177 -221212 -170043 -138478 -131025 -146427 -179052 -221543 
3750.731 -267044 -311811 -352999 -387958 -412786 -423974 -418943 -398154 
3754.588 -364983 -325320 -284759 -248964 -221842 -204918 -198361 -201408 
3758.446 -212469 -230121 -251911 -273998 -291680 -300223 -296713 -281349 
3762.303 -257640 -231512 -209687 -196837 -194983 -201308 -210615 -215980 
3766.161 -212767 -200679 -183325 -166996 -158616 -162955 -181072 -209820 
3770.018 -242639 -272077 -292872 -302408 -301613 -293435 -281945 -270124 
3773.875 -259660 -250487 -241281 -230121 -215516 -197102 -176568 -156894 
3777.733 -142088 -135463 -138676 -150634 -167493 -184318 -196738 -202368 
3781.590 -201706 -197400 -193592 -193625 -199652 -211376 -227206 -244294 
3785.448 -259958 -272806 -282640 -289925 -295090 -298402 -299362 -297342 
3789.305 -291845 -282673 -270256 -255123 -237837 -219027 -199586 -180278 
3793.163 -163055 -150336 -144572 -147222 -158384 -175011 -191936 -202964 
3797.020 -202434 -188259 -162955 -132317 -105651 -93792 -104889 -143380 
3800.877 -204720 -276746 -340318 -378192 -381073 -349688 -294329 -228962 
3804.735 -170209 -131853 -122512 -143446 -187001 -238797 -282276 -306580 
3808.592 -307937 -290190 -259858 -224325 -187829 -151561 -114231 -74379 
3812.450 -31641 10238 45230 65477 63853 37906 -7885 -60929 -104989 -126454 
3817.271 -118802 -84947 -35319 15606 52951 64317 43043 -9277 -81468 -155635 
3822.093 -214953 -249195 -256812 -243764 -219656 -194254 -174283 -162889 
3825.951 -158815 -157523 -152787 -139803 -117079 -86305 -51719 -18488 9045 
3830.290 28695 40889 48345 54442 63025 76413 95535 118967 144289 167889 
3835.112 185888 193811 188838 169414 136765 95403 52156 14546 -11596 -23756 
3839.934 -23126 -13717 -1292 9012 12955 8084 -5367 -25678 -49168 -71530 
3844.756 -88823 -97668 -96243 -84185 -62552 -32735 3711 46257 94972 150255 
3849.577 211247 275696 337070 385387 408171 392583 331400 228618 102893 
3853.917 -18620 -111084 -161399 -171799 -152754 -117510 -77096 -38400 -4870 
3858.257 23360 47284 68095 86621 103125 117575 129904 140212 148300 152609 
3863.078 151415 143361 128976 111775 98518 96331 110781 142400 185756 231038 
3867.900 266777 282194 272082 239094 193976 151581 124071 115818 122944 
3872.240 136268 145350 143295 128943 106804 85991 75121 80655 103257 139251 
3877.062 181579 222983 256466 277188 282857 274171 255439 232895 214032 
3881.401 205313 209755 226099 249338 271452 283123 277155 251228 209391 
3885.741 162917 125529 109190 119365 153271 201998 253980 297579 322845 
3890.080 324735 303580 265020 218341 173789 139483 119961 116581 128081 
3894.420 152012 185457 225237 268402 311638 351329 384558 408701 422133 
3898.760 425417 420575 410758 399548 389698 381905 375239 367413 354944 
3903.099 335843 309913 278680 246023 216319 193114 178330 171900 172728 
3907.439 178695 188208 199844 212905 227524 243669 261506 280901 301723 
3911.778 323707 346554 369336 391058 409829 423560 430259 428899 419779 
3916.118 404788 387178 370530 357696 350169 347748 349273 353319 358923 
3920.458 366152 375504 387111 400808 415235 428037 436926 440077 437490 
3924.797 430292 421138 412880 407905 407574 411454 418452 426843 434803 
3929.137 440773 443626 443261 439579 432913 424157 414107 403959 394640 
3933.476 386846 381440 378489 378157 380445 385188 392219 400841 410990 
3937.816 421868 432680 442863 451818 458916 463693 465418 463593 458386 
3942.156 450359 440840 432216 426545 425384 429132 436826 446279 455301 
3946.495 461570 463958 462466 458253 452647 447241 442763 439082 435599 
3950.835 431752 426677 420707 414074 407176 400775 395469 391456 389333 
3955.174 389665 392915 399415 409000 421039 434637 448535 461935 474639 
3959.514 486580 497925 508607 518127 525558 529738 530004 526288 519587 
3963.854 511592 504128 498887 496631 497228 499982 504029 508374 512587 
3968.193 516435 519952 523269 526288 529008 530999 532425 533222 533553 
3972.533 533387 532757 531231 528444 524364 518857 512753 507280 503465 
3976.872 502503 504957 510630 518525 527383 535710 541947 545463 546060 
3981.212 544269 541548 538894 537634 538529 541250 545131 548781 550904 
3985.552 550274 546657 540586 533022 525558 519521 515473 513782 513782 
3989.891 514744 516303 518459 521411 525890 532425 540852 550075 558535 
3994.231 563843 564871 560890 552795 542676 533586 528278 528643 535179 
3998.570 546757 561255 576019 588693 597818 
##END=
