
##TITLE=Z382_2_a
##JCAMP-DX=5.01  $$ Nicolet v. 1
##DATATYPE=INFRARED SPECTRUM
##ORIGIN=UniL
##OWNER=Nicolet
##LONGDATE=2011/09/09
##TIME=10:16:56
##SPECTROMETER/DATA SYSTEM=Nicolet iS5
##DATA PROCESSING=
Ratio against background
%Transmittance->Absorbance
Truncated
ElementMultiply or ElementDivide
##COMMENTS=
Number of sample scans: 32
Collection length: 51.17 sec
Sample gain: 2.0
Background collected on: Ven Sep 09 10:10:32 2011 (GMT+02:00);
Number of background scans: 32
Background gain: 2.0
Sample spacing:  1.000
Number of scan points: 12415
Resolution points: 8192
Number of FFT points: 65536
Apodization: N-B fort;
Phase correction: Mertz;
Laser frequency: 15798.0 cm-1
Number of rejected sample scans: 0
Number of rejected background scans: 0
Bench serial number: ASB1000141;
##RESOLUTION=4.000
##XUNITS=1/CM
##YUNITS=ABSORBANCE
##FIRSTX=649.893372
##LASTX=4000.122314
##FIRSTY=0.092340
##MAXX=4000.122314
##MINX=649.893372
##MAXY=0.219210
##MINY=0.001410
##XFACTOR=1.000000
##YFACTOR=1.000000E-009
##NPOINTS=6950
##DELTAX=0.482117
##ZPD=6100
##XYDATA=(X++(Y..Y))
649.893 92340104 92327808 92414216 92625984 92956248 93375896 93848560 
653.268 94353520 94888456 95461536 96076624 96717672 97347600 97927384 
656.643 98430376 98859848 99247848 99640168 100073592 100558656 101075616 
660.018 101586248 102057112 102471064 102835440 103173352 103510176 
662.911 103860904 104227712 104605704 104990736 105383080 105778400 
665.803 106154520 106456208 106581416 106414632 105876264 104984712 
668.696 103858472 102659296 101511104 100460264 99491104 98552872 97593736 
672.071 96582896 95521848 94436160 93361352 92319448 91308208 90306008 
675.446 89285232 88231936 87154216 86080008 85044208 84076040 83186984 
678.820 82373808 81624560 80931688 80294408 79719016 79210024 78763032 
682.195 78361984 77985408 77613792 77239480 76870296 76524720 76220976 
685.570 75966448 75753216 75562256 75372952 75173208 74965600 74765224 
688.945 74591760 74457856 74362808 74293560 74231216 74159640 74071448 
692.320 73968544 73856984 73741728 73621272 73490296 73343592 73181208 
695.694 73011008 72846048 72696736 72567528 72453984 72346648 72236992 
699.069 72123840 72013576 71916520 71839344 71778744 71721208 71649656 
702.444 71550560 71423072 71279520 71141128 71027248 70946328 70892336 
705.819 70848608 70797976 70729192 70643376 70550552 70462320 70385080 
709.194 70317488 70253752 70191592 70139216 70117480 70153192 70271248 
712.569 70484064 70786752 71159744 71573144 71994920 72393896 72736624 
715.943 72990312 73120392 73101056 72930304 72643784 72320544 72062040 
719.318 71974664 72123296 72501400 73018344 73514240 73807616 73727704 
722.693 73175480 72140544 70698464 68979408 67133960 65306372 63599588 
726.068 62076240 60761868 59652120 58725644 57952152 57300964 56741320 
729.443 56247456 55802148 55395504 55025116 54691648 54394936 54130364 
732.817 53889472 53661912 53439568 53219848 53005664 52802252 52613560 
736.192 52439680 52276476 52118644 51963040 51811068 51668480 51542096 
739.567 51434548 51343212 51259680 51174608 51081160 50978756 50872388 
742.942 50769588 50675856 50591344 50511232 50428912 50340576 50247084 
746.317 50154252 50069276 49997484 49939192 49890684 49846644 49804984 
749.692 49767568 49739664 49725916 49726772 49735764 49743304 49739220 
753.066 49719268 49686872 49652248 49627024 49618148 49625320 49640660 
756.441 49653808 49656668 49647788 49632596 49620008 49617740 49629220 
759.816 49653140 49686088 49727068 49778344 49845420 49934248 50047228 
763.191 50182552 50336076 50505952 50697008 50923204 51204880 51561608 
766.566 52009088 52553308 53192692 53923348 54746744 55676704 56747324 
769.940 58014176 59555696 61480220 63910448 66974848 70782888 75377632 
773.315 80691744 86490120 92380928 97792480 102050160 104548208 104826840 
776.690 102728176 98428592 92410848 85344104 77908248 70744392 64316160 
780.065 58881344 54531132 51207748 48769856 47034620 45830024 45011952 
783.440 44465972 44116484 43911364 43815948 43807812 43871588 43995616 
786.815 44171796 44393296 44655340 44954180 45287796 45655008 46055728 
790.189 46490332 46960300 47469252 48022948 48630304 49301236 50046076 
793.564 50872428 51784564 52784252 53872780 55054376 56339152 57743756 
796.939 59290696 61007672 62924064 65073788 67498064 70244952 73376352 
800.314 76963440 81074592 85768368 91069992 96955736 103328256 110008800 
803.689 116743208 123179880 128921760 133562984 136718672 138124976 
806.581 137679392 135476944 131788704 127028104 121692936 116251296 
809.474 111131736 106671128 103071880 100423680 98690512 97733464 97317336 
812.849 97145952 96917968 96334232 95165616 93284664 90665696 87386656 
816.224 83596936 79496568 75286800 71149480 67238656 63656712 60462884 
819.598 57677380 55287748 53260148 51547544 50102484 48878676 47836872 
822.973 46948376 46191024 45548464 45009196 44563328 44203344 43924632 
826.348 43725244 43606720 43571992 43625072 43768816 44004376 44330544 
829.723 44743780 45237748 45801636 46421048 47076312 47744252 48403184 
833.098 49034448 49626024 50171840 50666660 51099012 51446632 51671280 
836.473 51724804 51561648 51147060 50472788 49559724 48458272 47236680 
839.847 45967244 44721188 43553200 42500620 41584676 40811168 40175276 
843.222 39664520 39263600 38955420 38724032 38557072 38445736 38384344 
846.597 38369216 38395964 38458412 38549324 38660464 38785908 38923712 
849.972 39075112 39243800 39433192 39644740 39877564 40129556 40399364 
853.347 40688484 41000480 41340836 41713228 42118756 42555540 43020936 
856.721 43513752 44036756 44596700 45203768 45868872 46602164 47413628 
860.096 48315740 49324920 50467576 51778364 53298020 55074764 57155808 
863.471 59583056 62388924 65583624 69143256 72988944 76982264 80909808 
866.846 84484256 87401440 89359384 90123824 89589424 87791304 84909784 
870.221 81214904 77043512 72728824 68543088 64702332 61334772 58489884 
873.596 56161020 54299588 52838136 51699608 50814988 50126912 49590176 
876.970 49174388 48859988 48634124 48488204 48414928 48407076 48458048 
880.345 48561492 48711992 48905896 49139660 49410452 49716780 50058236 
883.720 50436468 50854508 51316284 51824804 52380348 52981144 53623448 
887.095 54305336 55027296 55795216 56620132 57519240 58514036 59631292 
890.470 60902860 62359088 64025432 65909364 67990016 70204056 72442672 
893.844 74568512 76418864 77842528 78732888 79034584 78758184 77965736 
897.219 76757784 75245816 73536096 71728640 69905896 68137136 66483772 
900.594 64991428 63692124 62601736 61718332 61027192 60505048 60129400 
903.969 59879760 59740664 59701312 59751420 59880788 60080200 60342748 
907.344 60666264 61053508 61510340 62043712 62657656 63354844 64137488 
910.719 65010868 65986580 67081600 68315792 69708232 71272024 73013712 
914.093 74934488 77032632 79304832 81745528 84343520 87075528 89903528 
917.468 92778120 95635976 98407144 101019128 103385216 105404496 106962904 
920.843 107928208 108182200 107647112 106314824 104267816 101679280 98804144 
924.218 95917456 93295552 91181192 89742168 89084152 89245880 90210320 
927.593 91912936 94246600 97076216 100225224 103493400 106681760 109586592 
930.967 112032376 113884072 115037632 115430128 115036168 113867704 
933.860 111981040 109482248 106540048 103366728 100216800 97375672 95107008 
937.235 93654112 93212296 93899976 95761736 98748696 102723184 107432904 
940.610 112517680 117554704 122041992 125488536 127497584 127792720 
943.502 126297144 123132408 118606472 113135792 107170704 101154112 95426936 
946.877 90226424 85689096 81853376 78694832 76148080 74133696 72567528 
950.252 71370112 70476344 69828568 69379464 69094304 68944688 68910784 
953.627 68979096 69138672 69380360 69694888 70071848 70501400 70974648 
957.002 71484544 72026016 72595024 73187208 73797992 74421640 75052792 
960.377 75688336 76327688 76973288 77628768 78297688 78981720 79680080 
963.751 80390336 81109936 81837608 82573600 83319552 84076040 84842624 
967.126 85616856 86395424 87176088 87958952 88747224 89546384 90362424 
970.501 91200768 92065720 92960968 93890216 94859264 95874280 96941824 
973.876 98066768 99251192 100494248 101793792 103148016 104556264 106018608 
977.251 107534152 109099016 110703512 112335168 113977016 115613296 
980.143 117230072 118814376 120353680 121833448 123234976 124539592 
983.036 125730264 126796800 127738640 128564056 129288152 129925920 
985.929 130491752 130996376 131448864 131859232 132239192 132601456 
988.821 132957456 133313832 133671240 134025544 134371568 134707600 
991.714 135037376 135369824 135716272 136086528 136486016 136915632 
994.607 137373968 137860320 138375792 138922704 139501744 140108512 
997.500 140732240 141358432 141971696 142561808 143125920 143668384 
1000.392 144197456 144720544 145242080 145764032 146287856 146819056 
1003.285 147368016 147948832 148576336 149260992 150007728 150817440 
1006.178 151691008 152634512 153662816 154796880 156063440 157490096 
1009.070 159100768 160917680 162959664 165237312 167746208 170451008 
1011.963 173276000 176085568 178695904 180902752 182498608 183334288 
1014.856 183349504 182589200 181193472 179367680 177353872 175368880 
1017.748 173589936 172138832 171072352 170398032 170085904 170087728 
1020.641 170345984 170806736 171429184 172183728 173053952 174033568 
1023.534 175119120 176306448 177588016 178951536 180384032 181875008 
1026.427 183417632 185008368 186644448 188319856 190024224 191743664 
1029.320 193463456 195173008 196866800 198543248 200201264 201835936 
1032.213 203436784 204990240 206483344 207908144 209264592 210557984 
1035.106 211794656 212976144 214097120 215145520 216107792 216969904 
1037.999 217720272 218345728 218825360 219127760 219209856 219019072 
1040.892 218506384 217631472 216368096 214707440 212653712 210222288 
1043.785 207437712 204336736 200971024 197402544 193707120 189963472 
1046.678 186241120 182602368 179093536 175746528 172585344 169625776 
1049.571 166878304 164346432 162025184 159900912 157951456 156152160 
1052.464 154478384 152909264 151429808 150028032 148691248 147404816 
1055.357 146149632 144904096 143648416 142364928 141040176 139664464 
1058.250 138228272 136722112 135137312 133467984 131714568 129885928 
1061.144 127999992 126079872 124149536 122232320 120346640 118506512 
1064.037 116723912 115008224 113367552 111808232 110333120 108941176 
1066.930 107628480 106389704 105220128 104117416 103081296 102112616 
1069.823 101210704 100372664 99592112 98861056 98171808 97518200 96896888 
1073.198 96306688 95746752 95215944 94711920 94232112 93775360 93343856 
1076.573 92943856 92585224 92281344 92047288 91898488 91850584 91917968 
1079.948 92111968 92438848 92895720 93468672 94129216 94835808 95539648 
1083.324 96184736 96719240 97101736 97302496 97310664 97133760 96799400 
1086.699 96351608 95848912 95361440 94958048 94704544 94657904 94859104 
1090.074 95337504 96112296 97195640 98598776 100334544 102416400 104857040 
1093.449 107661968 110822128 114303064 118037656 121922680 125803024 
1096.343 129486632 132756624 135375696 137139216 137898928 137589824 
1099.236 136248432 134005560 131069720 127672272 124053984 120431808 
1102.129 116966312 113775632 110928416 108450024 106337216 104566040 
1105.022 103103352 101910416 100950896 100194552 99615160 99193144 98912936 
1108.397 98759888 98719624 98776736 98914808 99118992 99377296 99681592 
1111.772 100029160 100420256 100854464 101325792 101813432 102274696 
1114.665 102644688 102830488 102722512 102219552 101238648 99746328 97771024 
1118.041 95407296 92799208 90108288 87498704 85095792 82975632 81167768 
1121.416 79659936 78416120 77391904 76550960 75869448 75337480 74957800 
1124.791 74742352 74709960 74882400 75283760 75932944 76835048 77970856 
1128.166 79285696 80690152 82051328 83210824 84008248 84285792 83924664 
1131.542 82858216 81078464 78642128 75661864 72299720 68731888 65135992 
1134.917 61673416 58460848 55576936 53059876 50913516 49119364 47645924 
1138.292 46459248 45524288 44808464 44283248 43920124 43693072 43579868 
1141.667 43560308 43619540 43746720 43932700 44169156 44447324 44756964 
1145.042 45088628 45434552 45789448 46151116 46519064 46893260 47273624 
1148.418 47659604 48051480 48450636 48860396 49284756 49726624 50186528 
1151.793 50661968 51147988 51639264 52131720 52623620 53115140 53606840 
1155.168 54097676 54584216 55060468 55519472 55954276 56359072 56728820 
1158.543 57057700 57338468 57561532 57715640 57790424 57777216 57670004 
1161.919 57465760 57162380 56758500 56252772 55644576 54935800 54131712 
1165.294 53242056 52279396 51257296 50189880 49089536 47966920 46832916 
1168.669 45698072 44573716 43471856 42403428 41377536 40400568 39475752 
1172.044 38604364 37786548 37022548 36313424 35660336 35064444 34525832 
1175.420 34042960 33613752 33235400 32905232 32621142 32380786 32181344 
1178.795 32019306 31890736 31792686 31724562 31688918 31691234 31739034 
1182.170 31840388 32001864 32228734 32525246 32895048 33342398 33871984 
1185.545 34487948 35193524 35991488 36885280 37883324 39000872 40260876 
1188.921 41693568 43328320 45185276 47266232 49546764 51973644 54462840 
1192.296 56915500 59224576 61286804 63026300 64398928 65403968 66082092 
1195.671 66514588 66812128 67090148 67467872 68045472 68889008 70028752 
1199.046 71448768 73090480 74848392 76584712 78145584 79362504 80087656 
1202.422 80206448 79646168 78389992 76471176 73969480 70992400 67669912 
1205.797 64145716 60552772 57018180 53649504 50522028 47685528 45159760 
1209.172 42939472 41001284 39311476 37835132 36538592 35395180 34386476 
1212.547 33498992 32724772 32058470 31496674 31037762 30680990 30426460 
1215.923 30273706 30220598 30262054 30390852 30598216 30875474 31216668 
1219.298 31618174 32078986 32598496 33175312 33806152 34486444 35210916 
1222.673 35974896 36775060 37607700 38468148 39349492 40242480 41137968 
1226.048 42029316 42914932 43799532 44693132 45609628 46563248 47567432 
1229.424 48634380 49774368 50997200 52312132 53726252 55244020 56865940 
1232.799 58589224 60409192 62321408 64324192 66418016 68604672 70885624 
1236.174 73259416 75721856 78266784 80884584 83562040 86277880 88994592 
1239.549 91657680 94189872 96492392 98464120 100005176 101035560 101511608 
1242.925 101431448 100842256 99832472 98534664 97107664 95710808 94505680 
1246.300 93626856 93171280 93204584 93755664 94826992 96403976 98463800 
1249.675 100979864 103918184 107234736 110861864 114693904 118594328 
1252.568 122381928 125837208 128735216 130839480 131933928 131859136 
1255.461 130518272 127905280 124102000 119276224 113651944 107470280 
1258.354 100987016 94433152 88002328 81863288 76139312 70912776 66230952 
1261.729 62103116 58508312 55401640 52725740 50415920 48407076 46643996 
1265.105 45080280 43680836 42423928 41297032 40296652 39425972 38694692 
1268.480 38117304 37710576 37493324 37481508 37684124 38098892 38708528 
1271.855 39478840 40354640 41267044 42135332 42868812 43385328 43614780 
1275.230 43510856 43062060 42291912 41258044 40035296 38710448 37365724 
1278.606 36063632 34849120 33745444 32758072 31881288 31103608 30412528 
1281.981 29795504 29241726 28742142 28288890 27876776 27502610 27165870 
1285.356 26867106 26606838 26384540 26198110 26044444 25920868 25825844 
1288.731 25759142 25720856 25710098 25723106 25754008 25795990 25842652 
1292.107 25890620 25939684 25992870 26053836 26125544 26209794 26306908 
1295.482 26417602 26543610 26688504 26856284 27050154 27271348 27518142 
1298.857 27787750 28077252 28385728 28713928 29063810 29436630 29831558 
1302.232 30246032 30676334 31119910 31576056 32046876 32534924 33041644 
1305.608 33565392 34101448 34644056 35187524 35729080 36268900 36808200 
1308.983 37348172 37887372 38422024 38947228 39458556 39954096 40434824 
1312.358 40903740 41365216 41823244 42282784 42749932 43231276 43732904 
1315.733 44255584 44790244 45311696 45780096 46146144 46355788 46366884 
1319.109 46157308 45729032 45107228 44333116 43456912 42524624 41576468 
1322.484 40645292 39754820 38924364 38170444 37504412 36934624 36463740 
1325.859 36089520 35806184 35606568 35483832 35431380 35442668 35510876 
1329.234 35626812 35781140 35964784 36170036 36391424 36624168 36862696 
1332.610 37099992 37326688 37532516 37708988 37850820 37956252 38027024 
1335.985 38065288 38072956 38049952 37995380 37909356 37794608 37657780 
1339.360 37508348 37355652 37207152 37066468 36933508 36806724 36685164 
1342.735 36570060 36465144 36375460 36305860 36260976 36244336 36259680 
1346.111 36312448 36408788 36555748 36759444 37023740 37350088 37738876 
1349.486 38190344 38705596 39285904 39930852 40635724 41390840 42182688 
1352.861 42994708 43811736 44620716 45408548 46160368 46855724 47465888 
1356.236 47959188 48304004 48476088 48466348 48282784 47952232 47513348 
1359.612 47016232 46515888 46063720 45711916 45507548 45489188 45688208 
1362.987 46122856 46796380 47698432 48806596 50088392 51497480 52974408 
1366.362 54442180 55801544 56950704 57795420 58269604 58355668 58085300 
1369.737 57533388 56791504 55957592 55117532 54332784 53647364 53086008 
1373.113 52656720 52351376 52143340 51989780 51828764 51592952 51221616 
1376.488 50666884 49907412 48950880 47836096 46623816 45388384 44207124 
1379.863 43140844 42234504 41516308 41000992 40697840 40613132 40752136 
1383.238 41122232 41737992 42625204 43825476 45389088 47356648 49731900 
1386.614 52449136 55363092 58245888 60841032 62914988 64283616 64849644 
1389.989 64594164 63566908 61864752 59616316 56968384 54055604 51013968 
1393.364 47980280 45083108 42450852 40187052 38347572 36931308 35885636 
1396.739 35131944 34581980 34161988 33823880 33542480 33314314 33146810 
1400.115 33047936 33018478 33050906 33130858 33243236 33375028 33519038 
1403.490 33675260 33851032 34058800 34312136 34624356 35005860 35462984 
1406.865 35999516 36615264 37305208 38054656 38837140 39615444 40341080 
1410.240 40965964 41454516 41789536 41978436 42047604 42035340 41978768 
1413.615 41906948 41839700 41786328 41751016 41735692 41742444 41773268 
1416.991 41829960 41914976 42033260 42195244 42416728 42715712 43104212 
1420.366 43580820 44131008 44731144 45356828 45987020 46610720 47228776 
1423.741 47851004 48490536 49156096 49846460 50549648 51247492 51920016 
1427.116 52553160 53138656 53674996 54166284 54622352 55060320 55503360 
1430.492 55985408 56546644 57224672 58051820 59045752 60210768 61543060 
1433.867 63040896 64712672 66574296 68640952 70906576 73323864 75803008 
1437.242 78235952 80532816 82642696 84546528 86234200 87688096 88868328 
1440.617 89717280 90179688 90210800 89794360 88944976 87705656 86138224 
1443.993 84310528 82295472 80155632 77935408 75664072 73357008 71031312 
1447.368 68725056 66504860 64462000 62696508 61285240 60271252 59659036 
1450.743 59418296 59490484 59790584 60222036 60672356 61027460 61185244 
1454.118 61045272 60516284 59524036 58037088 56112340 53921060 51738012 
1457.494 49832412 48365108 47362004 46755972 46453608 46373112 46459248 
1460.869 46675536 46991648 47378408 47801140 48219652 48598100 48907268 
1464.244 49135168 49291068 49404620 49516272 49663280 49875712 50171432 
1467.619 50556948 51030664 51583812 52203012 52865420 53540344 54184224 
1470.995 54734412 55117568 55261480 55116704 54678604 53986300 53105704 
1474.370 52102208 51033048 49946928 48887060 47901468 47038720 46336064 
1477.745 45817908 45489408 45341192 45357744 45525652 45839228 46301856 
1481.120 46923420 47714664 48682600 49826840 51139792 52611800 54237268 
1484.496 56019940 57975592 60130392 62514408 65151548 68052216 71208464 
1487.871 74597616 78192080 81964768 85891800 89942408 94073872 98222240 
1491.246 102310000 106257008 109995400 113475200 116646192 119457800 
1494.139 121846088 123724992 125012336 125654712 125666168 125136256 
1497.032 124222088 123106192 121940232 120836304 119864840 119064920 
1499.925 118466080 118091704 117955608 118057224 118371680 118849088 
1502.818 119402704 119910248 120209840 120069144 119196608 117265960 
1505.711 113996272 109318312 103482808 97002504 90412280 84053720 78021648 
1509.087 72254800 66645868 61125284 55687476 50408632 45419840 40850444 
1512.462 36810040 33347658 30449204 28058448 26095952 24481876 23139258 
1515.837 22006522 21040060 20212280 19513798 18944866 18504174 18181040 
1519.212 17950580 17774052 17611432 17433490 17238590 17055804 16930556 
1522.588 16898588 16967248 17117978 17318238 17538772 17762178 17989638 
1525.963 18237120 18526406 18871702 19272966 19718566 20192910 20685842 
1529.338 21196730 21733512 22307996 22928228 23595562 24302674 25036528 
1532.713 25784036 26536460 27292376 28053146 28819358 29584904 30337090 
1536.089 31056092 31719572 32307394 32798554 33176422 33427738 33544268 
1539.464 33521432 33361182 33077720 32697904 32256786 31787232 31307754 
1542.839 30818022 30300566 29732588 29099414 28406598 27681618 26964332 
1546.214 26288814 25666754 25086128 24517914 23931468 23309066 22657184 
1549.590 22004082 21390110 20845552 20378306 19974286 19607312 19254436 
1552.965 18905098 18567280 18261170 18007908 17816548 17678932 17570582 
1556.340 17458222 17301892 17057218 16684128 16159775 15504071 14788056 
1559.715 14107789 13535804 13097184 12779822 12552004 12378680 12227439 
1563.091 12074822 11909827 11735941 11569373 11431715 11340694 11301276 
1566.466 11304677 11332734 11366780 11393311 11408924 11420116 11440696 
1569.841 11484548 11560322 11671233 11817138 11997630 12213433 12465112 
1573.216 12751158 13066008 13401280 13748782 14104947 14475279 14873186 
1576.592 15316555 15815733 16371807 16979686 17633414 18329702 19069276 
1579.967 19854122 20682056 21542278 22415056 23270682 24074722 24794614 
1583.342 25399440 25864350 26171716 26310290 26277868 26080928 25735832 
1586.717 25267444 24706324 24089432 23450962 22818912 22210864 21630970 
1590.093 21072718 20523798 19973800 19416322 18851354 18282320 17713926 
1593.468 17150308 16596232 16059883 15555272 15100028 14713020 14407079 
1596.843 14184877 14038859 13955500 13922415 13932918 13988726 14096562 
1600.218 14263314 14491278 14777155 15115364 15503590 15947226 16460793 
1603.594 17062868 17772016 18600376 19552512 20627188 21820744 23129790 
1606.969 24548242 26063618 27652732 29277348 30888992 32437514 33876284 
1610.344 35174552 36320772 37322752 38202536 38986880 39698904 40348716 
1613.719 40930460 41421820 41789716 41993696 41996396 41774584 41326660 
1617.094 40671276 39837032 38849060 37722608 36463704 35074108 33554688 
1620.470 31906784 30140040 28272410 26336516 24388604 22501940 20754550 
1623.845 19212562 17910558 16848776 15999133 15319782 14766768 14302213 
1627.220 13902708 13556622 13263895 13029405 12857596 12748736 12697932 
1630.595 12695920 12731744 12794187 12871419 12950985 13019128 13059246 
1633.971 13054330 12990927 12866675 12695306 12506408 12334464 12203584 
1637.346 12121089 12079080 12061671 12051553 12034453 12003420 11958153 
1640.721 11904581 11850779 11803996 11767397 11738358 11709866 11671607 
1644.096 11613170 11524764 11399603 11236667 11042012 10831138 10625732 
1647.472 10450697 10324997 10258158 10249133 10288149 10358013 10434541 
1650.847 10488372 10482535 10379053 10157104 9836053 9482251 9174083 8960631 
1654.704 8842767 8794482 8783154 8784338 8783425 8773620 8754619 8728892 
1658.562 8699582 8668179 8633905 8593483 8542251 8474941 8387780 8279900 
1662.419 8155704 8025030 7900436 7795038 7718165 7672162 7653783 7654424 
1666.277 7663158 7667474 7656143 7620803 7557648 7468277 7359816 7243869 
1670.134 7133476 7040051 6971863 6931360 6915772 6915806 6918735 6908500 
1673.991 6870595 6798361 6696595 6583583 6481934 6410001 6373450 6366086 
1677.849 6374862 6386698 6394365 6398130 6405091 6424326 6461823 6514929 
1681.706 6571472 6610126 6607536 6545302 6422779 6262405 6104172 5985100 
1685.564 5920806 5905993 5924097 5957789 5993028 6020879 6037610 6042683 
1689.421 6038081 6028472 6020643 6022659 6041339 6080416 6138718 6208590 
1693.279 6276927 6327858 6347325 6329371 6282473 6230303 6202439 6217833 
1697.136 6278204 6366893 6458661 6523068 6533058 6475208 6359732 6222169 
1700.993 6105114 6038114 6024977 6051352 6095268 6135660 6156630 6148934 
1704.851 6111969 6053771 5988157 5928028 5882516 5853835 5839159 5833249 
1708.708 5831267 5830361 5830293 5832779 5839965 5853029 5872071 5895682 
1712.566 5922250 5950398 5979893 6011035 6043423 6074401 6098259 6106928 
1716.423 6092815 6052898 5992491 5925340 5869418 5838521 5838521 5866832 
1720.281 5915364 5974451 6035560 6093790 6147288 6197061 6245799 6296088 
1724.138 6350452 6409698 6474434 6544259 6618234 6694004 6768004 6835520 
1727.995 6891937 6935198 6966240 6990146 7013145 7040286 7071201 7098818 
1731.853 7107945 7078206 6991459 6840199 6638554 6421064 6231513 6100913 
1735.710 6036232 6025213 6045607 6075107 6093588 6087842 6052729 5991650 
1739.568 5915297 5837648 5770824 5721468 5689743 5671850 5662752 5657583 
1743.425 5653454 5649694 5647177 5647915 5653017 5663088 5677355 5694241 
1747.282 5711598 5727276 5739430 5745743 5743594 5730365 5704145 5665740 
1751.140 5619752 5574576 5539505 5521752 5523497 5541317 5566387 5587464 
1754.997 5593438 5577428 5539136 5485478 5429142 5382542 5353022 5340677 
1758.855 5338933 5338262 5328837 5304183 5263030 5209272 5150759 5096546 
1762.712 5054407 5028730 5020718 5028160 5047233 5072106 5095909 5112202 
1766.570 5115890 5106302 5087427 5067212 5054407 5053770 5063726 5076163 
1770.427 5078576 5058932 5009858 4933845 4843504 4756198 4686258 4640307 
1774.284 4616362 4606852 4604139 4603335 4603503 4606249 4613583 4625303 
1778.142 4638364 4648043 4649483 4640340 4622156 4599752 4578991 4563923 
1781.999 4555753 4552070 4549357 4544268 4535295 4523442 4511390 4502383 
1785.857 4498701 4501848 4512427 4530775 4557092 4590677 4629892 4670013 
1789.714 4705182 4728260 4733151 4717240 4683377 4638800 4593624 4556724 
1793.572 4533319 4524145 4526288 4535864 4549692 4565262 4580732 4594361 
1797.429 4604675 4609095 4606048 4594629 4575039 4549257 4520262 4491068 
1801.286 4464419 4442359 4425789 4415111 4410693 4412501 4420099 4432618 
1805.144 4449021 4467935 4488222 4509079 4529837 4549257 4566233 4579024 
1809.001 4586023 4586391 4580899 4571524 4561546 4554212 4551936 4555518 
1812.859 4564258 4576379 4590242 4604273 4618405 4632470 4647507 4663884 
1816.716 4682305 4703205 4726820 4753484 4783131 4815327 4849435 4884919 
1820.573 4921144 4957405 4993099 5026886 5056284 5078509 5090411 5091081 
1824.431 5082867 5071369 5065167 5071570 5094299 5131111 5174767 5214202 
1828.288 5238045 5239018 5215677 5173996 5124540 5079046 5045121 5024741 
1832.146 5014149 5007948 5000507 4988642 4971649 4951305 4929824 4909449 
1836.003 4891688 4877514 4867864 4864379 4869103 4883948 4910253 4947921 
1839.861 4995814 5051423 5111230 5171380 5226441 5270140 5296905 5303076 
1843.718 5289962 5264673 5239085 5225234 5231271 5259743 5306464 5364259 
1847.575 5424378 5481283 5532457 5579308 5625157 5673159 5724725 5778882 
1851.433 5833282 5885976 5936593 5986813 6038988 6095033 6155185 6217363 
1855.290 6278843 6337507 6392952 6447362 6503964 6565788 6634551 6710122 
1859.148 6790957 6875577 6963277 7054228 7148802 7246598 7345595 7442659 
1863.005 7533880 7616284 7688249 7749736 7800267 7838322 7860150 7859778 
1866.863 7830832 7769367 7675568 7556131 7422908 7289523 7168508 7066689 
1870.720 6985062 6919745 6865343 6815694 6766119 6713352 6655377 6591623 
1874.577 6522261 6448572 6372542 6296223 6221127 6147119 6072856 5995447 
1878.435 5912879 5824484 5732212 5639926 5552627 5474304 5406965 5349566 
1882.292 5299923 5255484 5215207 5179964 5151631 5132553 5123568 5123869 
1886.150 5130877 5141505 5153509 5165345 5176577 5187442 5198374 5209976 
1890.007 5223457 5241130 5265210 5297341 5337994 5384421 5431591 5473096 
1893.865 5503698 5520376 5523933 5518094 5508228 5498598 5492155 5489404 
1897.722 5489974 5494135 5503162 5518967 5543230 5576187 5615221 5656844 
1901.579 5696859 5733186 5766425 5798829 5833618 5872508 5915331 5959737 
1905.437 6003241 6044027 6082197 6119529 6157739 6196826 6234572 6266909 
1909.294 6289533 6300190 6299752 6291886 6282238 6276221 6276456 6284490 
1913.152 6299652 6320798 6346754 6376375 6407916 6437710 6461318 6473829 
1917.009 6472618 6458560 6437004 6415818 6402502 6400552 6408958 6423250 
1920.866 6436264 6443393 6442788 6436735 6430110 6428160 6433944 6448203 
1924.724 6469356 6494950 6523035 6554115 6588057 6625433 6665740 6707632 
1928.581 6749360 6790553 6831885 6874600 6920384 6969641 7020452 7070292 
1932.439 7116197 7156247 7190269 7219544 7245048 7267892 7287400 7303406 
1936.296 7316041 7327701 7341551 7362580 7393349 7433862 7480919 7529463 
1940.154 7573900 7610720 7638911 7660224 7677592 7693713 7710306 7728148 
1944.011 7748420 7773449 7806575 7850939 7908602 7978118 8056185 8137574 
1947.868 8218101 8296448 8373728 8452879 8535729 8622819 8711718 8799249 
1951.726 8883585 8964791 9045776 9131547 9224240 9325009 9430610 9535661 
1955.583 9635045 9725474 9805583 9876251 9938387 9991921 10036915 10073199 
1959.441 10101956 10127359 10155103 10189090 10231493 10280991 10332293 
1962.816 10380682 10423002 10459487 10493159 10528530 10567775 10611064 
1966.191 10655817 10698639 10738884 10779438 10825669 10882608 10952567 
1969.566 11031986 11114242 11191990 11260265 11319437 11375181 11434369 
1972.942 11502172 11580126 11665004 11751737 11838758 11928387 12026924 
1976.317 12142792 12278665 12429855 12581950 12714275 12806917 12846607 
1979.692 12829031 12759962 12653685 12527960 12400704 12288345 12202835 
1983.067 12150357 12132742 12145348 12180037 12225054 12269667 12305968 
1986.443 12331977 12351100 12371316 12401590 12448233 12513706 12594843 
1989.818 12686674 12783712 12881556 12980002 13079530 13181368 13286339 
1993.193 13393728 13502409 13612004 13723270 13837403 13954782 14075615 
1996.568 14197406 14317897 14435234 14549418 14662191 14776743 14893210 
1999.944 15010635 15123324 15224373 15307562 15370446 15414182 15445768 
2003.319 15474987 15510046 15559393 15626950 15713653 15817281 15934886 
2006.694 16061189 16190898 16318789 16439697 16551310 16654482 16753238 
2010.069 16853324 16962252 17084098 17221870 17375136 17541532 17719034 
2013.445 17906518 18102998 18307030 18516482 18724860 18925414 19112382 
2016.820 19282250 19434548 19573760 19703516 19826446 19942716 20049750 
2020.195 20143172 20220818 20280078 20320040 20340526 20340178 20316916 
2023.570 20268170 20193430 20093544 19973590 19839522 19697520 19552858 
2026.946 19408664 19265588 19123046 18980828 18838344 18697188 18558634 
2030.321 18424484 18296212 18175926 18064688 17965152 17878932 17807122 
2033.696 17749856 17706058 17673340 17649494 17633102 17624924 17625340 
2037.071 17634346 17650288 17668060 17681242 17683278 17670166 17642488 
2040.447 17605016 17566060 17532560 17509966 17498306 17493924 17489682 
2043.822 17477368 17450530 17405036 17338892 17254450 17156546 17051498 
2047.197 16947334 16851428 16766943 16692633 16621569 16541949 16440179 
2050.572 16306095 16135255 15930898 15703725 15466507 15233261 15014168 
2053.948 14811848 14624323 14445682 14269169 14090195 13910030 13731785 
2057.323 13561818 13405723 13266047 13143185 13035072 12938798 12850770 
2060.698 12768527 12688858 12608521 12524652 12434185 12335930 12232313 
2064.073 12127187 12026379 11935130 11856635 11791091 11735941 11686515 
2067.448 11637606 11585571 11527077 11460121 11383004 11294816 11194880 
2070.824 11084975 10968097 10848430 10731004 10619281 10514544 10415637 
2074.199 10320010 10224199 10126952 10028200 9929844 9834019 9742721 9656185 
2078.056 9573291 9492953 9414221 9337501 9263942 9194998 9130836 9070948 
2081.914 9013773 8957383 8901002 8845135 8790729 8739338 8691266 8646208 
2085.771 8603013 8560296 8517313 8473624 8429568 8383625 8334647 8280000 
2089.629 8217426 8146825 8070531 7992056 7916734 7848712 7789168 7736750 
2093.486 7688215 7639417 7588837 7537319 7487694 7443873 7409055 7383643 
2097.344 7365849 7353110 7342461 7331981 7321298 7309774 7296970 7282178 
2101.201 7264017 7242252 7217961 7193436 7171607 7154663 7142234 7132129 
2105.058 7120980 7105958 7085818 7062883 7040656 7023516 7014559 7013919 
2108.916 7019509 7029308 7040454 7052544 7066722 7084538 7106430 7132163 
2112.773 7158302 7181275 7198085 7206776 7207282 7200679 7189090 7173561 
2116.631 7155674 7136306 7116669 7098751 7084605 7074973 7069753 7067227 
2120.488 7063994 7057394 7045472 7028197 7007757 6987351 6969472 6956105 
2124.345 6947587 6942807 6940046 6938059 6935231 6930383 6922909 6911833 
2128.203 6897290 6880121 6863290 6849758 6843598 6848008 6864535 6893452 
2132.060 6933716 6983647 7041902 7107407 7178142 7251887 7324432 7390957 
2135.918 7448019 7494065 7529598 7558963 7587117 7617329 7651962 7690307 
2139.775 7729970 7768018 7802527 7831675 7855258 7872263 7881001 7880326 
2143.633 7870609 7853335 7832586 7814132 7801110 7795443 7794869 7795848 
2147.490 7793453 7787110 7777868 7771425 7772943 7784209 7802999 7823005 
2151.347 7835588 7834172 7816763 7785694 7747948 7710812 7680155 7659920 
2155.205 7654052 7666867 7705888 7781646 7903170 8072927 8284526 8518766 
2159.062 8749818 8954272 9114256 9224443 9289600 9320337 9327345 9320608 
2162.920 9304969 9281882 9251757 9214255 9168500 9114595 9051866 8979133 
2166.777 8897484 8808378 8716146 8627179 8548401 8483524 8434298 8398488 
2170.635 8371160 8347651 8326068 8306444 8292429 8289017 8299994 8326743 
2174.492 8369302 8424196 8486261 8550935 8612173 8665001 8706106 8734266 
2178.349 8751577 8763004 8776595 8799283 8836140 8886932 8946289 9005755 
2182.207 9056467 9090977 9108368 9111786 9106406 9099470 9095985 9097542 
2186.064 9103665 9112971 9122479 9131039 9136454 9136115 9126810 9105797 
2189.922 9070339 9020877 8960428 8893122 8824575 8759454 8699954 8645938 
2193.779 8597133 8552118 8511197 8475888 8447069 8425616 8410887 8400144 
2197.636 8390246 8379200 8364945 8347955 8329682 8310903 8292665 8276725 
2201.494 8263824 8256462 8257205 8268418 8290065 8321272 8357446 8393016 
2205.351 8424028 8447777 8465042 8478591 8491633 8505587 8520725 8534580 
2209.209 8544818 8550699 8553639 8556511 8563641 8577531 8597977 8623123 
2213.066 8648743 8670950 8687717 8697993 8702354 8701509 8695593 8683593 
2216.924 8664934 8640056 8609942 8577261 8545191 8514846 8486058 8456833 
2220.781 8424467 8386226 8341706 8292159 8240456 8190211 8143922 8103478 
2224.638 8069349 8041603 8019833 8004240 7994385 7989255 7987669 7988108 
2228.496 7988580 7988952 7989593 7991112 7995094 8001911 8010214 8018618 
2232.353 8025165 8028001 8026819 8022330 8015513 8007716 8000292 7993373 
2236.211 7987872 7984834 7984800 7988749 7997322 8009674 8024525 8041300 
2240.068 8058851 8078193 8100810 8127716 8159587 8195343 8231811 8265513 
2243.926 8293374 8312964 8323940 8327858 8325494 8317996 8306276 8290132 
2247.783 8270072 8247683 8225497 8206080 8192034 8183829 8180419 8179947 
2251.640 8180014 8179068 8177110 8175389 8175118 8177279 8181297 8185618 
2255.498 8188590 8188320 8184133 8175929 8164348 8149256 8130890 8108204 
2259.355 8080557 8048151 8012104 7974102 7936643 7902292 7872263 7848240 
2263.213 7830797 7820575 7817371 7820947 7829347 7839536 7848240 7852187 
2267.070 7848746 7837916 7820542 7799019 7776282 7754087 7733478 7714826 
2270.927 7698401 7684438 7674455 7669397 7669903 7676142 7686394 7698839 
2274.785 7711891 7724371 7736244 7748420 7761778 7775979 7790686 7804787 
2278.642 7816932 7826986 7835690 7844327 7854178 7865919 7878403 7890179 
2282.500 7898817 7902191 7899492 7890179 7875029 7854482 7829313 7799795 
2286.357 7766702 7731656 7696512 7664203 7637798 7619184 7609371 7607787 
2290.215 7612204 7620128 7629098 7636517 7640867 7641777 7638675 7632065 
2294.072 7622489 7610653 7597367 7584150 7571877 7561796 7554985 7552153 
2297.929 7553973 7560413 7571304 7585431 7601953 7619251 7636213 7652063 
2301.787 7666496 7679716 7692262 7704944 7717659 7731184 7745688 7761508 
2305.644 7779622 7801077 7826783 7857349 7892270 7930232 7969614 8008661 
2309.502 8045957 8080759 8113268 8143618 8172248 8199124 8224382 8247683 
2313.359 8268890 8288376 8306681 8324514 8342652 8361871 8382713 8405820 
2317.217 8431393 8459873 8491126 8524679 8560398 8597572 8636271 8676697 
2321.074 8718411 8760400 8800027 8832995 8853893 8857985 8842564 8808277 
2324.931 8760164 8706816 8657767 8622684 8608894 8619540 8653712 8707695 
2328.789 8775514 8851390 8930088 9007954 9082282 9151174 9212563 9265127 
2332.646 9307812 9340142 9362553 9376739 9384154 9386694 9386152 9383274 
2336.504 9378974 9373422 9366312 9356832 9344204 9327210 9304969 9277515 
2340.361 9245630 9210871 9175099 9139398 9103294 9065061 9020979 8967362 
2344.219 8901340 8822377 8733151 8639955 8551645 8477577 8426799 8406225 
2348.076 8419332 8466630 8545428 8650433 8774803 8909862 9047400 9180243 
2351.933 9303242 9413849 9511987 9599340 9677258 9747465 9810735 9867167 
2355.791 9916962 9960491 9998057 10029896 10056040 10076047 10089578 
2359.166 10097039 10099243 10098057 10095445 10092224 10088527 10082796 
2362.541 10073470 10059058 10039560 10016061 9990700 9965475 9941710 9919200 
2366.399 9897369 9874895 9850931 9825749 9799653 9772846 9745093 9715274 
2370.256 9681799 9644091 9602321 9557981 9513680 9472092 9434470 9400948 
2374.114 9370138 9339532 9307473 9272438 9234427 9194490 9154016 9114358 
2377.971 9076462 9041107 9008495 8979032 8952986 8930223 8910540 8893155 
2381.828 8877058 8861367 8845844 8831033 8818015 8809021 8805166 8807432 
2385.686 8816054 8830222 8848516 8869821 8892817 8916560 8940506 8964183 
2389.543 8987320 9009848 9032109 9054268 9077038 9100925 9126370 9153644 
2393.401 9182849 9213782 9246375 9280460 9315598 9351246 9386491 9420350 
2397.258 9452417 9482251 9510429 9537456 9564010 9589720 9613737 9634063 
2401.115 9648833 9656423 9656253 9648969 9636265 9620377 9603439 9586806 
2404.973 9571327 9557270 9544806 9534407 9526279 9520961 9518997 9520013 
2408.830 9524044 9530817 9540267 9552765 9568786 9588975 9613195 9641448 
2412.688 9672956 9706769 9742518 9780167 9819716 9861710 9906657 9954321 
2416.545 10004736 10057634 10112436 10168975 10226913 10285367 10343389 
2419.920 10400093 10453751 10503749 10549578 10591303 10629229 10663932 
2423.296 10695073 10722649 10746016 10764629 10778521 10787760 10793229 
2426.671 10795538 10795845 10794214 10791224 10787454 10783073 10779200 
2430.046 10776993 10777672 10782155 10791395 10805627 10824583 10848022 
2433.421 10874657 10902687 10930786 10956917 10979922 10999972 11018290 
2436.797 11036812 11058123 11084091 11115329 11151126 11189610 11228269 
2440.172 11265230 11299441 11330490 11359570 11387393 11414605 11441376 
2443.547 11467707 11493360 11518707 11544465 11571381 11599966 11630527 
2446.922 11662349 11694378 11725558 11754801 11781354 11804404 11823607 
2450.298 11837703 11846283 11848600 11845569 11838758 11830996 11825412 
2453.673 11824832 11830621 11842572 11859462 11878905 11898350 11916399 
2457.048 11932542 11947187 11961355 11976273 11992622 12011050 12031625 
2460.423 12054143 12078739 12105756 12135331 12168382 12205458 12247207 
2463.799 12294072 12346294 12403670 12466169 12533315 12604530 12679783 
2467.174 12758768 12841350 12927465 13017011 13109477 13205106 13304036 
2470.549 13406680 13514337 13628176 13749192 13877905 14014321 14157593 
2473.924 14307692 14464729 14629464 14803689 14989782 15189646 15404913 
2477.300 15636636 15885290 16151384 16435876 16739532 17063006 17407002 
2480.675 17770360 18151190 18546360 18951926 19363588 19776888 20186592 
2484.050 20586814 20970820 21330560 21657578 21943820 22181746 22365482 
2487.425 22491994 22559906 22570376 22526822 22434630 22300042 22130768 
2490.801 21934550 21718008 21487822 21250000 21009004 20769842 20537068 
2494.176 20314832 20107218 19917358 19747830 19599792 19474292 19371834 
2497.551 19293472 19241344 19218036 19227352 19272688 19357734 19485138 
2500.926 19657302 19875352 20140152 20451862 20810232 21214056 21662244 
2504.302 22152910 22683612 23251664 23853050 24480754 25125834 25774436 
2507.677 26408940 27010098 27555244 28022716 28392662 28647066 28772056 
2511.052 28758816 28604064 28310604 27888964 27356738 26735790 26051552 
2514.427 25330556 24595014 23864218 23151980 22466694 21813114 21193496 
2517.802 20607904 20056238 19537436 19049682 18590450 18157408 17747612 
2521.178 17359238 16991988 16645944 16322538 16023301 15749281 15500534 
2524.553 15277051 15077421 14900377 14744692 14609005 14491997 14392385 
2527.928 14308582 14238628 14181180 14134556 14097383 14068907 14047962 
2531.303 14033554 14025169 14021782 14022467 14026744 14033760 14042658 
2534.679 14052821 14063705 14074794 14086499 14099471 14114258 14131372 
2538.054 14150918 14172347 14195010 14218153 14241538 14265403 14290707 
2541.429 14318308 14348649 14381665 14416292 14451232 14485522 14518343 
2544.804 14550378 14582654 14616612 14654001 14696294 14744006 14797826 
2548.180 14857688 14923318 14993486 15066821 15141335 15214627 15285391 
2551.555 15352871 15417307 15480310 15544317 15611219 15683010 15760412 
2554.930 15843568 15931930 16025020 16122051 16222678 16326563 16433572 
2558.305 16543634 16657237 16774898 16897656 17026686 17162682 17306030 
2561.681 17456704 17614160 17778126 17948646 18126006 18310936 18503932 
2565.056 18704382 18911050 19121522 19333206 19543468 19750362 19951874 
2568.431 20146572 20332540 20507644 20669094 20814926 20943176 21053344 
2571.806 21145800 21221468 21281526 21326732 21357254 21372950 21374376 
2575.182 21362126 21338042 21304736 21264824 21221504 21177178 21134250 
2578.557 21094316 21059606 21031714 21012238 21002430 21003474 21015784 
2581.932 21040060 21076856 21127154 21192278 21273626 21372464 21489356 
2585.307 21624388 21777508 21948038 22135860 22340470 22561580 22798098 
2588.683 23048722 23311408 23584158 23864672 24151464 24443178 24738348 
2592.058 25034738 25329434 25618214 25895650 26156688 26396228 26609620 
2595.433 26793336 26944308 27059218 27135958 27172148 27166434 27118536 
2598.808 27029986 26903554 26743224 26553682 26339580 26105206 25854504 
2602.184 25590904 25317878 25039126 24758202 24478930 24205166 23940116 
2605.559 23687124 23449212 23229258 23030132 22854706 22705082 22582870 
2608.934 22488784 22422350 22382856 22369424 22381042 22417324 22478036 
2612.309 22562244 22668740 22795270 22938288 23093446 23255964 23421482 
2615.685 23586256 23747700 23904266 24055320 24200752 24340416 24474444 
2619.060 24602834 24725580 24842888 24955524 25064750 25171966 25278856 
2622.435 25386760 25496410 25607986 25720540 25831998 25939544 26038992 
2625.810 26125440 26193534 26237072 26250096 26227464 26164254 26057320 
2629.186 25905462 25709184 25471076 25195596 24889026 24557882 24209264 
2632.561 23849934 23485550 23120948 22760212 22406544 22062716 21731176 
2635.936 21413362 21111014 20824622 20554540 20299972 20060854 19836088 
2639.311 19624922 19426404 19239576 19063182 18895996 18736866 18584606 
2642.687 18438658 18298562 18164112 18035746 17913564 17797870 17688940 
2646.062 17586936 17492406 17405416 17326030 17254072 17189190 17130558 
2649.437 17077102 17027994 16982960 16941856 16905202 16873612 16847742 
2652.812 16827972 16814298 16806206 16803208 16804690 16810202 16819260 
2656.188 16831762 16847400 16865932 16887390 16911264 16937756 16967146 
2659.563 16999636 17035716 17075378 17118528 17164716 17213562 17264828 
2662.938 17318478 17374860 17434596 17498270 17566336 17638830 17715410 
2666.313 17795212 17877584 17961424 18045970 18130840 18215524 18300256 
2669.688 18385628 18472088 18560640 18652012 18746414 18844262 18945176 
2673.064 19048504 19154072 19261224 19369928 19480218 19592478 19706534 
2676.439 19822598 19940600 20060612 20182740 20307646 20436128 20568854 
2679.814 20706624 20849826 20998744 21153558 21314342 21481870 21656358 
2683.189 21838340 22027856 22224850 22428698 22638824 22855126 23077966 
2686.565 23308262 23547812 23798026 24060434 24336384 24626716 24932222 
2689.940 25253678 25591608 25946826 26319546 26709538 27115750 27536782 
2693.315 27970624 28414840 28866594 29322434 29777618 30226672 30662108 
2696.690 31075560 31458162 31800136 32092684 32328132 32499890 32603602 
2700.066 32636784 32599102 32492716 32322098 32094430 31818036 31503546 
2703.441 31162628 30806428 30446574 30093058 29753558 29433650 29136442 
2706.816 28862664 28611248 28380280 28167784 27971648 27790930 27624624 
2710.191 27472004 27332706 27205518 27089264 26982984 26885400 26796156 
2713.567 26714718 26640974 26574712 26515854 26463978 26418974 26381018 
2716.942 26350458 26327750 26313246 26307120 26309092 26318456 26333982 
2720.317 26354226 26377778 26403588 26430524 26457852 26485038 26512122 
2723.692 26539348 26567490 26597538 26630440 26667080 26707846 26752880 
2727.068 26802466 26856990 26917302 26984674 27060982 27147282 27244570 
2730.443 27352468 27469958 27595316 27727210 27864198 28005644 28151452 
2733.818 28301762 28456654 28615990 28779598 28946702 29117200 29290710 
2737.193 29467336 29646908 29829430 30014086 30199960 30385734 30569560 
2740.569 30749448 30923396 31089156 31244868 31388738 31519118 31634640 
2743.944 31734224 31816964 31882070 31928644 31956424 31965554 31956748 
2747.319 31931746 31893340 31844560 31789120 31730800 31672596 31617712 
2750.694 31568964 31528666 31498988 31481356 31476650 31484596 31504366 
2754.070 31534296 31571850 31615324 31662296 31711410 31761028 31810120 
2757.445 31857610 31902682 31944622 31982924 32017342 32047272 32072276 
2760.820 32091968 32105632 32113124 32114908 32112092 32106776 32101244 
2764.195 32098070 32099284 32106630 32121402 32144238 32176100 32217778 
2767.571 32270308 32334630 32411274 32501142 32604280 32721092 32852408 
2770.946 32998708 33160650 33338714 33532746 33741972 33964916 34200272 
2774.321 34446336 34701980 34966572 35239340 35520080 35807876 36101764 
2777.696 36400500 36702620 37006676 37311124 37614168 37913944 38208400 
2781.072 38495480 38773120 39040092 39294904 39536756 39764548 39977492 
2784.447 40175128 40357260 40524624 40678916 40822924 40959772 41092840 
2787.822 41225108 41359060 41496660 41639664 41789572 41948184 42117076 
2791.197 42296624 42486332 42683616 42884680 43084380 43276776 43456548 
2794.573 43619028 43761156 43881192 43979884 44059968 44125692 44183680 
2797.948 44241608 44307172 44388272 44491956 44623248 44786168 44983580 
2801.323 45216564 45486284 45792280 46133652 46507888 46912384 47343528 
2804.698 47797772 48271748 48762664 49267644 49784068 50308652 50836668 
2808.073 51363460 51883200 52389580 52877652 53342000 53778040 54181896 
2811.449 54549536 54877484 55162484 55401788 55593352 55735312 55826528 
2814.824 55866128 55853844 55789940 55675836 55514128 55308824 55064644 
2818.199 54787560 54484284 54160952 53824580 53481876 53139368 52803488 
2821.574 52479872 52173416 51887976 51626048 51389492 51178708 50993996 
2824.950 50834844 50700432 50589888 50502228 50436356 50391960 50368780 
2828.325 50367324 50388536 50433300 50502452 50595772 50712684 50851496 
2831.700 51010132 51186124 51377184 51581608 51797928 52025520 52264520 
2835.075 52515912 52780964 53061636 53359908 53677584 54016356 54377580 
2838.451 54762528 55173248 55612524 56083760 56591972 57142880 57742508 
2841.826 58397240 59114160 59899844 60762176 61709892 62751904 63897400 
2845.201 65153824 66524440 68005712 69584728 71237392 72925288 74599000 
2848.576 76201344 77667200 78937328 79960768 80700880 81141640 81287496 
2851.952 81162896 80805272 80263960 79594184 78848648 78079152 77332160 
2855.327 76643568 76042472 75547504 75167336 74902720 74748328 74694968 
2858.702 74731056 74845120 75026328 75263392 75545296 75860568 76196288 
2862.077 76540496 76881280 77207664 77510952 77783864 78021248 78219968 
2865.453 78379672 78502568 78593808 78661792 78716992 78769944 78831520 
2868.828 78910424 79012840 79142224 79299696 79484120 79692856 79922336 
2872.203 80168424 80426536 80693384 80966384 81243984 81525968 81811688 
2875.578 82100280 82389664 82676640 82957592 83229448 83491272 83744456 
2878.954 83993048 84243552 84503776 84781192 85083384 85416424 85785168 
2882.329 86193184 86641936 87131288 87659152 88221664 88813808 89429728 
2885.704 90063520 90709624 91362424 92016448 92666624 93307384 93934648 
2889.079 94545352 95138720 95716096 96280960 96837744 97390552 97943448 
2892.455 98499416 99060256 99628248 100205152 100793232 101394672 102011976 
2895.830 102647632 103304136 103984408 104691168 105427384 106194552 
2898.723 106992576 107818792 108668696 109535200 110410016 111285832 
2901.616 112154912 113010616 113847328 114659336 115441584 116189680 
2904.509 116900608 117572856 118207176 118805664 119371520 119907544 
2907.402 120416984 120902696 121368136 121817616 122257032 122692984 
2910.295 123132888 123582624 124046848 124527008 125020560 125520960 
2913.188 126016136 126490504 126922904 127290504 127571312 127745848 
2916.081 127802104 127736552 127555312 127272320 126906008 126476320 
2918.974 125999976 125488488 124946376 124371632 123757064 123092424 
2921.867 122368528 121579688 120726376 119816672 118866776 117898968 
2924.760 116937248 116006832 115128752 114317896 113583376 112928184 
2927.654 112351216 111847752 111411632 111035288 110710304 110427624 
2930.547 110178768 109955784 109752848 109565904 109392984 109233168 
2933.440 109085808 108949824 108822688 108701384 108581904 108460024 
2936.333 108331208 108190488 108032424 107851664 107643464 107404896 
2939.226 107135672 106838344 106517264 106178088 105825696 105463032 
2942.119 105090800 104708120 104312728 103902744 103476456 103032816 
2945.012 102570792 102089856 101589056 101068552 100529872 99976856 99416200 
2948.387 98856432 98308488 97784344 97296152 96856456 96477912 96171584 
2951.762 95947992 95815200 95777768 95837128 95990480 96231336 96548584 
2955.138 96928568 97353080 97799536 98243096 98656792 99013520 99291952 
2958.513 99477184 99564400 99559152 99476440 99337680 99165744 98983720 
2961.888 98810848 98660480 98540824 98453608 98395296 98356608 98324448 
2965.263 98283848 98218208 98113704 97959768 97751360 97488544 97176496 
2968.639 96824536 96443488 96046320 95645312 95251632 94874808 94521088 
2972.014 94193752 93892728 93614816 93355520 93109440 92871584 92637840 
2975.389 92404864 92169936 91930456 91683792 91427656 91160672 90883032 
2978.764 90595688 90301520 90003792 89706080 89412016 89125928 88852152 
2982.140 88596176 88363856 88160448 87989792 87853360 87749488 87674032 
2985.515 87620792 87583136 87554032 87526952 87496192 87455336 87398040 
2988.890 87317088 87204720 87053184 86855936 86607152 86304232 85946920 
2992.265 85538856 85086800 84600992 84094008 83578264 83065416 82563464 
2995.641 82076744 81605200 81146400 80696656 80252592 79812936 79377968 
2999.016 78949448 78529928 78120832 77723072 77336472 76961104 76596888 
3002.391 76244464 75905632 75581888 75274664 74984424 74710632 74451568 
3005.766 74205152 73969016 73740232 73516632 73295696 73075384 72853336 
3009.142 72627608 72395888 72156000 71905688 71643360 71367688 71078056 
3012.517 70775240 70461184 70138704 69811488 69483432 69157944 68838096 
3015.892 68526216 68223976 67932360 67651952 67382928 67124640 66876048 
3019.267 66635520 66400916 66169560 65938868 65705292 65464832 65213532 
3022.643 64946832 64660416 64351240 64017488 63658892 63276836 62873928 
3026.018 62452924 62016576 61567188 61106328 60635096 60154368 59664588 
3029.393 59166100 58659304 58143972 57620324 57088196 56547740 55999356 
3032.768 55443536 54881016 54312732 53739680 53163336 52585732 52009644 
3036.144 51438240 50875144 50323684 49786108 49264232 48758516 48268712 
3039.519 47794336 47334364 46887876 46453864 46030892 45617612 45212780 
3042.894 44815372 44425080 44042332 43667536 43301524 42944556 42596404 
3046.269 42255976 41922496 41594956 41273164 40957260 40648096 40346168 
3049.645 40051648 39764404 39483520 39208508 38938748 38674192 38414824 
3053.020 38160568 37911308 37666304 37424768 37186108 36949996 36716824 
3056.395 36487236 36262164 36042176 35827664 35618468 35414448 35216052 
3059.770 35023572 34837952 34659884 34489636 34326696 34170488 34020172 
3063.146 33875068 33734776 33599828 33470180 33346262 33227388 33112406 
3066.521 33000280 32890044 32781474 32675330 32573030 32475966 32385390 
3069.896 32301612 32224380 32152906 32086652 32025368 31969548 31920158 
3073.271 31878472 31845630 31821954 31807482 31801206 31802062 31808336 
3076.646 31819030 31832546 31847876 31863850 31879752 31894658 31907960 
3080.022 31919084 31927646 31933244 31935670 31934600 31929642 31920832 
3083.397 31907532 31889774 31867664 31841602 31812508 31781458 31749622 
3086.772 31718076 31687352 31657484 31628188 31598576 31567752 31534582 
3090.147 31498738 31459692 31417340 31371680 31322710 31270504 31215352 
3093.523 31157784 31098268 31037906 30977160 30916494 30855800 30794830 
3096.898 30732912 30669790 30605220 30539630 30473480 30407802 30343484 
3100.273 30281416 30222196 30166608 30114932 30066994 30022822 29981920 
3103.648 29943970 29909040 29877344 29849802 29827300 29810976 29801322 
3107.024 29798554 29801820 29810692 29824248 29842562 29866484 29896866 
3110.399 29935130 29981956 30037520 30101048 30171190 30246422 30325328 
3113.774 30406630 30488978 30570878 30650446 30725512 30793480 30852528 
3117.149 30901302 30939264 30966450 30983636 30991358 30989898 30979580 
3120.525 30960934 30934212 30900734 30861564 30818770 30773882 30728394 
3123.900 30683266 30639176 30596438 30554950 30514782 30475612 30437298 
3127.275 30399984 30364166 30330516 30299960 30273386 30250472 30230542 
3130.650 30211894 30192182 30169378 30142136 30110280 30074876 30037450 
3134.026 29999814 29962856 29926682 29890228 29852180 29810868 29765340 
3137.401 29715380 29660922 29602178 29539538 29473222 29403370 29330800 
3140.776 29256436 29181444 29107244 29035008 28965014 28897332 28831574 
3144.151 28767134 28703910 28642182 28582370 28525400 28471550 28421598 
3147.527 28375648 28333876 28296776 28264384 28237016 28214490 28196142 
3150.902 28180794 28167256 28154316 28141518 28129040 28117620 28108464 
3154.277 28102526 28100264 28101678 28105956 28111788 28118150 28124266 
3157.652 28129356 28133422 28136710 28139644 28143038 28147812 28154670 
3161.028 28164532 28178144 28195610 28217214 28242424 28270502 28300348 
3164.403 28330870 28360862 28389160 28414910 28437764 28457540 28474946 
3167.778 28490726 28506294 28522818 28541570 28562942 28587572 28615318 
3171.153 28645862 28679098 28714424 28751380 28789404 28827396 28864044 
3174.529 28898146 28928108 28952972 28972592 28987610 28999406 29009714 
3177.904 29020482 29033094 29048150 29065582 29084642 29104660 29124712 
3181.279 29144838 29165144 29186300 29208944 29233398 29259518 29287024 
3184.654 29315664 29345548 29376496 29409468 29444714 29482690 29522940 
3188.030 29564650 29606682 29648258 29689054 29729644 29771160 29814878 
3191.405 29861904 29912376 29965838 30021188 30077078 30132582 30187600 
3194.780 30242444 30298184 30355922 30416864 30481582 30550508 30623602 
3198.155 30700656 30781280 30865298 30952252 31041714 31133258 31226674 
3201.531 31321250 31416592 31511992 31606808 31700182 31791654 31880930 
3204.906 31967908 32052800 32135780 32216530 32294546 32369182 32439120 
3208.281 32504428 32565530 32623604 32680508 32738172 32797412 32858342 
3211.656 32919780 32980188 33037536 33090916 33140048 33185862 33229570 
3215.031 33272530 33315710 33359394 33403296 33447028 33489794 33531458 
3218.407 33571652 33610460 33648016 33684392 33720560 33756656 33793724 
3221.782 33832584 33873452 33916372 33961372 34007416 34053820 34100232 
3225.157 34146292 34192456 34239208 34287468 34338316 34392536 34450820 
3228.532 34513812 34581372 34652956 34727964 34805428 34884488 34964200 
3231.908 35044832 35126052 35208148 35290800 35373684 35455788 35536620 
3235.283 35615664 35693252 35770560 35848892 35929688 36013668 36100612 
3238.658 36189772 36279924 36369660 36458192 36545116 36629932 36712424 
3242.033 36791576 36866448 36935924 36999532 37057012 37108904 37155644 
3245.409 37197804 37235708 37269392 37299284 37326220 37351820 37378328 
3248.784 37408012 37441888 37480392 37522616 37566584 37611024 37654816 
3252.159 37698180 37742344 37788972 37839544 37894780 37954916 38019140 
3255.534 38086664 38156192 38226704 38297232 38366792 38434588 38499968 
3258.910 38563156 38624788 38686400 38749428 38814852 38882940 38952668 
3262.285 39022696 39091104 39156872 39219716 39280032 39339264 39398072 
3265.660 39456924 39515456 39572684 39627204 39678100 39724608 39766876 
3269.035 39805584 39841536 39875600 39908764 39941420 39973824 40005576 
3272.411 40036092 40064220 40088816 40109204 40125120 40137296 40146784 
3275.786 40155288 40164044 40173860 40184364 40195520 40206424 40216604 
3279.161 40226236 40235612 40245064 40254844 40264620 40273964 40282036 
3282.536 40288216 40292032 40293308 40292032 40288396 40282328 40274000 
3285.912 40263896 40252808 40241684 40231760 40223724 40218056 40213988 
3289.287 40211260 40208460 40205624 40202284 40199192 40197264 40197264 
3292.662 40199628 40204064 40209588 40215004 40218856 40219656 40216276 
3296.037 40207916 40194536 40176472 40154960 40131700 40108336 40086820 
3299.413 40067996 40052120 40038636 40026468 40014332 40001472 39987772 
3302.788 39973680 39960272 39948576 39939384 39932992 39929032 39926960 
3306.163 39925912 39924928 39923840 39922824 39922496 39923912 39928488 
3309.538 39937204 39950684 39968772 39990388 40014260 40039256 40064184 
3312.914 40088784 40113708 40139876 40168516 40200244 40235360 40273420 
3316.289 40313772 40355844 40399364 40443988 40490104 40537572 40586212 
3319.664 40635508 40685136 40735028 40784964 40835448 40886700 40939456 
3323.039 40993092 41047676 41102564 41157348 41211992 41266716 41322032 
3326.415 41378336 41435492 41492868 41549156 41602688 41651884 41694988 
3329.790 41731100 41759952 41781984 41798256 41810260 41819340 41826496 
3333.165 41831968 41835032 41833936 41827260 41813688 41792860 41765572 
3336.540 41733324 41698640 41663224 41628176 41593572 41559004 41522908 
3339.916 41484156 41441688 41394448 41342000 41283844 41219280 41148240 
3343.291 41071132 40988356 40901008 40810660 40718216 40624516 40529680 
3346.666 40433732 40336536 40238156 40138716 40038892 39939132 39839756 
3350.041 39740876 39642776 39545248 39448720 39353304 39258704 39164488 
3353.417 39069676 38972924 38873376 38771236 38666768 38562104 38459060 
3356.792 38359192 38262888 38169756 38078200 37986232 37893120 37798008 
3360.167 37701652 37605132 37509396 37414944 37321920 37229536 37137236 
3363.542 37044492 36950896 36857108 36763628 36671212 36580368 36491524 
3366.917 36404716 36319908 36237096 36155884 36075840 35997216 35919576 
3370.293 35843208 35768044 35693968 35620520 35546652 35470964 35392016 
3373.668 35309020 35222020 35132052 35041308 34951812 34865132 34782060 
3377.043 34701836 34622992 34543912 34462980 34379592 34294208 34207372 
3380.418 34120232 34033860 33948760 33865360 33784056 33704912 33628540 
3383.794 33554868 33483780 33414460 33345618 33276144 33205140 33132148 
3387.169 33057734 32982870 32908808 32836612 32766860 32698870 32631644 
3390.544 32563888 32493714 32420770 32345086 32268062 32191624 32118120 
3393.919 32049126 31985420 31925612 31867880 31809122 31747092 31680294 
3397.295 31609446 31536042 31462972 31392548 31326092 31263668 31203816 
3400.670 31144792 31084422 31021464 30955454 30886324 30814644 30740592 
3404.045 30664634 30586946 30508206 30428910 30349916 30271646 30194134 
3407.420 30116070 30036740 29954692 29869464 29781700 29692744 29604340 
3410.796 29517870 29434040 29352212 29271428 29190266 29108238 29025088 
3414.171 28941672 28858590 28777296 28697786 28619778 28542844 28465818 
3417.546 28387780 28308094 28226124 28141304 28053570 27962848 27870028 
3420.921 27775920 27682184 27590162 27500950 27414686 27331084 27249122 
3424.297 27167562 27086162 27004492 26923260 26843278 26765320 26689912 
3427.672 26616948 26545546 26474826 26403588 26330426 26254670 26175340 
3431.047 26092644 26007188 25920128 25833052 25747962 25666262 25588692 
3434.422 25515420 25445428 25377450 25310116 25242370 25173336 25103048 
3437.798 25031580 24959034 24885342 24810330 24733226 24653822 24571662 
3441.173 24487030 24400450 24313222 24226398 24141482 24059348 23979576 
3444.548 23901186 23822038 23739580 23651610 23557536 23457746 23354902 
3447.923 23252224 23152784 23058434 22969868 22885370 22802742 22719884 
3451.299 22635334 22549120 22462124 22375286 22289334 22203888 22117660 
3454.674 22029076 21937094 21841684 21744240 21646852 21551504 21459694 
3458.049 21371488 21285388 21199272 21111154 21019574 20923844 20824762 
3461.424 20723828 20622948 20523726 20427308 20333824 20243000 20153620 
3464.800 20064532 19974874 19884334 19793258 19702510 19613066 19525894 
3468.175 19440922 19356900 19272446 19185654 19095346 19001008 18903576 
3471.550 18804712 18706354 18610578 18518074 18428838 18341800 18255606 
3474.925 18168844 18080786 17991642 17901754 17812646 17725800 17641970 
3478.301 17561988 17484990 17410210 17335410 17258932 17179642 17097262 
3481.676 17013042 16929212 16847984 16771490 16700208 16633034 16567903 
3485.051 16501987 16432436 16358079 16278574 16195025 16108502 16020687 
3488.426 15931724 15841953 15750896 15658036 15563721 15468978 15375253 
3491.802 15283675 15195753 15111315 15029946 14950478 14871505 14791792 
3495.177 14710860 14628641 14545958 14463906 14383686 14306356 14232533 
3498.552 14161530 14092626 14024656 13956082 13886321 13815100 13742900 
3501.927 13670848 13600106 13531429 13465085 13400938 13338203 13276261 
3505.302 13214466 13152406 13089535 13025717 12960202 12892614 12822546 
3508.678 12750272 12676815 12603814 12533008 12465964 12403636 12345680 
3512.053 12291378 12239368 12187670 12134887 12080102 12022871 11963433 
3515.428 11902402 11840972 11780266 11721610 11665787 11613136 11563656 
3518.803 11516496 11470566 11424844 11378175 11330150 11280397 11228982 
3522.179 11176147 11121822 11066484 11010066 10952295 10893242 10832565 
3525.554 10769961 10705261 10638567 10570117 10500423 10430536 10361000 
3528.929 10292492 10225454 10159377 10094360 10030608 9968662 9909301 
3532.304 9853203 9800331 9749566 9698909 9645784 9588399 9525906 9459393 
3536.162 9391265 9325280 9264653 9211514 9166368 9127588 9093177 9060561 
3540.019 9027677 8993374 8957418 8919738 8880237 8838811 8794820 8747519 
3543.877 8696539 8641138 8581586 8518361 8452541 8385821 8320597 8258657 
3547.734 8202096 8152193 8108440 8069282 8032187 7994317 7952942 7906780 
3551.592 7855460 7799963 7742045 7683325 7625220 7568741 7514292 7462479 
3555.449 7413808 7368511 7326522 7287299 7249394 7210819 7170091 7126134 
3559.306 7079116 7030554 6982907 6938901 6901464 6872311 6852383 6841175 
3563.164 6836193 6833837 6828788 6814651 6785639 6736538 6665370 6574601 
3567.021 6471105 6364943 6265968 6182172 6117345 6070437 6037106 6011976 
3570.879 5989568 5965817 5938743 5908177 5875094 5840805 5806753 5773409 
3574.736 5740807 5708475 5676046 5643182 5610019 5576858 5544438 5513128 
3578.594 5483062 5453702 5424244 5393747 5362280 5330245 5299521 5272421 
3582.451 5252029 5239755 5236133 5239018 5244082 5245490 5236603 5211250 
3586.308 5165915 5100602 5019009 4928785 4839785 4760787 4698348 4655947 
3590.166 4632905 4625471 4628786 4636623 4643220 4643689 4634881 4615659 
3594.023 4587095 4551433 4512092 4472387 4434225 4399447 4368085 4339705 
3597.881 4312965 4286930 4259893 4231151 4200538 4168522 4136675 4106771 
3601.738 4080682 4059778 4044962 4036099 4032721 4034059 4038741 4045095 
3605.595 4050714 4052119 4045597 4028106 3997942 3956177 3906559 3854640 
3609.453 3805769 3763420 3726958 3693841 3659422 3619227 3572019 3519739 
3613.310 3467432 3421577 3387848 3369182 3364573 3370050 3379233 3385544 
3617.168 3382205 3364373 3329647 3278799 3215739 3147581 3082739 3028883 
3621.025 2990680 2970263 2965692 2973832 2990814 3014102 3043163 3078934 
3624.883 3122618 3173548 3227155 3274759 3303404 3297995 3247284 3149550 
3628.740 3016471 2870890 2740430 2643344 2585442 2560444 2555711 2558144 
3632.597 2557111 2547412 2528915 2505320 2481359 2460999 2445871 2434475 
3636.455 2424113 2412318 2397591 2380599 2363409 2348317 2337157 2330761 
3640.312 2328030 2327463 2327963 2328629 2330428 2335159 2345652 2363842 
3644.170 2391427 2427345 2468963 2512052 2550478 2577443 2587242 2574510 
3648.027 2536947 2475128 2392960 2298083 2200530 2112121 2043604 2002925 
3651.885 1992739 2010149 2048065 2095207 2139657 2169560 2175454 2152910 
3655.742 2104663 2039875 1971137 1910596 1865737 1838451 1826006 1823477 
3659.599 1825740 1829300 1832561 1835057 1837419 1840314 1844374 1849964 
3663.457 1857651 1868466 1883973 1906137 1936489 1975531 2022332 2073633 
3667.314 2123774 2165663 2192137 2198498 2185644 2162600 2146317 2155574 
3671.172 2206491 2305678 2449836 2625609 2812892 2988445 3124820 3197280 
3675.029 3189903 3103929 2957886 2780144 2597775 2426078 2270470 2130101 
3678.886 2003225 1889730 1792401 1713589 1654382 1612708 1584607 1565319 
3682.744 1553015 1548593 1556607 1581547 1625945 1687610 1759265 1829467 
3686.601 1884938 1914523 1911961 1878881 1823644 1758899 1696159 1642641 
3690.459 1599439 1564854 1537121 1515175 1500014 1493497 1496124 1506364 
3694.316 1521393 1536123 1546864 1551386 1550521 1547595 1547196 1552783 
3698.174 1566051 1585139 1605392 1620723 1626011 1617896 1596346 1565851 
3702.031 1532565 1503405 1483589 1475843 1480331 1495193 1518002 1546132 
3705.888 1577723 1611577 1647230 1683652 1719976 1754474 1784350 1805976 
3709.746 1815326 1808105 1781488 1735412 1673473 1602798 1532732 1473316 
3713.603 1431427 1410584 1409986 1426108 1453036 1484653 1515741 1542441 
3717.461 1562725 1577291 1587500 1595448 1602565 1610014 1617630 1625013 
3721.318 1631898 1638117 1644237 1650789 1657807 1664825 1670447 1672476 
3725.176 1669149 1660069 1646665 1632962 1624781 1627608 1645135 1677498 
3729.033 1721307 1769811 1814494 1847801 1864705 1865238 1853791 1838517 
3732.890 1826805 1820782 1817455 1809037 1786745 1745092 1686180 1618561 
3736.748 1555044 1506697 1479666 1474513 1488643 1518567 1562526 1620989 
3740.605 1694063 1779226 1869697 1951832 2006720 2015841 1966510 1863940 
3744.463 1733715 1616233 1546498 1539249 1588065 1672509 1769345 1855488 
3748.320 1914590 1938319 1926105 1884539 1823644 1753243 1679760 1608651 
3752.177 1545068 1495060 1464572 1457325 1472285 1504569 1545966 1588664 
3756.035 1625512 1652452 1668451 1674239 1671112 1659470 1639880 1613007 
3759.892 1582545 1554645 1536689 1534727 1550887 1581614 1619426 1654315 
3763.750 1678696 1688807 1686546 1678895 1674771 1680725 1697589 1720641 
3767.607 1740435 1748086 1736676 1705306 1658772 1606955 1560531 1527478 
3771.465 1511817 1512482 1525716 1546498 1570540 1594849 1618561 1641776 
3775.322 1665923 1691701 1718745 1744859 1766451 1779026 1778960 1765087 
3779.179 1739470 1708333 1679760 1660468 1654448 1661466 1677032 1694396 
3783.037 1707635 1712026 1706471 1692600 1673839 1653982 1635590 1619559 
3786.894 1605824 1594018 1584507 1578089 1576326 1579452 1587267 1598873 
3790.752 1612708 1628372 1645867 1666289 1690404 1717681 1745192 1768879 
3794.609 1783917 1786878 1778228 1762525 1748253 1743828 1755139 1782121 
3798.467 1818819 1853724 1872392 1862642 1817388 1740102 1646266 1559566 
3802.324 1503405 1491203 1523189 1588132 1668650 1744360 1797691 1816424 
3806.181 1796993 1746456 1680292 1618162 1574564 1556374 1561927 1585371 
3810.039 1619892 1660635 1705772 1756171 1812131 1872426 1931929 1982554 
3813.896 2014909 2020368 1995868 1946740 1887933 1838617 1815093 1825540 
3817.754 1866203 1925173 1984451 2026327 2035448 2003857 1933793 1840048 
3821.611 1745824 1672076 1632630 1628938 1652885 1691568 1731453 1762425 
3825.469 1778927 1781622 1775699 1769312 1770077 1782054 1805177 1836454 
3829.326 1870529 1902476 1929400 1949968 1965245 1977794 1990043 2004589 
3833.183 2022698 2044769 2069871 2096339 2120079 2136327 2139824 2125972 
3837.041 2093476 2045135 1988146 1932162 1886203 1856087 1842544 1842577 
3840.898 1850297 1859880 1866303 1866868 1860379 1848267 1832861 1817222 
3844.756 1804645 1798091 1799987 1812264 1835623 1870396 1916354 1973234 
3848.613 2040575 2117814 2203027 2292254 2377834 2447537 2486291 2477360 
3852.470 2409186 2282827 2118114 1947272 1803747 1708367 1664925 1664193 
3856.328 1692234 1735844 1785148 1833859 1878682 1917984 1950567 1975797 
3860.185 1993738 2004889 2011180 2015308 2018570 2021200 2021300 2015841 
3864.043 2003724 1987613 1974133 1972468 1990875 2031753 2090413 2155008 
3867.900 2209988 2239595 2233234 2190339 2122609 2050462 1992207 1959288 
3871.758 1951100 1959021 1969872 1973367 1964746 1946407 1926704 1915588 
3875.615 1920980 1945508 1986115 2035581 2085518 2126838 2153076 2160269 
3879.472 2148781 2123342 2092710 2066675 2054856 2061947 2087083 2123741 
3883.330 2161501 2187908 2191838 2168760 2121710 2063412 2010914 1980290 
3887.187 1979957 2009183 2058418 2114851 2164731 2196234 2202494 2183346 
3891.045 2144619 2096805 2051494 2018337 2002759 2006021 2026493 2060649 
3894.902 2104396 2153642 2204559 2253450 2296817 2332094 2357246 2371071 
3898.760 2374236 2368606 2356646 2341188 2323832 2304912 2282594 2254516 
3902.617 2218247 2173656 2123275 2071968 2026560 1993072 1975131 1972668 
3906.474 1982620 2000662 2022165 2044037 2064977 2085252 2105695 2126738 
3910.332 2148182 2168993 2187908 2204792 2220512 2237031 2256481 2279796 
3914.189 2305978 2331994 2354114 2368206 2372171 2365874 2351582 2333026 
3918.047 2313139 2294186 2277465 2263576 2253251 2248221 2249620 2258446 
3921.904 2273601 2292087 2309309 2320801 2323199 2316371 2303346 2288623 
3925.761 2278098 2275533 2281828 2295552 2313506 2331861 2347351 2358145 
3929.619 2363242 2362676 2356746 2345586 2330095 2311441 2291754 2273468 
3933.476 2259379 2251085 2249020 2252384 2259246 2267739 2276266 2284360 
3937.334 2292354 2301481 2312373 2325831 2341488 2357612 2372803 2384564 
3941.191 2391061 2391194 2385230 2374636 2362243 2351349 2344919 2344719 
3945.049 2350982 2362143 2375469 2387396 2395392 2397624 2394126 2385730 
3948.906 2374702 2363009 2352315 2343520 2337191 2333526 2332394 2333326 
3952.763 2335758 2338157 2339089 2337257 2332327 2324765 2316804 2311008 
3956.621 2310008 2314972 2325698 2339889 2354847 2367540 2375802 2379500 
3960.478 2379567 2377734 2376135 2376335 2378734 2383165 2388962 2395192 
3964.336 2401023 2406420 2410652 2413950 2416516 2418215 2419614 2421114 
3968.193 2422846 2424612 2426245 2427045 2426478 2424712 2421914 2418948 
3972.051 2416816 2415616 2415150 2414650 2412517 2408319 2402056 2394759 
3975.908 2388595 2385564 2386930 2392960 2402389 2413017 2422513 2428777 
3979.765 2430943 2429077 2424346 2418448 2412884 2408819 2406887 2406987 
3983.623 2408886 2411918 2415383 2418581 2421080 2422813 2423646 2424179 
3987.480 2424679 2425779 2427345 2429177 2430943 2432243 2433076 2434075 
3991.338 2435974 2439773 2445771 2453901 2463431 2472895 2480759 2486658 
3995.195 2490490 2492956 2495589 2499321 2504787 2511518 2518250 2523449 
3999.052 2525482 2523616 2517784 2509352 
##END=
