
##TITLE=Z382_1_b
##JCAMP-DX=5.01  $$ Nicolet v. 1
##DATATYPE=INFRARED SPECTRUM
##ORIGIN=UniL
##OWNER=Nicolet
##LONGDATE=2011/09/09
##TIME=09:55:13
##SPECTROMETER/DATA SYSTEM=Nicolet iS5
##DATA PROCESSING=
Ratio against background
%Transmittance->Absorbance
Truncated
ElementMultiply or ElementDivide
##COMMENTS=
Number of sample scans: 32
Collection length: 51.17 sec
Sample gain: 2.0
Background collected on: Ven Sep 09 09:51:57 2011 (GMT+02:00);
Number of background scans: 32
Background gain: 2.0
Sample spacing:  1.000
Number of scan points: 12415
Resolution points: 8192
Number of FFT points: 65536
Apodization: N-B fort;
Phase correction: Mertz;
Laser frequency: 15798.0 cm-1
Number of rejected sample scans: 0
Number of rejected background scans: 0
Bench serial number: ASB1000141;
##RESOLUTION=4.000
##XUNITS=1/CM
##YUNITS=ABSORBANCE
##FIRSTX=649.893372
##LASTX=4000.122314
##FIRSTY=0.078562
##MAXX=4000.122314
##MINX=649.893372
##MAXY=0.213196
##MINY=0.000379
##XFACTOR=1.000000
##YFACTOR=1.000000E-009
##NPOINTS=6950
##DELTAX=0.482117
##ZPD=6100
##XYDATA=(X++(Y..Y))
649.893 78562472 78630656 78780712 79003536 79267048 79531384 79769136 
653.268 79981600 80198552 80467448 80827264 81291016 81840896 82436936 
656.643 83035280 83606744 84145568 84662272 85171896 85678080 86170832 
660.018 86631096 87044888 87411000 87744544 88067832 88400408 88748776 
663.393 89106120 89457736 89791712 90101152 90380944 90619000 90784680 
666.767 90824416 90680232 90318568 89762536 89086024 88377376 87694336 
670.142 87045208 86398296 85704472 84922672 84035784 83058752 82028632 
673.517 80991056 79976664 78992008 78024376 77056728 76081712 75111000 
676.892 74169464 73284008 72469608 71724136 71031656 70372456 69737488 
680.267 69131176 68569592 68068344 67633480 67255408 66914348 66587852 
683.642 66263720 65945080 65647864 65390600 65183812 65024184 64894616 
687.016 64774556 64647032 64506776 64359464 64216428 64084568 63963660 
690.391 63845196 63719364 63581556 63435480 63290788 63157564 63039288 
693.766 62930344 62818980 62694824 62555812 62411876 62279648 62174412 
697.141 62102808 62057932 62024104 61982904 61924172 61849204 61769248 
700.516 61697288 61640272 61595248 61551572 61497664 61428804 61350568 
703.890 61276196 61219960 61187688 61173996 61164416 61144124 61104000 
707.265 61046796 60983536 60928820 60892336 60876136 60877888 60897064 
710.640 60941632 61030740 61189020 61437928 61788308 62234560 62756344 
714.015 63323332 63903384 64463384 64967728 65380088 65661928 65784320 
717.390 65744804 65582888 65386444 65269096 65350280 65703096 66319844 
720.765 67095564 67844888 68354184 68420384 67923640 66849076 65285312 
724.139 63389048 61342704 59321084 57447644 55795444 54390316 53223068 
727.514 52266688 51486696 50851344 50330752 49899048 49537220 49230648 
730.889 48970016 48750060 48565156 48407148 48266456 48131764 47995044 
734.264 47854112 47712488 47576672 47452692 47341900 47240372 47141604 
737.639 47039424 46931468 46820956 46714164 46616180 46529464 46451504 
741.013 46378276 46305984 46233776 46163976 46099900 46043052 45991592 
744.388 45941424 45889492 45836580 45788676 45755064 45743316 45756240 
747.763 45789044 45831312 45871744 45904228 45929784 45956452 45993176 
751.138 46045744 46112464 46185240 46253200 46308564 46350368 46383660 
754.513 46415552 46450544 46486904 46517332 46533260 46530312 46511244 
757.888 46486276 46469460 46472892 46502648 46559488 46639936 46741620 
761.262 46864728 47012504 47187628 47390456 47617344 47863100 48125916 
764.637 48411336 48734196 49115764 49575768 50129480 50783104 51535568 
768.012 52385956 53341740 54424940 55680992 57179012 59012956 61309392 
771.387 64211012 67866000 72400432 77863136 84173440 91052376 98035288 
774.762 104441624 109466984 112388984 112663936 110116040 104973608 97830208 
778.136 89493080 80770120 72410336 64945212 58662264 53654116 49843488 
781.511 47059728 45085608 43717844 42786788 42157528 41740908 41477772 
784.886 41329904 41274732 41297764 41387816 41535960 41734528 41977744 
788.261 42263132 42591212 42965920 43391108 43870416 44404824 44993652 
791.636 45636752 46336248 47097912 47931064 48845936 49851700 50955844 
795.010 52164784 53486448 54934976 56530416 58300868 60281532 62509932 
798.385 65029068 67888896 71144872 74866696 79133048 84020344 89594232 
801.760 95883032 102859416 110408912 118320296 126290096 133896680 140662880 
805.135 146100480 149749616 151300400 150641248 147901328 143420384 
808.028 137703152 131346808 124904680 118876064 113647128 109445120 
810.920 106365744 104359448 103259704 102788072 102597272 102334368 
813.813 101650640 100280736 98079352 95021096 91202032 86800328 82051176 
817.188 77189296 72425168 67935776 63837484 60197296 57036504 54338640 
820.563 52061936 50148596 48540960 47182600 46026916 45040876 44200372 
823.938 43488448 42893568 42404600 42012092 41709396 41493268 41364928 
827.312 41329464 41393904 41564220 41843824 42232164 42724380 43311512 
830.687 43979480 44710284 45481092 46265220 47037688 47777172 48468604 
834.062 49104264 49676988 50173180 50567440 50816516 50866056 50664984 
837.437 50174924 49388324 48331188 47064124 45666752 44222600 42811876 
840.812 41493928 40307120 39271908 38392348 37662444 37069496 36598644 
844.186 36232556 35954092 35748868 35605452 35516156 35476716 35483512 
847.561 35531908 35616096 35728216 35861092 36010464 36175112 36356800 
850.936 36558200 36781224 37026124 37292100 37578648 37887408 38222252 
854.311 38588500 38990544 39430144 39907056 40419476 40967604 41554884 
857.686 42188820 42879524 43637860 44473496 45396076 46417948 47557300 
861.060 48842932 50314868 52021372 54019432 56366240 59112600 62298120 
864.435 65935820 69998696 74395128 78964712 83460112 87548232 90877224 
867.810 93096752 93935960 93273744 91153232 87785376 83484808 78641256 
871.185 73638424 68787632 64334296 60422632 57107884 54381264 52187880 
874.560 50452020 49086940 48015028 47170708 46500736 45968240 45547508 
877.935 45220020 44972592 44794472 44676716 44612748 44598828 44633932 
881.309 44718288 44852440 45035292 45264404 45536320 45849096 46202672 
884.684 46599984 47045184 47541848 48092044 48695424 49350640 50058124 
888.059 50821692 51651500 52565312 53587724 54751440 56095900 57659448 
891.434 59473384 61547984 63859932 66337332 68855960 71258712 73358928 
894.809 74982336 76004184 76358664 76056168 75166704 73806200 72103584 
898.183 70181192 68153224 66111528 64131996 62280792 60607320 59147304 
901.558 57919664 56924488 56147372 55564320 55150600 54883800 54747232 
904.933 54729300 54819740 55008228 55285072 55641408 56073128 56581368 
908.308 57170732 57847772 58616680 59480340 60440952 61503892 62681116 
911.683 63990644 65455088 67097068 68933312 70973752 73221288 75673936 
915.058 78326536 81169568 84187600 87352536 90620992 93938960 97237296 
918.432 100438792 103461568 106203736 108543488 110341576 111436256 
921.325 111683000 110988944 109346616 106859752 103740768 100298640 96863752 
924.700 93763432 91281512 89609784 88864424 89082320 90236008 92244416 
928.075 94979448 98282816 101949920 105748848 109448400 112810616 115628864 
931.450 117743200 119029744 119413744 118865384 117400976 115090104 
934.342 112062352 108522088 104723688 100969712 97596432 94910672 93192672 
937.717 92664656 93458728 95622552 99096640 103720320 109199296 115111952 
941.092 120959864 126147776 130091624 132318944 132504968 130568448 
943.985 126668248 121186104 114627544 107529616 100410912 93662536 87549248 
947.359 82217064 77699456 73959784 70917144 68477880 66544556 65027796 
950.734 63854828 62962332 62298196 61823148 61504196 61316112 61241020 
954.109 61263720 61372204 61555848 61803704 62105408 62451812 62834756 
957.484 63248128 63687668 64150052 64632460 65132260 65646708 66173956 
960.859 66713096 67264032 67827616 68404056 68993040 69592624 70200088 
964.233 70813000 71429584 72049832 72674416 73304520 73940888 74583616 
967.608 75232256 75887128 76548952 77220488 77904488 78603656 79319936 
970.983 80054704 80809464 81587136 82393392 83234904 84119872 85054520 
974.358 86042280 87083472 88176232 89317512 90505112 91737280 93012312 
977.733 94326424 95672688 97041656 98421024 99799032 101165024 102509616 
981.108 103823536 105096576 106315328 107466640 108538384 109523392 
984.000 110421600 111239208 111986920 112674624 113310256 113898232 
986.893 114440696 114940264 115401296 115829680 116231512 116610440 
989.786 116966400 117296648 117598320 117872320 118125104 118367984 
992.678 118614832 118879200 119170232 119492744 119848856 120239600 
995.571 120666968 121133376 121639616 122183064 122755400 123345624 
998.464 123941264 124532880 125117168 125695376 126272592 126853288 
1001.356 127440080 128034128 128636640 129252272 129889640 130560576 
1004.249 131277144 132048160 132878568 133770912 134728976 135762016 
1007.142 136887984 138131024 139520576 141087952 142861600 144869024 
1010.035 147133664 149669744 152472000 155498736 158661568 161804048 
1012.927 164714624 167159632 168901472 169769120 169693504 168726656 
1015.820 167029888 164840048 162435920 160065184 157927968 156159040 
1018.713 154816112 153901888 153378208 153190176 153276320 153581872 
1021.605 154066928 154702960 155473344 156369952 157387824 158521888 
1024.498 159764864 161107024 162538080 164049424 165635600 167293008 
1027.391 169018960 170807760 172650464 174534992 176448528 178381520 
1030.284 180328704 182288528 184260656 186242336 188226624 190203840 
1033.177 192163696 194099168 196007680 197889440 199744112 201566112 
1036.070 203342320 205053136 206676880 208189584 209568336 210787424 
1038.963 211811376 212594144 213078096 213196224 212886800 212098688 
1041.856 210797584 208970416 206621504 203770960 200452560 196716896 
1044.750 192632608 188279568 183752944 179150096 174557024 170051952 
1047.643 165695280 161530480 157591200 153900336 150471888 147311680 
1050.536 144415328 141769120 139350464 137133952 135094272 133207960 
1053.429 131457608 129827712 128302736 126865672 125495256 124167664 
1056.322 122860912 121554520 120232392 118883160 117497200 116066944 
1059.215 114586264 113051840 111465336 109834680 108174880 106504904 
1062.108 104844808 103214320 101628664 100099544 98635496 97242768 95925680 
1065.483 94687280 93527680 92444632 91432648 90485328 89595696 88758248 
1068.858 87969952 87229464 86536056 85888040 85282808 84716032 84183096 
1072.234 83679936 83203848 82753368 82327944 81927472 81551472 81200440 
1075.609 80876720 80585424 80336112 80141640 80018048 79983432 80054864 
1078.984 80248568 80577728 81050192 81666704 82417784 83282864 84225848 
1082.359 85197824 86142472 86995416 87696776 88198520 88467224 88491232 
1085.735 88282440 87877168 87330656 86714232 86111928 85604064 85266760 
1089.110 85165488 85346848 85843712 86676568 87857376 89395736 91303096 
1092.485 93593192 96280840 99375000 102870584 106733776 110892232 115229840 
1095.860 119567704 123682384 127319680 130202144 132090640 132812664 
1098.753 132293328 130576816 127817136 124258872 120174008 115844912 
1101.646 111526280 107406632 103623568 100255696 97330480 94841960 92760648 
1105.022 91047224 89656992 88547664 87683592 87033432 86572688 86282976 
1108.397 86148568 86156368 86294328 86550248 86913160 87374336 87928608 
1111.772 88575008 89315344 90149712 91069992 92049136 93031440 93933904 
1115.147 94638288 95006992 94912864 94250928 92976072 91115960 88776704 
1118.523 86122312 83338904 80617216 78105528 75897112 74033136 72506368 
1121.898 71281624 70312616 69561200 69002440 68628264 68444704 68468408 
1125.273 68723120 69234416 70027816 71121960 72518000 74188448 76065440 
1128.648 78040960 79955952 81621520 82846424 83443208 83271584 82255424 
1132.024 80390808 77750448 74473352 70754464 66800960 62818252 58989536 
1135.399 55444216 52267172 49497592 47136472 45160236 43531260 42209996 
1138.774 41155636 40330608 39702752 39240500 38915412 38703348 38582672 
1142.149 38536720 38553016 38620840 38730948 38873952 39039840 39220440 
1145.525 39409792 39605284 39807328 40018184 40239792 40473048 40717488 
1148.900 40972116 41236804 41512736 41802344 42107732 42429700 42766240 
1152.275 43113796 43467752 43824524 44183056 44543868 44908064 45275584 
1155.650 45643596 46007320 46360176 46695716 47008848 47295864 47552940 
1159.026 47775140 47955856 48086308 48157828 48162708 48095524 47953748 
1162.401 47736228 47442568 47072360 46625328 46102148 45506148 44843620 
1165.776 44123416 43355740 42551156 41719172 40867696 40004668 39137656 
1169.151 38275012 37426248 36600048 35804132 35044220 34323360 33643144 
1172.527 33004678 32409594 31860214 31359640 30910054 30512400 30165826 
1175.902 29868114 29616686 29409504 29245306 29123012 29040818 28995580 
1179.277 28982794 28998166 29039328 29107564 29208200 29349980 29543618 
1182.652 29798518 30122958 30522958 31002960 31567112 32219026 32962136 
1186.028 33799416 34733960 35770956 36921276 38204524 39648332 41288944 
1189.403 43161520 45290296 47678464 50298832 53090652 55956500 58781484 
1192.778 61439952 63809924 65801284 67360488 68484704 69220656 69662672 
1196.153 69940464 70190888 70556056 71156936 72073968 73345784 74954968 
1199.529 76832800 78853928 80854888 82653432 84051752 84877304 84998584 
1202.904 84333664 82865912 80637128 77742728 74309256 70489944 66452688 
1206.279 62353192 58338988 54534584 51025672 47867316 45078992 42650864 
1209.654 40551904 38738920 37168276 35797404 34592888 33530920 32594566 
1213.030 31773434 31061430 30454890 29952810 29555252 29263380 29077732 
1216.405 28996998 29017118 29131800 29332820 29612074 29963710 30383816 
1219.780 30870208 31421080 32033286 32701872 33420902 34184536 34988012 
1223.155 35828276 36702292 37605892 38532776 39473868 40419952 41364524 
1226.531 42306156 43250056 44206904 45191820 46220032 47306428 48465012 
1229.906 49708008 51047768 52495908 54062284 55753584 57572084 59516400 
1233.281 61582576 63767172 66069164 68490168 71032984 73699472 76488208 
1236.656 79394328 82409616 85522000 88714184 91959488 95211280 98403568 
1240.031 101442672 104209224 106580400 108434504 109672440 110239832 
1242.925 110132608 109407432 108171864 106587560 104848392 103148264 
1245.818 101682712 100614000 100058280 100094160 100756584 102049064 
1248.711 103955736 106451592 109508264 113088800 117144488 121598320 
1251.604 126326848 131166520 135897152 140247200 143934656 146659952 
1254.497 148146592 148189088 146661904 143555520 138974352 133131144 
1257.390 126309784 118814248 110964520 103047104 95299752 87927144 81075464 
1260.765 74839296 69269856 64371376 60112776 56435548 53268128 50532228 
1264.140 48150456 46058524 44202424 42541508 41050156 39712880 38524084 
1267.516 37485952 36608304 35906296 35398448 35105968 35047128 35232548 
1270.891 35660376 36311368 37146656 38103268 39101868 40049284 40841416 
1274.266 41383660 41595832 41425428 40859764 39926416 38691792 37241916 
1277.641 35677064 34092096 32559886 31134256 29843910 28696902 27687868 
1281.017 26803664 26029104 25347698 24744590 24206988 23723412 23285608 
1284.392 22889110 22531986 22214456 21937062 21698468 21496110 21325478 
1287.767 21182606 21064788 20971342 20902636 20858690 20837382 20834080 
1291.142 20843290 20859628 20880140 20904894 20936292 20977322 21029800 
1294.518 21093552 21166986 21248850 21339224 21440198 21555578 21689064 
1297.893 21842452 22015620 22206922 22414882 22639556 22882892 23147052 
1301.268 23433720 23741750 24067788 24406898 24755360 25111824 25477894 
1304.643 25856472 26249638 26657110 27075720 27500844 27927936 28354956 
1308.019 28782252 29211496 29643254 30076048 30506108 30929054 31341832 
1311.394 31744666 32141026 32537102 32939974 33356566 33794260 34261724 
1314.769 34767808 35321136 35923856 36566348 37220508 37839612 38365232 
1318.144 38732472 38888812 38804600 38477956 37933796 37216104 36379028 
1321.520 35472368 34539752 33616332 32727488 31894658 31135428 30462674 
1324.895 29884940 29404362 29017862 28718424 28497944 28349758 28267778 
1328.270 28246526 28279412 28357466 28470418 28609196 28766180 28937210 
1331.645 29119894 29311338 29506486 29697428 29874292 30028892 30156236 
1335.021 30255872 30330764 30384988 30420808 30437760 30433070 30403928 
1338.396 30350910 30278396 30194630 30108008 30025200 29948620 29877274 
1341.771 29809166 29743978 29684266 29635734 29604518 29595898 29612784 
1345.146 29656346 29728154 29831986 29974252 30163908 30409366 30716124 
1348.521 31086202 31518690 32012276 32566636 33182428 33860236 34597336 
1351.897 35385868 36213468 37064084 37921972 38773084 39602996 40394856 
1355.272 41125220 41760716 42263424 42594684 42723976 42638468 42346336 
1358.647 41878672 41281768 40616112 39947740 39338612 38850724 38539796 
1362.022 38451568 38622760 39073880 39807288 40807600 42044940 43478484 
1365.398 45052384 46698080 48329112 49834904 51101924 52024396 52526984 
1368.773 52588576 52244452 51580264 50702596 49727328 48757772 47868576 
1372.148 47113720 46522496 46102736 45840960 45701132 45627736 45544196 
1375.523 45369184 45032128 44478888 43688344 42673452 41482660 40188180 
1378.899 38875548 37631400 36522696 35597612 34885812 34403120 34159408 
1382.274 34161524 34415420 34929512 35721132 36821980 38283700 40169572 
1385.649 42532300 45380444 48639940 52140316 55610792 58744648 61261968 
1389.024 62941604 63666872 63415764 62248328 60281684 57670308 54590528 
1392.400 51204580 47675392 44165120 40824020 37798188 35202360 33095316 
1395.775 31471700 30269728 29400996 28768340 28291542 27918010 27618974 
1399.150 27387686 27228378 27146400 27141780 27207142 27329778 27495832 
1402.525 27693308 27914264 28157602 28428602 28738814 29101930 29532304 
1405.901 30042100 30638926 31327196 32106418 32970108 33901220 34868544 
1409.276 35828812 36724828 37499572 38109596 38533788 38780908 38883088 
1412.651 38888232 38842068 38780580 38726820 38689912 38672272 38674408 
1416.026 38698388 38748628 38830216 38947848 39106436 39313000 39577444 
1419.402 39911996 40325552 40817536 41377028 41984536 42619172 43262060 
1422.777 43903884 44546732 45201636 45882940 46599176 47348108 48115736 
1426.152 48881568 49623980 50329152 50990420 51609000 52191876 52751256 
1429.527 53305064 53877656 54504120 55226864 56086440 57117632 58339712 
1432.903 59757656 61368464 63173392 65187200 67434752 69939520 72697408 
1436.278 75650264 78684272 81660512 84462240 87024440 89325648 91359400 
1439.653 93112032 94543168 95589064 96185568 96277864 95842712 94893488 
1443.028 93477304 91665992 89539416 87185080 84679224 82077312 79418232 
1446.404 76724768 74021272 71355112 68803936 66471340 64468884 62881628 
1449.779 61756988 61099844 60876784 61021896 61437620 62010308 62607168 
1453.154 63092656 63347296 63257100 62722004 61663680 60052160 57954308 
1456.529 55559724 53169436 51077432 49460500 48350036 47676652 47341308 
1459.905 47256332 47361816 47617232 47988900 48445932 48952436 49468484 
1463.280 49957560 50389168 50747464 51036404 51279928 51515236 51778964 
1466.655 52103740 52510828 53009256 53598256 54268352 55004204 55780560 
1470.030 56563928 57308028 57944956 58394896 58578268 58440148 57975056 
1473.406 57227360 56272196 55184308 54028364 52857596 51717152 50656308 
1476.781 49725248 48964492 48402112 48047780 47895660 47933136 48148532 
1480.156 48537476 49104932 49862700 50823964 51997732 53384264 54975620 
1483.531 56759824 58729360 60886964 63249508 65847128 68715584 71884296 
1486.906 75366952 79156424 83228600 87554600 92108000 96867232 101802544 
1490.282 106868056 111988896 117069080 122006888 126714944 131128296 
1493.175 135183408 138817184 141949136 144467968 146262336 147252624 
1496.068 147439472 146920768 145883488 144554624 143127200 141748544 
1498.961 140513344 139476208 138678736 138155344 137927808 138001376 
1501.854 138350992 138919520 139604352 140258096 140684240 140599392 
1504.747 139645392 137419616 133568616 127993760 120987224 113165208 
1507.640 105180408 97459640 90134304 83144248 76371176 69737520 63237780 
1511.015 56960488 51055596 45668404 40919468 36858620 33462736 30661610 
1514.391 28360366 26464894 24886218 23553198 22415756 21441140 20617458 
1517.766 19943512 19416946 19025932 18743438 18527790 18335750 18135022 
1521.141 17922712 17727730 17596804 17566060 17641970 17803394 18014746 
1524.516 18244550 18474612 18707910 18963626 19267668 19636572 20070468 
1527.892 20554610 21069658 21601578 22147192 22714090 23315290 23961930 
1531.267 24658558 25401372 26180232 26984006 27804106 28637260 29481024 
1534.642 30331864 31180462 32012776 32809454 33549462 34214972 34787124 
1538.017 35249832 35588296 35788516 35837308 35727428 35467440 35084848 
1541.393 34620552 34115572 33595352 33063744 32504678 31894624 31217666 
1544.768 30478882 29705978 28940292 28216754 27547230 26918572 26299728 
1548.143 25658494 24976194 24260556 23542564 22865674 22262898 21743020 
1551.518 21291304 20880592 20486942 20100170 19728654 19393244 19114772 
1554.894 18900634 18740118 18605874 18463168 18270984 17986358 17571270 
1558.269 17005942 16313249 15565163 14856453 14258863 13796938 13458660 
1561.644 13212894 13023976 12858858 12692952 12514319 12325875 12144053 
1565.019 11991498 11887249 11837362 11833414 11856942 11889155 11916331 
1568.395 11935199 11953351 11984720 12043173 12136421 12266293 12431014 
1571.770 12629909 12863125 13131607 13434805 13768139 14124937 14499363 
1575.145 14890433 15306018 15760893 16271900 16846814 17483988 18176446 
1578.520 18917628 19705770 20542938 21432714 22373540 23352806 24348090 
1581.896 25325218 26244816 27070186 27767124 28308200 28673930 28852110 
1585.271 28839470 28642322 28277504 27770690 27154688 26469156 25751548 
1588.646 25033438 24335334 23663296 23011512 22367714 21721038 21065030 
1592.021 20399768 19729278 19058718 18393060 17737810 17102640 16503880 
1595.396 15961628 15498062 15127543 14853231 14665824 14549213 14488502 
1598.772 14475588 14512004 14606196 14767522 15000312 15302654 15669407 
1602.147 16098013 16594201 17173334 17855350 18660660 19603396 20689282 
1605.522 21917892 23285888 24789738 26422110 28167290 29997364 31866774 
1608.897 33718520 35494404 37140664 38622652 39927980 41067088 42066476 
1612.273 42958420 43770284 44514352 45184648 45756092 46191984 46446820 
1615.648 46477868 46256996 45777848 45054916 44114648 42980956 41669312 
1619.023 40187996 38542152 36737196 34779544 32684974 30477994 28198720 
1622.398 25913340 23704970 21662316 19858946 18333366 17084924 16081097 
1625.774 15273928 14612432 14052890 13567698 13143355 12779309 12481207 
1629.149 12254398 12098908 12008972 11974127 11981620 12019260 12074310 
1632.524 12134377 12185694 12211593 12194860 12121531 11987888 11806038 
1635.899 11604356 11416510 11266794 11163432 11099319 11060094 11029165 
1639.275 10993346 10946111 10887261 10822034 10757904 10701050 10653847 
1642.650 10613814 10574565 10527444 10463662 10375116 10256088 10104908 
1646.025 9926047 9731234 9538878 9370882 9244344 9169244 9145658 9164981 
1649.883 9211717 9263130 9292410 9265905 9151343 8933133 8632654 8312457 
1653.740 8041705 7860082 7764071 7727171 7719244 7717929 7710542 7692094 
1657.597 7662618 7625321 7583408 7538768 7491166 7438312 7376667 7302192 
1661.455 7211796 7105487 6987419 6866319 6753768 6661231 6595996 6559968 
1665.312 6548733 6553442 6563265 6566225 6551962 6513516 6448135 6358118 
1669.170 6250505 6135862 6025448 5929371 5855178 5805544 5778345 5765888 
1673.027 5756621 5735805 5689843 5612033 5507658 5393915 5292544 5220942 
1676.885 5184223 5175873 5182680 5191600 5194953 5192807 5191834 5201526 
1680.742 5228487 5271482 5320384 5356846 5360972 5316862 5224060 5101105 
1684.599 4980933 4893397 4850239 4845816 4865753 4895676 4923825 4943396 
1688.457 4951540 4948222 4935588 4918463 4903550 4898792 4911090 4944301 
1692.314 4996417 5059938 5121422 5165445 5178657 5156157 5106972 5054373 
1696.172 5026819 5041300 5097920 5180098 5263701 5320585 5327394 5273863 
1700.029 5171514 5053803 4958310 4909750 4909113 4942089 4987871 5027422 
1703.886 5046529 5036774 4997859 4937297 4867662 4801457 4746851 4706220 
1707.744 4677147 4654875 4634848 4615090 4596303 4580766 4571557 4570553 
1711.601 4577785 4591883 4610301 4630896 4652933 4676678 4702569 4729533 
1715.459 4753384 4767554 4764874 4741157 4699086 4649014 4605411 4580665 
1719.316 4580431 4603436 4643120 4691415 4741424 4789028 4833319 4875805 
1723.174 4919200 4966387 5019512 5079247 5145696 5218326 5295798 5375028 
1727.031 5451823 5520477 5575784 5614852 5638416 5651708 5661779 5674502 
1730.888 5690851 5704883 5702634 5665505 5577126 5430753 5239856 5036104 
1734.746 4858951 4735194 4670248 4651593 4658291 4670214 4669678 4645967 
1738.603 4595366 4522003 4435932 4349243 4272240 4209940 4162300 4125971 
1742.461 4097104 4071985 4048473 4026501 4007272 3992658 3984198 3982459 
1746.318 3987007 3996203 4007640 4019144 4028508 4033725 4033123 4024461 
1750.176 4006168 3978146 3943137 3907060 3877105 3860089 3859186 3873026 
1754.033 3895492 3916957 3927623 3919398 3889675 3842305 3787118 3735246 
1757.890 3694609 3667342 3649365 3633560 3611509 3577231 3529126 3470271 
1761.748 3408018 3350649 3306075 3278598 3269418 3276395 3295291 3320064 
1765.605 3343637 3359364 3362637 3352853 3333787 3313454 3299598 3296593 
1769.463 3302336 3308713 3304105 3276962 3221680 3141841 3050337 2964758 
1773.320 2898375 2857049 2837604 2832402 2833336 2835770 2838805 2844175 
1777.177 2853980 2868355 2884732 2899008 2906814 2906247 2898875 2888668 
1781.035 2880530 2877327 2879395 2883732 2887334 2887334 2883231 2876994 
1784.892 2871924 2871457 2877661 2891770 2913552 2942774 2979203 3022043 
1788.750 3069057 3116243 3157594 3186398 3196579 3185597 3155692 3114174 
1792.607 3070592 3034088 3010532 3000789 3002758 3012434 3026347 3041729 
1796.465 3056344 3069024 3078501 3083539 3083005 3076332 3063651 3045899 
1800.322 3024545 3002391 2982039 2966426 2957852 2958153 2967761 2986043 
1804.179 3010498 3037791 3064853 3089179 3109903 3127323 3142976 3157961 
1808.037 3172580 3185731 3195911 3201753 3202754 3200017 3195678 3192173 
1811.894 3191005 3192573 3196178 3200517 3205024 3209597 3215138 3222949 
1815.752 3234432 3249955 3269751 3293388 3320365 3350482 3383641 3419573 
1819.609 3457713 3497760 3539014 3581006 3622969 3663666 3700624 3730868 
1823.467 3750954 3759443 3757805 3751288 3748013 3755199 3776455 3809980 
1827.324 3848856 3882253 3899471 3893921 3865271 3820543 3770874 3728228 
1831.181 3699488 3685186 3680808 3679338 3674994 3664568 3647761 3626878 
1835.039 3605060 3584881 3567709 3554313 3545160 3541085 3543857 3555048 
1838.896 3575794 3606096 3644787 3689563 3737987 3786984 3833245 3873294 
1842.754 3903884 3923711 3934376 3940729 3950426 3970655 4004965 4052988 
1846.611 4111019 4173406 4235100 4294225 4351351 4409321 4471148 4537773 
1850.469 4607321 4675841 4738779 4793349 4839953 4881937 4923657 4968800 
1854.326 5018573 5071503 5124942 5176410 5225402 5273762 5325113 5382542 
1858.183 5448401 5523128 5605957 5696558 5794933 5901695 6017217 6140028 
1862.041 6266472 6391069 6507697 6610933 6697436 6765446 6814046 6841848 
1865.898 6846089 6822998 6768710 6681789 6565148 6427184 6279750 6136197 
1869.756 6007440 5898873 5810380 5737886 5675811 5618376 5560681 5499135 
1873.613 5431121 5354800 5270609 5179964 5085885 4992194 4901640 4814992 
1877.470 4730638 4645129 4554481 4456754 4352857 4246777 4144068 4050246 
1881.328 3968582 3899504 3841369 3791596 3748347 3710950 3680240 3657117 
1885.185 3642047 3633928 3630988 3631355 3633694 3637570 3642749 3649097 
1889.043 3655880 3662430 3668778 3676063 3686957 3703966 3727994 3758574 
1892.900 3791964 3823217 3848288 3864769 3873327 3877072 3879679 3883123 
1896.758 3887803 3892350 3894623 3895125 3896161 3902279 3917592 3944407 
1900.615 3981523 4024929 4068440 4107440 4139953 4166950 4191505 4217869 
1904.472 4249052 4285726 4327656 4373240 4420568 4467868 4513197 4554146 
1908.330 4588400 4614085 4630762 4640139 4645498 4650052 4656382 4664755 
1912.187 4673697 4681602 4687463 4692588 4699755 4711746 4728629 4747923 
1916.045 4763668 4769430 4760586 4737941 4706957 4676444 4654038 4642952 
1919.902 4640441 4640374 4635518 4621519 4599283 4574102 4554045 4545674 
1923.760 4552003 4571122 4598647 4629690 4661339 4693391 4727557 4765443 
1927.617 4807588 4853187 4900769 4949194 4999300 5052429 5110023 5171481 
1931.474 5233786 5291706 5339872 5374256 5393378 5398846 5392976 5379020 
1935.332 5359630 5335914 5310120 5285266 5264908 5253136 5252701 5262963 
1939.189 5280370 5300225 5318069 5331855 5343462 5357349 5378617 5410589 
1943.047 5453031 5502155 5553734 5603373 5649291 5691757 5732111 5771529 
1946.904 5812126 5854137 5899410 5950432 6009893 6078602 6156025 6237429 
1950.761 6316226 6387135 6447866 6500264 6550718 6606694 6673277 6751379 
1954.619 6836765 6921832 6999406 7065510 7119802 7165308 7207349 7248754 
1958.476 7291275 7334205 7377476 7420852 7466862 7516518 7570865 7627952 
1962.334 7683494 7733005 7774292 7806845 7833193 7856405 7877964 7896826 
1966.191 7911099 7918725 7920784 7922370 7929658 7949298 7983383 8028946 
1970.049 8079443 8126737 8166711 8199327 8229751 8264838 8310261 8368525 
1973.906 8439231 8521098 8616026 8728824 8865729 9031262 9221802 9424786 
1977.763 9619258 9783691 9900928 9964052 9977342 9950795 9899335 9836663 
1981.621 9771864 9711377 9659404 9617260 9586231 9567160 9558219 9556694 
1985.478 9560352 9568109 9581997 9608283 9653543 9723542 9820055 9939303 
1989.336 10072215 10211173 10348241 10481346 10612116 10744182 10880806 
1992.711 11023626 11170708 11319437 11468320 11616369 11763141 11909043 
1996.086 12050838 12183649 12302968 12405477 12491028 12564146 12631614 
1999.461 12698137 12766548 12834389 12896199 12946377 12982972 13007451 
2002.837 13028380 13056412 13100872 13169345 13263895 13381700 13517208 
2006.212 13663872 13814519 13963917 14107891 14243250 14370397 14492511 
2009.587 14614317 14742875 14884089 15039654 15208244 15386203 15567155 
2012.962 15747048 15925160 16103413 16283974 16468810 16655998 16841338 
2016.338 17019656 17187330 17343410 17489268 17628342 17762524 17891602 
2019.713 18013536 18125142 18223644 18307342 18374118 18422236 18447160 
2023.088 18442980 18404502 18329218 18217872 18077264 17916256 17743056 
2026.463 17564336 17383584 17200532 17014282 16825838 16637474 16453566 
2029.839 16281085 16124010 15984969 15865184 15763402 15678339 15609949 
2033.214 15557230 15519386 15494182 15476807 15461768 15446455 15429528 
2036.589 15414182 15405840 15409685 15428327 15462008 15505513 15552319 
2039.964 15596656 15633648 15660062 15675178 15677994 15667072 15641961 
2043.340 15602976 15551529 15491984 15429392 15368216 15312952 15265382 
2046.715 15224990 15189852 15156535 15120235 15074231 15010498 14920849 
2050.090 14799506 14643617 14456164 14245921 14024896 13803847 13592586 
2053.465 13394583 13207771 13026400 12843842 12655766 12462657 12268815 
2056.841 12079727 11901245 11735771 11582577 11438996 11303079 11174175 
2060.216 11054078 10946247 10852574 10772170 10701457 10634696 10566655 
2063.591 10495026 10420490 10346951 10278243 10217143 10162497 10110910 
2066.966 10057396 9997650 9929370 9852626 9768475 9678038 9582538 9482014 
2070.824 9377281 9270577 9164608 9063640 8970778 8886256 8807330 8729027 
2074.681 8644924 8550057 8442710 8323670 8197537 8070430 7947475 7833126 
2078.539 7730105 7638607 7557648 7485739 7420077 7357626 7296431 7234570 
2082.396 7172415 7111381 7053555 7000584 6953681 6911025 6870392 6829629 
2086.253 6787086 6742561 6698109 6654838 6612380 6568949 6520411 6462293 
2090.111 6392044 6310276 6220286 6128233 6040567 5961753 5894372 5838924 
2093.968 5794396 5759643 5734193 5716936 5706461 5699512 5691790 5679101 
2097.826 5658993 5630762 5597768 5564172 5533430 5507490 5485578 5464741 
2101.683 5441959 5416326 5388044 5359764 5334606 5313977 5298112 5285535 
2105.541 5274634 5264505 5255954 5250890 5251191 5257362 5268597 5282248 
2109.398 5296133 5308241 5318941 5329105 5340342 5352820 5365870 5377309 
2113.255 5385025 5388011 5386568 5382207 5376772 5371439 5365870 5358825 
2117.113 5348527 5333264 5312938 5288486 5260615 5231103 5201392 5171984 
2120.970 5143819 5118069 5095406 5076263 5060776 5047601 5034562 5020417 
2124.828 5003624 4983949 4962064 4938034 4910990 4879994 4843337 4800988 
2128.685 4754824 4708966 4669143 4641144 4628485 4631566 4648880 4676846 
2132.542 4712182 4754489 4803836 4860358 4923925 4991222 5056921 5116695 
2136.400 5167289 5208769 5244048 5277485 5310925 5344401 5375061 5398880 
2140.257 5413038 5418037 5414782 5406965 5394754 5376202 5346581 5301399 
2144.115 5238078 5159946 5075325 4993803 4926271 4878787 4851981 4841595 
2147.972 4842097 4847123 4852920 4857778 4860056 4857845 4848664 4828930 
2151.830 4796565 4751742 4695904 4631499 4560005 4481627 4395564 4304298 
2155.687 4215326 4143633 4108477 4131658 4227371 4397974 4628786 4893129 
2159.544 5160248 5400960 5597063 5741411 5836406 5889502 5911468 5913652 
2163.402 5904549 5892189 5882012 5875295 5870459 5864313 5852089 5830965 
2167.259 5801783 5767399 5731943 5700116 5671782 5644592 5615389 5580717 
2171.117 5541082 5501148 5467257 5445851 5441589 5452997 5475881 5504302 
2174.974 5532860 5558600 5582396 5604313 5625089 5644155 5660268 5673629 
2178.832 5688903 5712437 5751753 5812159 5892794 5984864 6075947 6152597 
2182.689 6204859 6231916 6239950 6239042 6240017 6250303 6270640 6297298 
2186.546 6325068 6348031 6363397 6369987 6368171 6358992 6343189 6321202 
2190.404 6295282 6268926 6244387 6224253 6208254 6192087 6169804 6136332 
2194.261 6087573 6025280 5954967 5883692 5819581 5768004 5730600 5706058 
2198.119 5692227 5686117 5685815 5690481 5699310 5710691 5723248 5735167 
2201.976 5745743 5755278 5765351 5776700 5790400 5805309 5820488 5836002 
2205.833 5853533 5875564 5906195 5947678 5999411 6058508 6119193 6175786 
2209.691 6224488 6264421 6296223 6321975 6342820 6357479 6363497 6358689 
2213.548 6342383 6316024 6285196 6254908 6230437 6214707 6207245 6206170 
2217.406 6208354 6210976 6211581 6209295 6202103 6188491 6167250 6137642 
2221.263 6100779 6059853 6018762 5981640 5951541 5929069 5912778 5901258 
2225.121 5891887 5882886 5874086 5864750 5853936 5841006 5824853 5805376 
2228.978 5784322 5764847 5749772 5742351 5743124 5750611 5762027 5773913 
2232.835 5783718 5791542 5797854 5804470 5812932 5823913 5836842 5852089 
2236.693 5870090 5891652 5918455 5951574 5990172 6032638 6076619 6119395 
2240.550 6159856 6197969 6233933 6267985 6299719 6327321 6348838 6363800 
2244.408 6372475 6377552 6381991 6388144 6396853 6406907 6415112 6418340 
2248.265 6414843 6404116 6387337 6366591 6343728 6319789 6296088 6273599 
2252.123 6254505 6241799 6239312 6249261 6272556 6307250 6348771 6391674 
2255.980 6430480 6460847 6480555 6489232 6487147 6476284 6458460 6435726 
2259.837 6410068 6383335 6356201 6328766 6300391 6269766 6236723 6202204 
2263.695 6168124 6137642 6113649 6097317 6088077 6084011 6081626 6078232 
2267.552 6073326 6067043 6061801 6060020 6063582 6073057 6088312 6108306 
2271.410 6131761 6158008 6186071 6214337 6241093 6264119 6281330 6292256 
2275.267 6297769 6299921 6301871 6306409 6315117 6328464 6345778 6365011 
2279.125 6384949 6403948 6420862 6434784 6444873 6450523 6451700 6449178 
2282.982 6443999 6437643 6431186 6424494 6416760 6406974 6393793 6377250 
2286.839 6358454 6338953 6320731 6304896 6291281 6279078 6267010 6254673 
2290.697 6242539 6231782 6224421 6221530 6223144 6227984 6234169 6239883 
2294.554 6243648 6245093 6244354 6241597 6237093 6231043 6223581 6215077 
2298.412 6206909 6200691 6197935 6199582 6205531 6214472 6225194 6236421 
2302.269 6247379 6258640 6270976 6284692 6299988 6316192 6332330 6347863 
2306.126 6363229 6379334 6397962 6420559 6447631 6478504 6511498 6544495 
2309.984 6575173 6602052 6624087 6641179 6653661 6661971 6666850 6669778 
2313.841 6671662 6673882 6677651 6683573 6691716 6701912 6713622 6726207 
2317.699 6740139 6755888 6774533 6797284 6825187 6858745 6897593 6940281 
2321.556 6983479 7022944 7052813 7067531 7063152 7038198 6994826 6939339 
2325.414 6880155 6826566 6786649 6766254 6766893 6787591 6824917 6874634 
2329.271 6933346 6998328 7067968 7140112 7212672 7282211 7345292 7398708 
2333.128 7440334 7469423 7486481 7492380 7488537 7476199 7456244 7430289 
2336.986 7399888 7367096 7333834 7301485 7270317 7239691 7208730 7175885 
2340.843 7140483 7102590 7062243 7019711 6974893 6927387 6876587 6822427 
2344.701 6766388 6711165 6660727 6620219 6593843 6585231 6596232 6626880 
2348.558 6675632 6739197 6813170 6892577 6971762 7045910 7111111 7165847 
2352.416 7210145 7246059 7276281 7302799 7326993 7349369 7369589 7387519 
2356.273 7403966 7419538 7435750 7453210 7471682 7490155 7507314 7521305 
2360.130 7530879 7535296 7533745 7525485 7511090 7490829 7466457 7440974 
2363.988 7417852 7400259 7390282 7387889 7390653 7396079 7400663 7402719 
2367.845 7402247 7401135 7401135 7404539 7411583 7421290 7432143 7442154 
2371.703 7450008 7455670 7459682 7462884 7466187 7469997 7474143 7478424 
2375.560 7482637 7486379 7489481 7491638 7492413 7491537 7489211 7485503 
2379.417 7481255 7477547 7474986 7473738 7474143 7475221 7476839 7478660 
2383.275 7481154 7485031 7491166 7499931 7511460 7525418 7541263 7558491 
2387.132 7577271 7597367 7618712 7641339 7664642 7687811 7710610 7732871 
2390.990 7754930 7777665 7802021 7828369 7856944 7887345 7919231 7952200 
2394.847 7986252 8021150 8057029 8093350 8129607 8164786 8198078 8229312 
2398.705 8258252 8285032 8309384 8330932 8348563 8361094 8367411 8367141 
2402.562 8360250 8347752 8330898 8311038 8289389 8267471 8246231 8227084 
2406.419 8211146 8199159 8191089 8186598 8184741 8184302 8184943 8186800 
2410.277 8190751 8198214 8210436 8228029 8251195 8279325 8311477 8347077 
2414.134 8385821 8427406 8472239 8520557 8572597 8628767 8689306 8754483 
2417.992 8823967 8897011 8971286 9044321 9112666 9173509 9224950 9266752 
2421.849 9299687 9325754 9347082 9365161 9381345 9396106 9409481 9421535 
2425.707 9432777 9442665 9450927 9457191 9460240 9460002 9456379 9450352 
2429.564 9443681 9438297 9435824 9437653 9444493 9456481 9473650 9495561 
2433.421 9521469 9550157 9580133 9609300 9636096 9659675 9680613 9700433 
2437.279 9721780 9746550 9775523 9808430 9843542 9879268 9914047 9947778 
2441.136 9980868 10014976 10050614 10088256 10127087 10166194 10204965 
2444.511 10243366 10282008 10321367 10361950 10403249 10443772 10481652 
2447.887 10515495 10544384 10568386 10587772 10602576 10612727 10617821 
2451.262 10617345 10611947 10603458 10594427 10587772 10586108 10590183 
2454.637 10599248 10611708 10625392 10638703 10651437 10663831 10677006 
2458.012 10692084 10709642 10729781 10752571 10778148 10806952 10839733 
2461.388 10876865 10918112 10963169 11010915 11060740 11112814 11167954 
2464.763 11227452 11292945 11365726 11445560 11532318 11624605 11721508 
2468.138 11821904 11925832 12032817 12143236 12257159 12374793 12496824 
2471.513 12624076 12757437 12898007 13046579 13203262 13368100 13541033 
2474.889 13722620 13914306 14118639 14338170 14576007 14834647 15115329 
2478.264 15418783 15745124 16093750 16464164 16855804 17267586 17697740 
2481.639 18144106 18603212 19070628 19541664 20009988 20468324 20909172 
2485.014 21323738 21702858 22038312 22321634 22546016 22706478 22799844 
2488.390 22825616 22785876 22686090 22533312 22336808 22106606 21851790 
2491.765 21581102 21301848 21019818 20740370 20468394 20208112 19963842 
2495.140 19739542 19537956 19361372 19211696 19090292 18999276 18941022 
2498.515 18918422 18934586 18992356 19093996 19241032 19435308 19678242 
2501.891 19971994 20318548 20720142 21177110 21689274 22253620 22865430 
2505.266 23519128 24206708 24918958 25645278 26371478 27080272 27752324 
2508.641 28364434 28892800 29314458 29607782 29755582 29746676 29576852 
2512.016 29249736 28777826 28181254 27484572 26715774 25903984 25073702 
2515.392 24246928 23440120 22663922 21924934 21225922 20566838 19946046 
2518.767 19360366 18806372 18280766 17780542 17303962 16850532 16420873 
2522.142 16016081 15637770 15287176 14964608 14669766 14402387 14161359 
2525.517 13945817 13754903 13587218 13441161 13314526 13205653 13112380 
2528.893 13033707 12969010 12917941 12880088 12854354 12839030 12831863 
2532.268 12830566 12833194 12838791 12846709 12857050 12869746 12884764 
2535.643 12901626 12919512 12938252 12957062 12976179 12995365 13014484 
2539.018 13033160 13051564 13069593 13088476 13109307 13133110 13160569 
2542.394 13191718 13225431 13260171 13294675 13328329 13361472 13395437 
2545.769 13431968 13472331 13517448 13567424 13622159 13681242 13744541 
2549.144 13812399 13885295 13963062 14045225 14131098 14219283 14308719 
2552.519 14398516 14488092 14577137 14665516 14752850 14838693 14923593 
2555.895 15008303 15094608 15184842 15282096 15388504 15505753 15634095 
2559.270 15772782 15920278 16075147 16235610 16401226 16572136 16749209 
2562.645 16933690 17127282 17331132 17545362 17769428 18001276 18238328 
2566.020 18477310 18715384 18950092 19179940 19403952 19621664 19832066 
2569.396 20033546 20223664 20400114 20560030 20701100 20822502 20923322 
2572.771 21003960 21064822 21106702 21130492 21137172 21128406 21106040 
2576.146 21072926 21032268 20987510 20941960 20898984 20860742 20829386 
2579.521 20805888 20791080 20785482 20790106 20805784 20834184 20877186 
2582.896 20936432 21013766 21110144 21225852 21360456 21513238 21683004 
2586.272 21869176 22071606 22290416 22526298 22780254 23052774 23344204 
2589.647 23653988 23980520 24321072 24672094 25029192 25386936 25740508 
2593.022 26085010 26415560 26727860 27017008 27277664 27504408 27691400 
2596.397 27833498 27927372 27971224 27965818 27913590 27818024 27682924 
2599.773 27511786 27307514 27072866 26810676 26524590 26218840 25898816 
2603.148 25570276 25238542 24908992 24586178 24273836 23975024 23692828 
2606.523 23429700 23188748 22973082 22785456 22628804 22505884 22417848 
2609.898 22365204 22347518 22362796 22408324 22481178 22578368 22696808 
2613.274 22833858 22986916 23153170 23329204 23511538 23696222 23879794 
2616.649 24059278 24232562 24398522 24556586 24706710 24849238 24985074 
2620.024 25115336 25241948 25367300 25493564 25622818 25756118 25892942 
2623.399 26031812 26169746 26303036 26427568 26538854 26632238 26702844 
2626.775 26745444 26754748 26725818 26654080 26536352 26370878 26157428 
2630.150 25897444 25594138 25252414 24878080 24478546 24061800 23635584 
2633.525 23207482 22784130 22370750 21971286 21588414 21223312 20876630 
2636.900 20548634 20238868 19946670 19671690 19412612 19168408 18937598 
2640.276 18719154 18511954 18315394 18128802 17951720 17783856 17624372 
2643.651 17472778 17328134 17189604 17056528 16928560 16805412 16687296 
2647.026 16574958 16468707 16369501 16277885 16194578 16119678 16053796 
2650.401 15996624 15948256 15908213 15876457 15852125 15834600 15823122 
2653.777 15816730 15814943 15817314 15823603 15833912 15848449 15867108 
2657.152 15889827 15916292 15945885 15978163 16013090 16050152 16089933 
2660.527 16132675 16178379 16227597 16279951 16335612 16394172 16455837 
2663.902 16520435 16588178 16659545 16734608 16813300 16895866 16981788 
2667.278 17070486 17161442 17254242 17348410 17443908 17540978 17639970 
2670.653 17741468 17845682 17952998 18063100 18175754 18290372 18406748 
2674.028 18524540 18643642 18764196 18886272 19009696 19134716 19261466 
2677.403 19390474 19522638 19659208 19800852 19948612 20102808 20263136 
2680.779 20429392 20601130 20778184 20961014 21150288 21346778 21551052 
2684.154 21763330 21983832 22212644 22450296 22697400 22955580 23226112 
2687.529 23510524 23809786 24124632 24455552 24802648 25166490 25547398 
2690.904 25946086 26363132 26798482 27252192 27723186 28210600 28712264 
2694.280 29225708 29746640 30269086 30785974 31287666 31764164 32204754 
2697.655 32598746 32936256 33208716 33408594 33530276 33570400 33528522 
2701.030 33406626 33210720 32949556 32633536 32275628 31889026 31485948 
2704.405 31078798 30677684 30290546 29923346 29579546 29259836 28963810 
2707.781 28689574 28435112 28198402 27978574 27774612 27586102 27412250 
2711.156 27252192 27104676 26968740 26843138 26727580 26621564 26525188 
2714.531 26438272 26360280 26290540 26228448 26173580 26126390 26087508 
2717.906 26057988 26038674 26029984 26031320 26041628 26059044 26081878 
2721.281 26107952 26135644 26163656 26190930 26217116 26242176 26266920 
2724.657 26292196 26319406 26349824 26384188 26423272 26467712 26517756 
2728.032 26574816 26640128 26715528 26802218 26901192 27012144 27134162 
2731.407 27265880 27405790 27553020 27707010 27867624 28034768 28208266 
2734.782 28387426 28571224 28758994 28950032 29144272 29341648 29542342 
2738.158 29745610 29951072 30157266 30362566 30565616 30764884 30958480 
2741.533 31144684 31320822 31484060 31631290 31759638 31866844 31951718 
2744.908 32013812 32053408 32071668 32070064 32050126 32013882 31964198 
2748.283 31903610 31835754 31763882 31691202 31620956 31556066 31499166 
2751.659 31452462 31418372 31398036 31392444 31401456 31424180 31458624 
2755.034 31502764 31553966 31609480 31666786 31723280 31776500 31824380 
2758.409 31865384 31898152 31922474 31938556 31947046 31948614 31944264 
2761.784 31935026 31922258 31907390 31892590 31879860 31871126 31867736 
2765.160 31870838 31880610 31897190 31921298 31953644 31996120 32050696 
2768.535 32120046 32205894 32309678 32431946 32572710 32731560 32908234 
2771.910 33102110 33312634 33539150 33780508 34035544 34302672 34580436 
2775.285 34867572 35162876 35465676 35775636 36091972 36414444 36742208 
2778.661 37074584 37409528 37745560 38080080 38410628 38734248 39048648 
2782.036 39351308 39640312 39913740 40169968 40407328 40625136 40822996 
2785.411 41002052 41164160 41312996 41452328 41586424 41719136 41853784 
2788.786 41992856 42138724 42293116 42457832 42633756 42821016 43018084 
2792.162 43222016 43428020 43630092 43821556 43996236 44149528 44277856 
2795.537 44380892 44459804 44518684 44562888 44600008 44638376 44686008 
2798.912 44751712 44843144 44966788 45128108 45331192 45578124 45869864 
2802.287 46205508 46582980 46999248 47450808 47934284 48446232 48983964 
2805.663 49544828 50125724 50722884 51331836 51946456 52560752 53167752 
2809.038 53760716 54333536 54879968 55394300 55871028 56305012 56691292 
2812.413 57026264 57306744 57530096 57694600 57798448 57840388 57819608 
2815.788 57736760 57593388 57393336 57142048 56845508 56511092 56146200 
2819.164 55757768 55353384 54940576 54526660 54119216 53725540 53351216 
2822.539 53001472 52679540 52387448 52125820 51894704 51693148 51520044 
2825.914 51374276 51254724 51160704 51092228 51049744 51034392 51047208 
2829.289 51088616 51158504 51255392 51377408 51521800 51686432 51869160 
2832.665 52068252 52282944 52512324 52755632 53012440 53283112 53568308 
2836.040 53869892 54190044 54531244 54896056 55286808 55705704 56155248 
2839.415 56639156 57161588 57728244 58345396 59019672 59757656 60565988 
2842.790 61451212 62420900 63484104 64650380 65930428 67333328 68864112 
2846.166 70520464 72289192 74144504 76043416 77930056 79738280 81392672 
2849.541 82823608 83971096 84792072 85268216 85405656 85234464 84800040 
2852.916 84160896 83381416 82521872 81640472 80788312 80004824 79321656 
2856.291 78759696 78328800 78030368 77858264 77801656 77846248 77977712 
2859.667 78182552 78447552 78760408 79109552 79482288 79865856 80247696 
2863.042 80614912 80956560 81262760 81526648 81744088 81914504 82041608 
2866.417 82131792 82195200 82243648 82288696 82341960 82412744 82508128 
2869.792 82633400 82791456 82983056 83207448 83461720 83741688 84042024 
2873.167 84357208 84682488 85014216 85350040 85688008 86026128 86362120 
2876.543 86692344 87013352 87322352 87618720 87904392 88184152 88465352 
2879.918 88756576 89066624 89404648 89778304 90193672 90655288 91165456 
2883.293 91723408 92326056 92968400 93643672 94344576 95063984 95795568 
2886.668 96533032 97270912 98003568 98725616 99433024 100123200 100795784 
2890.044 101452672 102097104 102733128 103363944 103992576 104621560 
2892.937 105253192 105891064 106539664 107203776 107888744 108598960 
2895.830 109337656 110106992 110908616 111744112 112614464 113520296 
2898.723 114460704 115432072 116429184 117444272 118468864 119495056 
2901.616 120515200 121522568 122511152 123474392 124405608 125298856 
2904.509 126148880 126952920 127710760 128424600 129098352 129736576 
2907.402 130344016 130925032 131483984 132026824 132559512 133089248 
2910.295 133623672 134168760 134729104 135305840 135896512 136493840 
2913.188 137084928 137652192 138172144 138617808 138963584 139186496 
2916.081 139272096 139216768 139028432 138723920 138324848 137853824 
2918.974 137328640 136759248 136148048 135490336 134776928 133997440 
2921.867 133144752 132217128 131220472 130168576 129083064 127991096 
2924.760 126920032 125896976 124944040 124075328 123298832 122614976 
2927.654 122020088 121506744 121066032 120688536 120364216 120083344 
2930.547 119836752 119616192 119415616 119231496 119061864 118906688 
2933.440 118765760 118637640 118519664 118406888 118293144 118172032 
2936.333 118037088 117882320 117702968 117494416 117254464 116981968 
2939.226 116677920 116345496 115988832 115612776 115222024 114819232 
2942.119 114405984 113982448 113547832 113100712 112639584 112161864 
2945.012 111664488 111144024 110596936 110021608 109418648 108792768 
2947.905 108152616 107508984 106876024 106268224 105699984 105185520 
2950.798 104738736 104372304 104099224 103929936 103872696 103932040 
2953.691 104107432 104393200 104776856 105240696 105760936 106307624 
2956.584 106848776 107350544 107780440 108113896 108334696 108439144 
2959.477 108435016 108340952 108182792 107987304 107781624 107587896 
2962.370 107420936 107289712 107195640 107133760 107093264 107059352 
2965.263 107015176 106942728 106826992 106656768 106426152 106135320 
2968.156 105789600 105399216 104976472 104535472 104090968 103655240 
2971.050 103239160 102850432 102492504 102165512 101866208 101589640 
2973.943 101329312 101079128 100833520 100587184 100335592 100074424 
2976.836 99799576 99508024 99198224 98870296 98526608 98171104 97809040 
2980.211 97446368 97089384 96744952 96419536 96119984 95852840 95622392 
2983.586 95431896 95281512 95168592 95088400 95034296 94999200 94975288 
2986.961 94954704 94929680 94891256 94830536 94738584 94605664 94423560 
2990.337 94184944 93884048 93518432 93088296 92598472 92057536 91478248 
2993.712 90876128 90266400 89662776 89074552 88506024 87955792 87419432 
2997.087 86891304 86366120 85841280 85316808 84795336 84280120 83774880 
3000.462 83282584 82805080 82343688 81899104 81471840 81062368 80671040 
3003.838 80297840 79942320 79603704 79280968 78972664 78676808 78390752 
3007.213 78111600 77835664 77559440 77279784 76994136 76700968 76398920 
3010.588 76087152 75764616 75430176 75083152 74723184 74350736 73967752 
3013.963 73576960 73182232 72787512 72396952 72014672 71643952 71287560 
3017.339 70947224 70623176 70314560 70019016 69733080 69452944 69174648 
3020.714 68894984 68610608 68318544 68015600 67697952 67361568 67002764 
3024.089 66618404 66206796 65767900 65303324 64815640 64307824 63782984 
3027.464 63243484 62691264 62127656 61553252 60968472 60373364 59767392 
3030.840 59150304 58521808 57881880 57231212 56570800 55901888 55226412 
3034.215 54546644 53864792 53183740 52506940 51837648 51179380 50535316 
3037.590 49907672 49298008 48706952 48134208 47579444 47041604 46520132 
3040.965 46013988 45522672 45045028 44580252 44127448 43685892 43254848 
3044.341 42833812 42422284 42019828 41626064 41240884 40864348 40496612 
3047.716 40138388 39789928 39451404 39122284 38801888 38488820 38181804 
3051.091 37879996 37582948 37290656 37003284 36721292 36444820 36173964 
3054.466 35908776 35649188 35395396 35147856 34906604 34671940 34443396 
3057.842 34220708 34003148 33790288 33582324 33379216 33181570 32989736 
3061.217 32803666 32623212 32448116 32277804 32112018 31950824 31794470 
3064.592 31643156 31496924 31355544 31218448 31084566 30953248 30823606 
3067.967 30695322 30568424 30443482 30321348 30203262 30090182 29983270 
3071.343 29883272 29790606 29705516 29628462 29559436 29499286 29448720 
3074.718 29408334 29378128 29357708 29345654 29339840 29337464 29336438 
3078.093 29334912 29331686 29325978 29317508 29305810 29290568 29271180 
3081.468 29247432 29219646 29188248 29154478 29118830 29081772 29042942 
3084.844 29001356 28956264 28906930 28853706 28797266 28738956 28679698 
3088.219 28620238 28560394 28499464 28436384 28370482 28301446 28229234 
3091.594 28154492 28077464 27998614 27917726 27834840 27749710 27662582 
3094.969 27573780 27483970 27393792 27303668 27214020 27124744 27035908 
3098.344 26946986 26857906 26768386 26678178 26587500 26496414 26405806 
3101.720 26316274 26228906 26144476 26064076 25988262 25917878 25853272 
3105.095 25794934 25743320 25698498 25660462 25629144 25604400 25586196 
3108.470 25575230 25572278 25578638 25595404 25623100 25661728 25710238 
3111.845 25767230 25830976 25899870 25972222 26046836 26121816 26195296 
3115.221 26265090 26328630 26384046 26430384 26467290 26495146 26514270 
3118.596 26525082 26526774 26518602 26499232 26468168 26425946 26374294 
3121.971 26315428 26252032 26186460 26119670 26052430 25985024 25917280 
3125.346 25849930 25784036 25720890 25661974 25608232 25560082 25517002 
3128.722 25478314 25442442 25408330 25374394 25339690 25303478 25265336 
3132.097 25225338 25183834 25141702 25099572 25057800 25016066 24973808 
3135.472 24929380 24881446 24828292 24768618 24701660 24627136 24545716 
3138.847 24458318 24366804 24273066 24179382 24087820 23999640 23915328 
3142.223 23834674 23756624 23680336 23604832 23530006 23456174 23384204 
3145.598 23314800 23248310 23184624 23123360 23063780 23005990 22950516 
3148.973 22898748 22852716 22813986 22783502 22761190 22745828 22734864 
3152.348 22725716 22715834 22703196 22687276 22668286 22647864 22627722 
3155.724 22609710 22595332 22585138 22579346 22577530 22579276 22584442 
3159.099 22593062 22605208 22620880 22639136 22659280 22679352 22697960 
3162.474 22714124 22727706 22739890 22752252 22767020 22785564 22808678 
3165.849 22835674 22865358 22895432 22924212 22949992 22972174 22990584 
3169.225 23006340 23020596 23035234 23051970 23072060 23096312 23124896 
3172.600 23156942 23190810 23224644 23255858 23283022 23304382 23319380 
3175.975 23328156 23331686 23331758 23330184 23329414 23331336 23337630 
3179.350 23348608 23363716 23381406 23399660 23416830 23431622 23444178 
3182.726 23455262 23466594 23479674 23495692 23515036 23537912 23563518 
3186.101 23591782 23622360 23655178 23689854 23725686 23761698 23797046 
3189.476 23830578 23862398 23892994 23924184 23957202 23993828 24034624 
3192.851 24079870 24128590 24180222 24233544 24288238 24344164 24401290 
3196.227 24459968 24520404 24582778 24647406 24714672 24785108 24859026 
3199.602 24936574 25017328 25100556 25185168 25269798 25352932 25433870 
3202.977 25511554 25585844 25656842 25725356 25792684 25859638 25927444 
3206.352 25996458 26066292 26135644 26202968 26266498 26325462 26379716 
3209.728 26429786 26477184 26522618 26566434 26608388 26647526 26683006 
3213.103 26714754 26743400 26770324 26797670 26826536 26857906 26891288 
3216.478 26925622 26959326 26991198 27020606 27047406 27072124 27095506 
3219.853 27118326 27141216 27164388 27188374 27212892 27238150 27263940 
3223.229 27289872 27315876 27341670 27367712 27394320 27422590 27453086 
3226.604 27486618 27523364 27563506 27606686 27652908 27701852 27753702 
3229.979 27808276 27865398 27924652 27985326 28046820 28108676 28170720 
3233.354 28233194 28296670 28361640 28428708 28498156 28569738 28643526 
3236.729 28719024 28795458 28872402 28949286 29025726 29101256 29175914 
3240.105 29249168 29320734 29389650 29454500 29513472 29564934 29607676 
3243.480 29641658 29667768 29688098 29705090 29720810 29736634 29752778 
3246.855 29768676 29782976 29794614 29802776 29807676 29810052 29811048 
3250.230 29812146 29814808 29820024 29828826 29841496 29858568 29879580 
3253.606 29904248 29931866 29961650 29992998 30025378 30058506 30092348 
3256.981 30126652 30161244 30196016 30230580 30265464 30300812 30337266 
3260.356 30375110 30414838 30456136 30498574 30541728 30584884 30627832 
3263.731 30670358 30712284 30753288 30793052 30830934 30866472 30899452 
3267.107 30930406 30959724 30988048 31015912 31043280 31069510 31093784 
3270.482 31115176 31133258 31148066 31159600 31168324 31174730 31179002 
3273.857 31181316 31181884 31181068 31179572 31178006 31176404 31175300 
3277.232 31174302 31173484 31172630 31171704 31170992 31170742 31170636 
3280.608 31170386 31169140 31166008 31160384 31152052 31141304 31128808 
3283.983 31115424 31102220 31089690 31078264 31068014 31059154 31051322 
3287.358 31044276 31037122 31029258 31019862 31008546 30995096 30979970 
3290.733 30963960 30948196 30933322 30920124 30908916 30899950 30893404 
3294.109 30889420 30888068 30889206 30892088 30895610 30898242 30898420 
3297.484 30894934 30887392 30875936 30861314 30844630 30826950 30809202 
3300.859 30792164 30776870 30763924 30753964 30747598 30744860 30745038 
3304.234 30747206 30749946 30751724 30751654 30748914 30743864 30737036 
3307.610 30729426 30722064 30716160 30712640 30712534 30716124 30723700 
3310.985 30735188 30750408 30769116 30790884 30815746 30843564 30874086 
3314.360 30906708 30940440 30974242 31006516 31036910 31064704 31090366 
3317.735 31114998 31139594 31165722 31194416 31226354 31261924 31301092 
3321.111 31343472 31388312 31434544 31480928 31525996 31568822 31608556 
3324.486 31645120 31678618 31709772 31739072 31766768 31793184 31818140 
3327.861 31841744 31864348 31886030 31907282 31927786 31947258 31965092 
3331.236 31980642 31993408 32003540 32011598 32017630 32021552 32022692 
3334.612 32019946 32012134 31998404 31979036 31954642 31927000 31897474 
3337.987 31867274 31836644 31805448 31772938 31738110 31700504 31659872 
3341.362 31615752 31568288 31517338 31462900 31404980 31343934 31280548 
3344.737 31215174 31148708 31081256 31013030 30943998 30874192 30803972 
3348.113 30733694 30664172 30595656 30528432 30461928 30395364 30327958 
3351.488 30258714 30187102 30112482 30035106 29955296 29873758 29791634 
3354.863 29710200 29630874 29554258 29480386 29408654 29337996 29267420 
3358.238 29196470 29125634 29056298 28989912 28927896 28870206 28816030 
3361.614 28762888 28708406 28650782 28588846 28523100 28454710 28385198 
3364.989 28316546 28249886 28186028 28125610 28068522 28014304 27961930 
3368.364 27910058 27856636 27800220 27739856 27675862 27609546 27542712 
3371.739 27476910 27413202 27350810 27288778 27225872 27161496 27096248 
3375.115 27031466 26968740 26908912 26851490 26794852 26736600 26674972 
3378.490 26609444 26540614 26470494 26401510 26335142 26271532 26210182 
3381.865 26149438 26088176 26026008 25963218 25900820 25839488 25779676 
3385.240 25720470 25660954 25600006 25536996 25471850 25405590 25339444 
3388.615 25274434 25211326 25150198 25090762 25032140 24973212 24913168 
3391.991 24851870 24789002 24725684 24663010 24602274 24544734 24490396 
3395.366 24438900 24388464 24337262 24284244 24228954 24172588 24116576 
3398.741 24062814 24012140 23964170 23917114 23868872 23817208 23761278 
3402.116 23701226 23638106 23573696 23509196 23445086 23380884 23315954 
3405.492 23249672 23182036 23113644 23045052 22977066 22909822 22842834 
3408.867 22775680 22707806 22639348 22570794 22502986 22436584 22371796 
3412.242 22308552 22246086 22183490 22120100 22055674 21990176 21924270 
3415.617 21858724 21794370 21732012 21671998 21613628 21555996 21497292 
3418.993 21435394 21368842 21297152 21221538 21144130 21068058 20996240 
3422.368 20930382 20870546 20815098 20761746 20708118 20652344 20594078 
3425.743 20534010 20472770 20411504 20350248 20288758 20226164 20162400 
3429.118 20097326 20031914 19967208 19904072 19843094 19783824 19725812 
3432.494 19667980 19609740 19551126 19492314 19433784 19375956 19319002 
3435.869 19263026 19207750 19152894 19098704 19045250 18992598 18940780 
3439.244 18889490 18837998 18785302 18730466 18672766 18611720 18547742 
3442.619 18481736 18414666 18347502 18280350 18213312 18145212 18075086 
3445.995 18002002 17925752 17847652 17769496 17693392 17621370 17554020 
3449.370 17490854 17430388 17370790 17310272 17247796 17183294 17116806 
3452.745 17048466 16977998 16904858 16828282 16748106 16664915 16580088 
3456.120 16495723 16414095 16336164 16262371 16192481 16125385 16060157 
3459.496 15996141 15933065 15870545 15808277 15745571 15681086 15614104 
3462.871 15543905 15470592 15395060 15318615 15242252 15167240 15094265 
3466.246 15023394 14954765 14887655 14821482 14755181 14687314 14616853 
3469.621 14543354 14467297 14389645 14312247 14236881 14164713 14095912 
3472.997 14029345 13963439 13896276 13826559 13753536 13677447 13599013 
3476.372 13518917 13438052 13357406 13277525 13199744 13125084 13054227 
3479.747 12987649 12925075 12865480 12807906 12751773 12696465 12642325 
3483.122 12589795 12538396 12487447 12435106 12379157 12317693 12249865 
3486.498 12175607 12095808 12012072 11925731 11838622 11751907 11667693 
3489.873 11587715 11514318 11448827 11391746 11341748 11295870 11250234 
3493.248 11201306 11146162 11084260 11016523 10945193 10872449 10800532 
3496.623 10730563 10662880 10597924 10536134 10477613 10422560 10370637 
3499.999 10320722 10271253 10220366 10167178 10111860 10055700 10000702 
3503.374 9948964 9901844 9859778 9821682 9786029 9750955 9714393 9675022 
3507.231 9630878 9580777 9523908 9460341 9391332 9319491 9248236 9181123 
3511.089 9120787 9068613 9023990 8985086 8949570 8915308 8880845 8845642 
3514.946 8810035 8774634 8739811 8705734 8671660 8637150 8601527 8564622 
3518.803 8526571 8487849 8449130 8411359 8374504 8338936 8303946 8269025 
3522.661 8233161 8195445 8155266 8112862 8068607 8023512 7978388 7933505 
3526.518 7888357 7841391 7790922 7735029 7672432 7603504 7529598 7453075 
3530.376 7377004 7304113 7236558 7175851 7122125 7074704 7032440 6993379 
3534.233 6955802 6918027 6878808 6837236 6793312 6746936 6698849 6649623 
3538.091 6599966 6550953 6503459 6458661 6417735 6381553 6350250 6323253 
3541.948 6299148 6275649 6250169 6220455 6184256 6140768 6089522 6031462 
3545.805 5968404 5903172 5838790 5778547 5725027 5679604 5641873 5609582 
3549.663 5579979 5549203 5514134 5473129 5426458 5375934 5324946 5276647 
3553.520 5233719 5197099 5166585 5140332 5116125 5091349 5063491 5030774 
3557.378 4992228 4947552 4897619 4844007 4789295 4735998 4686760 4643857 
3561.235 4608593 4581971 4564124 4554481 4551668 4552739 4553376 4547784 
3565.093 4530139 4494817 4439681 4366044 4280238 4192074 4110986 4044828 
3568.950 3996838 3965773 3946781 3934142 3922674 3908565 3890311 3867878 
3572.807 3842438 3815496 3787719 3759376 3730601 3700892 3670282 3638873 
3576.665 3606998 3574859 3543223 3512491 3483364 3456043 3431295 3409220 
3580.522 3390019 3373756 3360400 3350149 3343237 3339631 3339063 3339998 
3584.380 3339864 3334889 3320632 3292987 3249621 3190938 3120682 3045733 
3588.237 2974066 2912785 2866454 2836337 2820462 2815160 2815260 2816460 
3592.094 2814659 2806956 2792316 2770740 2743864 2713789 2682949 2653811 
3595.952 2628142 2606542 2588775 2573976 2560211 2545879 2529482 2510185 
3599.809 2488424 2465531 2443572 2424746 2410652 2401922 2397958 2397524 
3603.667 2398957 2400956 2402422 2402389 2399790 2392727 2379533 2358145 
3607.524 2328063 2289989 2247255 2204959 2167561 2137926 2116150 2099768 
3611.382 2083954 2064511 2038910 2007419 1973467 1941947 1918617 1906603 
3615.239 1906603 1915854 1929466 1940716 1942613 1929034 1896219 1844274 
3619.096 1777596 1704109 1634226 1577124 1538551 1520263 1520329 1534161 
3622.954 1556839 1585305 1618229 1656344 1700350 1749417 1799089 1841013 
3626.811 1862642 1851095 1797492 1702179 1578488 1449113 1339053 1263913 
3630.669 1226895 1219984 1230716 1246932 1259260 1263680 1260756 1253877 
3634.526 1247231 1244041 1245271 1249491 1254675 1258463 1259892 1259028 
3638.384 1256004 1251152 1244340 1234671 1221080 1203138 1181309 1157455 
3642.241 1134964 1116693 1106295 1105697 1115530 1134499 1159980 1187655 
3646.098 1212608 1229254 1232843 1219319 1186625 1135528 1069956 997153 
3649.956 926321 868084 831532 821838 839267 879239 933028 989481 1036741 
3654.295 1064707 1066767 1041358 993998 935718 879106 833988 805240 790867 
3658.635 785589 782469 776527 764943 747683 726906 705798 687445 674237 
3662.975 668131 670487 682699 705964 741078 788112 845608 910217 976829 
3667.314 1038169 1085966 1112407 1112407 1087361 1047037 1009108 993732 
3671.172 1017478 1087726 1200712 1343707 1497819 1642740 1756104 1819551 
3675.029 1824509 1774735 1686080 1578222 1466534 1357035 1248893 1138817 
3678.886 1026046 914102 810452 722724 656516 612516 586902 573431 567061 
3683.226 565900 571241 586271 613114 650543 693585 733544 761026 768295 
3687.566 752529 717148 670089 622006 580631 549842 528643 514677 505555 
3691.905 501309 502868 511559 527648 549013 572535 593836 609331 617095 
3696.245 617892 614275 609364 606113 605648 606710 606776 602197 590120 
3700.584 569284 540984 508872 478652 455633 444024 446279 462134 489864 
3704.924 526620 569981 617494 667567 719073 770320 819216 862141 894578 
3709.264 910815 906067 876849 823133 749309 664149 579038 504924 450691 
3713.603 420343 413013 424687 449629 481870 516037 549212 579470 606975 
3717.943 632259 655720 677224 695244 707988 713696 711440 701682 686649 
3722.282 669259 651970 636374 622006 607307 589921 569317 546890 526653 
3726.622 515473 520383 545828 592675 656782 730357 802916 863436 904074 
3730.962 920344 913936 890860 860680 831133 804908 779614 748413 705333 
3735.301 648353 582688 518990 470459 446113 449662 477923 525226 585143 
3739.641 652435 724151 797140 866424 923797 956804 951026 894778 787348 
3743.980 646263 505886 407673 378754 421570 518393 642281 766801 869578 
3748.320 937345 964575 955144 918385 865760 806435 745559 686350 632293 
3752.660 588361 560326 552331 564042 591912 628742 667899 703109 731154 
3756.999 751201 763914 770320 770386 763648 750438 732946 715522 704005 
3761.339 703010 713829 733710 756645 775896 786684 787946 783531 780245 
3765.678 785323 802850 831698 865793 896537 915961 918385 903112 873861 
3770.018 837507 801589 771813 751002 739319 734705 734573 736597 739153 
3774.358 741841 745028 750073 758238 770154 785556 802186 817423 827946 
3778.697 832196 830569 826419 823598 825988 834553 847467 860282 867519 
3783.037 864963 850754 826187 795281 762918 733577 709780 692257 680410 
3787.376 673839 672478 676693 686582 701550 719969 739916 759499 778220 
3791.716 796377 815033 834520 853443 868549 875620 871039 854439 829540 
3796.056 804477 790004 794286 821241 867154 922768 974305 1006717 1008378 
3800.395 974105 908889 828179 754653 708951 701948 732282 788975 855567 
3804.735 914201 949698 953384 924495 872134 812178 762354 733743 729528 
3809.074 745260 772544 804012 834984 865129 896537 931601 970353 1009108 
3813.414 1040893 1057666 1053215 1027076 986924 948204 928911 941429 988917 
3817.754 1063412 1150810 1232677 1292525 1317085 1300102 1245171 1166159 
3821.611 1083641 1016315 975234 961055 966534 979784 989415 987489 971117 
3825.951 943023 910715 883522 869379 871404 887905 913670 942027 967231 
3830.290 986559 1000773 1013957 1030862 1055939 1091247 1135827 1185861 
3834.148 1235701 1278900 1308876 1320209 1309441 1275975 1223174 1158219 
3838.005 1091580 1034117 994031 974637 974537 988153 1008179 1027309 1039830 
3842.345 1042122 1033752 1016349 993898 970917 952122 941429 940865 951292 
3846.684 971847 1001171 1037737 1080618 1129848 1185396 1246267 1309208 
3850.542 1367106 1408789 1420989 1389609 1307679 1181043 1032124 892453 
3854.399 790568 741078 741277 778552 836877 903145 967829 1025449 1073775 
3858.739 1111909 1139681 1156824 1163468 1160677 1150046 1134133 1114832 
3862.596 1093406 1069391 1042188 1013326 986658 969290 968792 990644 1034815 
3866.936 1095267 1160112 1216495 1252216 1260457 1243177 1211411 1181209 
3870.793 1165794 1171043 1192373 1220150 1241748 1247696 1234405 1205364 
3874.651 1169216 1136890 1117523 1114965 1127722 1149880 1173734 1191908 
3878.508 1198187 1190147 1169647 1142771 1119051 1108189 1118055 1150046 
3882.365 1200380 1259526 1314991 1354276 1367338 1350819 1310105 1258596 
3886.223 1212840 1187456 1189217 1215598 1256967 1300966 1335098 1349457 
3890.080 1339519 1306682 1258496 1205397 1158485 1126227 1112673 1117656 
3893.938 1138286 1170777 1210647 1254010 1297776 1339020 1375748 1406562 
3897.795 1430629 1447949 1459220 1465403 1467897 1467265 1463142 1454233 
3901.653 1438142 1412944 1377476 1333038 1283153 1233175 1189582 1157621 
3905.510 1140013 1136724 1145461 1162538 1184465 1208521 1233175 1257300 
3909.367 1280561 1302362 1322203 1339519 1353910 1365776 1375715 1384423 
3913.225 1392002 1397753 1400046 1397121 1387980 1372923 1354575 1336394 
3917.082 1322535 1315822 1317085 1325294 1338189 1353777 1370729 1388645 
3920.940 1407825 1428136 1448481 1466201 1477970 1480830 1473349 1456427 
3924.797 1433222 1408390 1386684 1371294 1363516 1362951 1368003 1376845 
3928.655 1387681 1399282 1410551 1420158 1426939 1429632 1427770 1421554 
3932.512 1413011 1404135 1397653 1394927 1396390 1401177 1407692 1414440 
3936.369 1420357 1425377 1430064 1435117 1441234 1448315 1455197 1460483 
3940.227 1462710 1460915 1455430 1447118 1438574 1431959 1429798 1433355 
3944.084 1442431 1455828 1471155 1485451 1495824 1500379 1498085 1489408 
3947.942 1476341 1461247 1447285 1437112 1432391 1433721 1440802 1452005 
3951.799 1465137 1477771 1487379 1492134 1490870 1483489 1471354 1456693 
3955.656 1442431 1431560 1426341 1428103 1436547 1450609 1468395 1487712 
3959.514 1506364 1523056 1536589 1546731 1553281 1556474 1556640 1554379 
3963.371 1549723 1543505 1535990 1527677 1519132 1510753 1503305 1497354 
3967.229 1493464 1492034 1493164 1496157 1500246 1504801 1508725 1511352 
3971.086 1512449 1512150 1510620 1508392 1505899 1503505 1501876 1501078 
3974.944 1501244 1502308 1503738 1504702 1504635 1502873 1499249 1494594 
3978.801 1489607 1486083 1484886 1486515 1491136 1497819 1505699 1513712 
3982.658 1521094 1527112 1531568 1534095 1534195 1531535 1525616 1516805 
3986.516 1505766 1493829 1482791 1474047 1468362 1466268 1466999 1469925 
3990.373 1474313 1479998 1487446 1497354 1510454 1526447 1544602 1562858 
3994.231 1578887 1590326 1595747 1594716 1588331 1578853 1569077 1561329 
3998.088 1557770 1559067 1564488 1572701 1581747 1589528 
##END=
