
##TITLE=Z382_2_d
##JCAMP-DX=5.01  $$ Nicolet v. 1
##DATATYPE=INFRARED SPECTRUM
##ORIGIN=UniL
##OWNER=Nicolet
##LONGDATE=2011/09/09
##TIME=10:23:06
##SPECTROMETER/DATA SYSTEM=Nicolet iS5
##DATA PROCESSING=
Ratio against background
%Transmittance->Absorbance
Truncated
ElementMultiply or ElementDivide
##COMMENTS=
Number of sample scans: 32
Collection length: 51.19 sec
Sample gain: 2.0
Background collected on: Ven Sep 09 10:10:32 2011 (GMT+02:00);
Number of background scans: 32
Background gain: 2.0
Sample spacing:  1.000
Number of scan points: 12415
Resolution points: 8192
Number of FFT points: 65536
Apodization: N-B fort;
Phase correction: Mertz;
Laser frequency: 15798.0 cm-1
Number of rejected sample scans: 0
Number of rejected background scans: 0
Bench serial number: ASB1000141;
##RESOLUTION=4.000
##XUNITS=1/CM
##YUNITS=ABSORBANCE
##FIRSTX=649.893372
##LASTX=4000.122314
##FIRSTY=0.085638
##MAXX=4000.122314
##MINX=649.893372
##MAXY=0.211890
##MINY=0.000411
##XFACTOR=1.000000
##YFACTOR=1.000000E-009
##NPOINTS=6950
##DELTAX=0.482117
##ZPD=6100
##XYDATA=(X++(Y..Y))
649.893 85637520 85723648 85877384 86115808 86432136 86804176 87203184 
653.268 87614224 88039096 88490784 88980112 89504112 90041952 90566416 
656.643 91056376 91508432 91937624 92368912 92819848 93291040 93762648 
660.018 94204824 94594328 94922584 95199976 95448984 95695776 95962208 
663.393 96263968 96616832 97037264 97540184 98127200 98768912 99385288 
666.767 99829344 99929672 99554480 98698624 97501488 96172448 94888624 
670.142 93730416 92699192 91743464 90802248 89830216 88815480 87776048 
673.517 86745464 85748632 84789288 83848696 82898712 81920352 80913768 
676.892 79899392 78908120 77968984 77096416 76291192 75545728 74853112 
680.267 74213328 73632224 73115024 72660432 72257144 71887616 71535168 
683.642 71191904 70862256 70558856 70294968 70073640 69886208 69714640 
687.016 69540352 69353112 69156624 68964768 68795120 68658336 68551584 
690.391 68460960 68369112 68261664 68134808 67994744 67851360 67712856 
693.766 67580704 67450032 67315488 67176192 67038408 66912808 66808300 
697.141 66726232 66658348 66591060 66510416 66411800 66300504 66189548 
700.516 66091584 66011532 65943532 65874816 65792188 65690144 65573872 
703.890 65457396 65354512 65272524 65207452 65147080 65079488 64998552 
707.265 64909316 64824140 64756824 64714716 64695524 64690680 64692712 
710.640 64702712 64734324 64809904 64952908 65179728 65492532 65880172 
714.015 66320040 66784576 67242608 67657600 67991064 68202216 68258864 
717.390 68154160 67919848 67633128 67396480 67320328 67476552 67867160 
720.765 68409680 68949504 69305616 69302776 68833792 67879592 66508800 
724.139 64848220 63048668 61257120 59578424 58076512 56776212 55672480 
727.514 54744224 53964728 53308396 52751856 52275808 51865312 51509004 
730.889 51198724 50927788 50688776 50472640 50269960 50072140 49875040 
734.264 49679292 49490500 49314824 49155796 49012224 48879344 48750024 
737.639 48620036 48489200 48361816 48243272 48136728 48040784 47950120 
741.013 47858996 47763968 47666040 47570128 47481228 47401396 47328120 
744.388 47255040 47175916 47089344 46999176 46913712 46841144 46785716 
747.763 46745012 46712688 46681216 46647868 46616508 46595152 46591500 
751.138 46607952 46638276 46671036 46693652 46698928 46688892 46674136 
754.513 46668048 46679300 46708888 46748188 46784572 46805936 46807268 
757.888 46791692 46768112 46746600 46734348 46735236 46750512 46782320 
761.262 46835352 46915668 47028604 47174552 47348812 47543364 47752092 
764.637 47975616 48225092 48519548 48879752 49324584 49864412 50502268 
768.012 51238136 52075536 53028612 54130248 55434048 57017348 58989764 
771.387 61478160 64619808 68536688 73285808 78812880 84890240 91122536 
774.762 96920328 101574984 104437152 105000016 103068904 98804272 92695912 
778.136 85441184 77756712 70323600 63638024 57977820 53443240 49975360 
781.511 47425452 45600388 44319976 43434172 42826536 42421952 42170124 
784.886 42037456 42002164 42047020 42157564 42322740 42533104 42782072 
788.261 43066560 43386168 43742540 44138672 44576764 45058776 45586552 
791.636 46162912 46793132 47484256 48244792 49082484 50002912 51010096 
795.010 52107176 53300680 54602176 56029440 57606516 59362560 61328092 
798.385 63538372 66035524 68868424 72100920 75807624 80062312 84930768 
801.760 90445984 96590432 103270048 110304240 117430896 124284192 130447672 
805.135 135492704 139008976 140710512 140476256 138390400 134722544 
808.028 129893480 124416592 118780360 113437552 108749984 104941504 
810.920 102119864 100259824 99225784 98777608 98607640 98399000 97834320 
814.295 96667664 94758824 92073952 88688944 84755864 80481568 76076224 
817.670 71731720 67612376 63829228 60448112 57493748 54954864 52797276 
821.045 50971936 49429016 48120292 47005860 46057016 45252232 44575956 
824.420 44016296 43561848 43202652 42930880 42741596 42634816 42612884 
827.794 42681020 42843720 43103700 43460356 43909712 44443580 45049000 
831.169 45709668 46404564 47110324 47806096 48474456 49103932 49688728 
834.544 50221940 50689336 51065584 51308192 51365732 51190748 50748248 
837.919 50031576 49065160 47903980 46620828 45292392 43993048 42778852 
841.294 41687692 40740012 39940440 39282712 38753520 38336680 38015088 
844.669 37772848 37597944 37481800 37419172 37406276 37438784 37510084 
848.043 37611784 37734792 37872188 38020840 38181732 38358432 38554756 
851.418 38772976 39012836 39272884 39552036 39851848 40176184 40530368 
854.793 40918300 41341276 41797528 42284352 42800428 43347980 43933728 
858.168 44567220 45259292 46020028 46859784 47791852 48833960 50014100 
861.543 51368828 52940496 54778240 56929436 59435388 62327644 65615332 
864.917 69274400 73226272 77332880 81380480 85079472 88121152 90195352 
868.292 91058216 90594264 88830400 85941792 82197928 77939008 73505480 
871.667 69178224 65183460 61659480 58664160 56197824 54217108 52656536 
875.042 51439360 50495044 49763484 49195764 48758404 48428600 48190700 
878.417 48033864 47948752 47925812 47957372 48036160 48156936 48317188 
881.792 48515100 48749876 49021576 49330632 49678512 50067828 50501336 
885.166 50981328 51507700 52078748 52691248 53343800 54037292 54777600 
888.541 55575956 56449356 57419880 58515096 59768644 61212712 62874772 
891.916 64764096 66859892 69098032 71366552 73524208 75402704 76845888 
895.291 77742880 78036912 77739240 76914464 75667392 74113576 72362576 
898.666 70516760 68659304 66859968 65179728 63664420 62345772 61239148 
902.040 60342216 59638892 59105160 58717640 58456260 58306964 58260812 
905.415 58309960 58445572 58659268 58943540 59294572 59713820 60206280 
908.790 60778104 61433768 62176060 63007184 63931868 64961032 66110604 
912.165 67400504 68850872 70476696 72287080 74285936 76473232 78846776 
915.540 81400024 84120272 86981976 89945184 92958960 95959400 98876448 
918.914 101637200 104152912 106318336 108012032 109091008 109425464 
921.807 108927512 107582456 105473304 102779936 99770680 96736880 93971504 
925.182 91732328 90197840 89479768 89619680 90599848 92353472 94769784 
928.557 97710064 100992784 104411736 107761456 110829352 113430016 115418288 
931.932 116678832 117138288 116762976 115559680 113583936 110947408 
934.824 107830176 104460032 101109656 98083672 95661416 94099088 93601536 
938.199 94292088 96217904 99329688 103486000 108425616 113772488 119082048 
941.574 123821920 127468648 129595664 129904520 128310560 124942624 
944.467 120129704 114316560 107983064 101599312 95525560 90010848 85197656 
947.841 81124872 77765392 75049360 72892640 71205688 69904304 68919680 
951.216 68191288 67670072 67320056 67112264 67025728 67045756 67159672 
954.591 67356384 67625152 67954600 68334448 68755880 69212144 69698576 
957.966 70211456 70746976 71300800 71867720 72442864 73023040 73607416 
961.341 74197520 74795688 75404240 76024080 76654168 77292528 77937664 
964.716 78589632 79249592 79919704 80600784 81292088 81990736 82692992 
968.090 83396392 84100848 84809312 85527080 86259896 87012536 87788296 
971.465 88589832 89419632 90281856 91181808 92125280 93116792 94158312 
974.840 95249280 96387560 97571048 98798528 100069336 101382448 102733464 
978.215 104113624 105511280 106911072 108298728 109662584 110992328 
981.108 112279208 113513320 114682384 115773664 116775584 117682024 
984.000 118493544 119217672 119866056 120450040 120979216 121460024 
986.893 121897328 122297032 122667144 123017024 123355696 123688736 
989.786 124016512 124336024 124643416 124937720 125223384 125508976 
992.678 125804976 126120760 126461640 126828704 127221120 127638784 
995.571 128083200 128557296 129062680 129596472 130150544 130713744 
998.464 131273952 131823408 132360784 132890448 133419600 133954096 
1001.356 134496736 135047200 135605056 136173520 136760448 137377696 
1004.249 138038080 138750864 139520352 140347664 141233872 142185712 
1007.142 143218016 144352176 145615280 147035664 148638048 150445568 
1010.035 152476976 154742656 157236416 159921456 162720544 165497200 
1012.927 168067712 170228864 171774688 172557680 172519472 171707280 
1015.820 170263776 168396544 166349664 164340528 162544336 161079312 
1018.713 159996208 159296592 158944944 158890048 159073728 159443456 
1021.605 159961104 160599888 161345728 162193776 163142352 164189296 
1024.498 165330144 166556496 167859376 169231472 170667472 172164496 
1027.391 173719872 175327792 176978752 178661008 180361792 182072240 
1030.284 183787840 185507440 187230112 188951760 190663904 192355648 
1033.177 194017008 195642976 197234960 198798688 200339696 201857984 
1036.070 203345632 204787312 206164576 207456624 208644176 209704720 
1038.963 210606880 211309072 211757664 211889632 211645952 210977152 
1041.856 209848640 208245696 206169264 203635104 200671632 197323552 
1044.750 193652944 189733600 185653856 181504160 177364432 173306144 
1047.643 169383744 165635552 162091488 158771984 155690544 152853424 
1050.536 150257392 147889728 145728992 143750272 141927824 140238736 
1053.429 138665280 137192736 135806272 134490000 133224352 131988344 
1056.322 130762232 129528288 128272768 126985088 125655728 124275504 
1059.215 122836328 121333080 119765856 118142072 116476016 114786424 
1062.108 113092336 111412056 109759672 108146072 106580568 105071336 
1065.001 103625672 102250120 100948224 99719776 98561608 97469392 96438144 
1068.376 95465088 94549592 93692016 92891976 92147272 91453216 90803104 
1071.751 90190904 89611416 89062192 88542464 88052000 87590392 87156360 
1075.127 86748544 86366800 86014288 85698464 85429536 85221280 85088936 
1078.502 85046984 85109816 85289784 85595872 86031696 86592760 87263768 
1081.877 88015768 88807024 89588240 90303152 90898552 91332088 91573440 
1085.252 91611456 91454280 91131000 90687096 90182376 89688432 89274568 
1088.628 89007480 88944816 89128048 89587424 90342680 91406840 92792144 
1092.003 94512720 96584712 99024216 101840992 105030240 108560840 112366704 
1095.378 116342936 120328848 124124488 127501664 130210328 132033064 
1098.271 132809920 132467168 131037008 128651928 125527680 121907240 
1101.164 118046304 114178104 110476632 107071136 104036440 101399480 
1104.057 99155088 97275432 95722872 94454656 93431488 92621264 91996512 
1107.433 91536992 91227016 91052168 90999624 91056376 91208656 91445280 
1110.808 91756808 92137696 92586208 93102504 93684952 94324936 94998536 
1114.183 95658192 96234728 96629584 96727856 96422928 95626352 94299704 
1117.558 92467384 90221168 87704200 85079704 82515504 80141960 78041472 
1120.934 76249720 74759552 73539080 72546696 71747872 71120056 70654992 
1124.309 70356528 70238208 70319704 70623136 71172200 71985256 73066480 
1127.684 74395440 75915576 77534560 79113960 80487952 81486792 81942120 
1131.059 81725456 80762856 79043048 76623528 73621512 70207288 66565604 
1134.435 62883004 59328336 56023556 53050328 50448520 48221836 46351512 
1137.810 44805048 43548000 42544728 41762176 41171448 40743472 40451372 
1141.185 40271856 40183780 40171460 40223472 40330644 40485012 40678552 
1144.560 40901916 41146604 41405676 41674636 41951688 42236620 42529744 
1147.936 42830268 43136816 43448708 43766104 44091948 44430476 44785764 
1151.311 45160236 45552916 45960320 46377172 46798484 47221240 47644036 
1154.686 48066508 48487464 48904188 49312072 49705520 50079092 50428168 
1158.061 50748696 51035920 51284104 51484832 51627952 51704308 51705728 
1161.437 51626576 51464652 51218484 50887552 50471260 49969228 49382828 
1164.812 48715848 47975504 47171224 46313356 45412592 44477900 43517816 
1168.187 42540816 41555904 40573912 39606844 38665824 37760560 36897796 
1171.562 36080520 35309920 34585676 33908024 33278144 32698158 32169960 
1174.938 31694658 31271682 30898990 30574076 30294348 30057866 29862650 
1178.313 29706654 29586782 29499606 29442586 29415248 29420530 29464430 
1181.688 29554966 29701012 29909324 30185112 30532236 30953746 31453390 
1185.063 32035712 32705196 33465780 34320740 35274448 36335828 37520920 
1188.438 38853768 40366604 42091632 44051792 46251504 48667552 51246036 
1191.814 53899188 56522488 59001072 61223052 63104228 64594084 65687796 
1195.189 66425852 66892864 67206008 67489008 67871000 68461392 69333368 
1198.564 70522064 72012600 73744312 75605944 77452256 79120408 80432640 
1201.939 81232800 81399616 80855408 79580728 77608240 75019160 71923904 
1205.315 68457272 64768864 60998632 57281224 53731876 50432372 47437688 
1208.690 44771144 42428492 40385548 38606104 37052140 35686308 34478908 
1212.065 33409596 32463934 31633534 30913326 30299960 29791670 29387594 
1215.440 29087580 28891382 28797512 28801974 28898502 29079042 29335304 
1218.816 29660886 30051652 30505470 31021392 31597398 32230410 32915850 
1222.191 33648556 34424132 35238836 36088732 36968540 37870744 38785436 
1225.566 39702972 40616404 41524220 42431524 43349188 44292124 45275440 
1228.941 46313244 47418136 48600660 49870880 51238580 52711896 54296588 
1232.317 55994796 57805224 59724772 61750380 63881776 66121092 68471784 
1235.692 70936880 73516512 76207584 79004216 81896904 84871944 87906864 
1239.067 90961584 93977432 96869264 99527400 101836592 103680648 104962512 
1242.442 105625400 105657896 105105024 104059728 102666856 101103088 
1245.335 99548144 98185728 97171312 96618944 96608928 97180888 98343928 
1248.711 100088488 102395056 105240064 108591944 112408680 116622096 
1251.604 121120768 125755624 130322680 134567632 138223488 141002864 
1254.497 142636496 142919536 141719520 139013360 134887184 129531904 
1257.390 123210152 116207992 108830776 101353952 94008856 86995288 80457408 
1260.765 74490032 69146168 64434060 60328356 56777344 53715868 51071508 
1264.140 48771488 46753832 44965756 43366728 41930996 40643292 39498652 
1267.516 38499900 37656768 36983872 36498084 36218080 36159416 36330608 
1270.891 36728688 37335100 38113540 39005800 39938948 40827584 41575704 
1274.266 42096264 42314956 42182028 41684304 40845236 39724208 38399368 
1277.641 36962228 35500588 34082236 32757572 31553428 30477672 29525600 
1281.017 28685434 27943626 27286344 26701152 26177486 25706056 25280192 
1284.392 24895624 24551012 24246226 23981606 23756168 23566944 23409766 
1287.767 23280434 23175954 23095508 23039356 23007878 22999318 23009974 
1291.142 23034884 23068568 23107844 23151842 23202344 23261732 23331792 
1294.518 23413228 23505418 23608120 23722816 23852804 24002300 24175004 
1297.893 24372972 24594946 24838256 25100134 25379346 25676596 25994208 
1301.268 26333700 26694740 27075088 27470450 27877234 28293946 28721468 
1304.643 29162166 29617926 30088050 30568958 31055844 31543594 32029364 
1308.019 32513320 32996994 33481848 33967392 34450572 34927000 35392412 
1311.394 35844652 36284716 36716136 37144456 37575396 38016172 38474700 
1314.769 38958648 39474704 40023088 40593340 41158404 41675876 42093640 
1318.144 42354336 42412748 42244108 41848604 41250540 40491452 39622376 
1321.520 38690816 37738584 36800052 35900176 35059484 34294888 33618124 
1324.895 33036892 32552816 32162432 31858824 31634140 31482030 31397000 
1328.270 31374134 31408008 31490366 31611796 31763024 31935704 32124114 
1331.645 32324314 32531530 32740026 32941334 33125494 33283834 33410992 
1335.021 33505540 33569720 33607204 33620412 33609528 33572584 33507544 
1338.396 33414676 33298322 33166728 33029202 32894440 32767504 32649464 
1341.771 32539640 32437336 32343518 32261602 32196082 32151300 32130856 
1345.146 32137566 32174316 32245934 32358472 32519426 32735598 33011184 
1348.521 33347766 33745444 34203748 34723696 35306328 35952112 36657224 
1351.897 37412560 38204960 39017476 39834196 40641728 41426596 42174432 
1355.272 42865152 43469912 43955868 44289156 44442700 44405264 44183716 
1358.647 43805760 43311808 42755272 42193784 41681060 41270764 41011552 
1362.022 40943968 41102272 41508180 42168044 43073112 44200592 45515496 
1365.398 46967348 48491908 50007260 51408736 52589808 53451524 53924472 
1368.773 53989452 53679420 53072756 52266500 51365136 50460616 49618484 
1372.148 48885392 48286708 47830068 47506288 47288032 47131856 46974808 
1375.523 46747412 46386348 45839784 45082964 44121436 42993244 41760356 
1378.899 40499672 39291708 38200292 37272784 36539564 36017264 35716812 
1382.274 35646600 35813304 36225680 36899780 37863544 39162388 40852736 
1385.649 42981868 45559356 48520660 51714128 54896208 57788796 60134880 
1389.024 61728340 62457056 62294444 61289516 59544180 57195908 54402704 
1392.400 51310284 48065692 44817248 41704764 38868048 36421112 34426752 
1395.775 32887184 31748694 30929374 30336236 29890620 29540568 29257782 
1399.150 29036212 28882070 28802964 28799954 28866240 28988002 29149798 
1402.525 29337820 29542838 29762856 30003400 30276512 30596224 30977586 
1405.901 31432870 31969692 32592532 33301040 34089660 34942764 35832412 
1409.276 36719272 37551412 38276532 38855076 39266864 39518720 39638820 
1412.651 39669532 39652072 39619292 39592976 39582704 39591632 39619944 
1416.026 39667900 39735936 39824068 39932480 40063672 40226816 40438388 
1419.402 40720584 41091528 41555868 42102804 42709024 43347428 43992572 
1422.777 44629124 45255540 45882164 46525296 47198372 47904836 48635084 
1426.152 49370948 50090660 50777856 51421864 52019952 52575372 53097500 
1429.527 53602904 54114828 54668232 55306000 56069588 56996116 58107080 
1432.903 59408756 60897560 62570700 64435864 66508912 68806656 71324728 
1436.278 74016040 76787680 79525184 82130944 84547456 86750720 88726584 
1439.653 90453656 91885752 92957024 93603880 93773344 93443936 92628688 
1443.028 91372688 89742576 87812640 85662664 83361344 80957680 78484384 
1446.404 75959544 73404248 70863120 68412752 66156088 64204632 62643340 
1449.779 61519540 60838664 60569612 60651820 60997336 61504768 62054260 
1453.154 62520608 62789648 62745928 62282360 61309548 59783168 57756096 
1456.529 55408864 53041568 50954652 49333788 48217616 47539148 47199224 
1459.905 47109436 47209492 47458792 47824112 48273748 48769820 49268500 
1463.280 49729780 50120108 50423516 50646516 50818080 50980324 51173080 
1466.655 51430332 51773324 52211568 52745232 53366464 54061048 54803652 
1470.030 55558936 56277176 56886828 57305800 57455168 57284060 56791996 
1473.406 56026684 55063140 53972756 52815200 51639820 50489872 49414940 
1476.781 48467344 47688520 47107144 46730804 46550116 46548016 46709112 
1480.156 47026096 47502664 48150900 48985300 50016556 51246928 52670152 
1483.531 54275412 56055900 58014252 60166316 62540548 65169952 68081512 
1486.906 71287832 74781040 78538064 82532096 86739880 91146000 95729480 
1490.282 100457168 105268512 110080904 114802000 119348096 123653224 
1493.175 127649368 131268088 134424528 137003712 138892048 140006032 
1496.068 140339920 139981568 139106112 137927632 136630256 135355792 
1498.961 134197864 133213552 132449864 131946888 131732432 131817120 
1501.854 132180600 132770104 133487624 134190680 134688976 134705424 
1504.747 133889320 131843328 128217208 122909584 116204968 108710488 
1507.640 101070432 93705672 86743480 80120328 73712792 67436096 61277036 
1511.015 55314956 49691736 44548860 40006340 36116996 32862522 30177760 
1514.391 27971366 26151690 24631028 23339938 22230532 21273766 20461864 
1517.766 19797002 19278890 18895304 18617322 18399766 18195622 17970058 
1521.141 17720242 17479160 17299722 17224732 17264310 17398658 17591008 
1524.516 17807086 18025072 18243996 18480110 18757138 19091884 19486144 
1527.892 19929048 20405324 20905416 21429512 21987318 22591632 23250790 
1531.267 23964976 24724388 25512608 26314266 27119488 27928574 28746000 
1534.642 29575930 30414412 31249212 32059792 32821998 33514526 34114244 
1538.017 34602072 34961616 35179796 35246780 35159536 34930552 34587900 
1541.393 34170412 33715868 33245560 32760144 32240472 31661012 31005024 
1544.768 30278076 29510386 28746922 28026638 27364078 26747490 26144828 
1548.143 25521358 24855344 24151288 23438722 22761678 22155246 21630552 
1551.518 21175126 20762474 20368408 19982092 19612340 19281106 19011808 
1554.894 18814364 18679684 18580698 18480732 18334404 18091150 17703986 
1558.269 17144070 16430130 15639728 14880867 14237532 13741224 13380846 
1561.644 13122659 12928011 12761020 12594809 12416217 12227712 12046069 
1565.019 11894706 11793339 11748434 11751260 11782376 11821121 11851221 
1568.395 11867157 11874308 11886567 11920043 11985504 12088994 12232927 
1571.770 12418023 12645907 12916883 13228744 13574022 13941745 14320876 
1575.145 14705582 15100406 15520588 15987583 16515445 17107638 17759452 
1578.520 18463826 19216164 20015816 20864114 21758416 22687138 23629742 
1581.896 24554202 25422872 26199976 26851244 27348762 27673672 27814528 
1585.271 27769772 27547442 27166152 26652778 26040608 25369302 24675882 
1588.646 23990922 23333436 22707562 22105490 21512856 20916890 20310214 
1592.021 19692388 19067890 18442944 17823174 17214288 16625425 16071264 
1595.396 15570315 15142502 14801528 14550069 14379850 14275778 14224214 
1598.772 14217434 14257357 14351698 14509092 14733140 15021097 15367392 
1602.147 15769243 16231930 16770629 17405554 18156958 19038844 20056794 
1605.522 21209534 22493006 23903356 25434046 27071666 28791990 30554168 
1608.897 32306146 33993296 35563988 36983476 38238136 39335816 40300068 
1612.273 41160552 41942272 42656016 43294820 43833212 44234416 44454700 
1615.648 44455360 44214056 43732100 43031400 42141500 41086464 39878252 
1619.023 38519632 37009812 35348380 33536502 31584964 29514360 27361430 
1622.398 25189592 23081250 21124370 19393558 17928410 16729821 15766734 
1625.774 14992972 14359061 13822797 13357781 12951087 12602757 12318341 
1629.149 12103338 11958323 11878054 11852889 11870733 11919737 11986935 
1632.524 12058673 12119692 12151209 12133900 12052643 11904139 11702922 
1635.899 11481418 11277608 11117777 11010235 10946519 10909550 10881010 
1639.275 10846154 10798018 10737220 10670860 10608042 10557047 10521164 
1642.650 10497809 10479412 10454736 10412345 10340504 10230102 10077370 
1646.025 9886149 9670211 9451841 9257883 9110264 9021486 8992495 9014382 
1649.883 9070101 9134660 9178043 9162375 9048922 8816697 8485314 8121944 
1653.740 7805901 7586173 7462985 7409527 7392338 7386272 7376464 7355907 
1657.597 7324803 7286322 7244576 7202632 7160659 7116298 7064937 7000921 
1661.455 6919004 6816873 6697167 6568714 6443898 6336667 6257362 6209497 
1665.312 6190205 6191415 6201633 6208388 6199985 6167889 6107835 6020946 
1669.170 5913484 5796176 5681417 5580986 5504168 5455145 5432430 5428437 
1673.027 5430820 5423036 5388883 5319411 5217722 5100870 4992261 4912331 
1676.885 4868835 4857242 4864881 4878452 4889912 4898356 4910018 4933912 
1680.742 4976508 5036037 5101340 5151598 5162830 5114851 5003758 4848396 
1684.599 4687028 4557695 4478647 4448385 4452937 4476839 4506869 4534190 
1688.457 4554246 4564994 4567003 4563052 4559001 4562483 4581134 4619945 
1692.314 4678721 4751106 4824206 4882004 4909281 4898524 4856270 4804908 
1696.172 4773852 4783266 4836502 4918698 5005635 5067380 5076364 5018305 
1700.029 4901875 4761490 4639536 4566635 4548252 4571591 4615759 4660066 
1703.886 4688267 4689372 4661037 4608827 4544904 4481895 4429739 4392351 
1707.744 4368319 4353459 4343319 4334885 4327924 4324310 4326720 4337362 
1711.601 4357074 4384753 4418158 4454511 4492072 4529067 4564325 4594863 
1715.459 4615357 4619175 4599317 4553610 4487720 4414978 4353560 4317617 
1719.316 4313467 4338901 4385991 4444569 4505430 4562818 4614152 4659798 
1723.174 4702402 4745009 4790501 4840589 4896446 4958209 5025645 5097116 
1727.031 5169134 5237709 5297642 5345944 5382408 5410320 5435114 5461083 
1730.888 5488598 5511048 5514571 5479673 5387977 5230767 5020718 4790334 
1734.746 4583411 4432183 4345728 4313802 4315977 4330568 4337830 4324410 
1738.603 4284421 4220077 4141057 4060346 3989448 3935045 3897498 3873193 
1742.461 3857147 3844411 3832176 3820075 3809680 3804064 3805434 3815128 
1746.318 3832276 3855041 3879980 3903550 3922908 3935012 3937252 3926954 
1750.176 3902346 3863565 3814760 3763521 3719372 3690532 3681176 3689597 
1754.033 3709112 3729431 3739758 3732038 3704033 3660124 3610774 3567342 
1757.890 3537176 3521476 3515096 3509885 3496825 3469937 3427622 3373155 
1761.748 3313454 3256898 3210665 3179623 3165404 3167006 3181759 3205024 
1765.605 3230660 3252592 3265311 3266847 3259703 3250122 3245548 3250355 
1769.463 3263342 3276929 3279700 3259669 3209630 3131795 3038392 2946977 
1773.320 2872324 2821829 2794050 2782145 2778410 2777776 2778810 2782612 
1777.177 2790715 2802620 2815360 2824364 2825431 2816961 2801020 2783212 
1781.035 2769640 2764271 2767873 2777143 2787647 2794784 2795917 2791315 
1784.892 2783479 2776109 2772875 2776743 2789815 2813526 2848410 2893772 
1788.750 2946843 3001690 3050905 3085942 3099791 3089513 3058446 3015069 
1792.607 2970897 2936102 2916154 2911384 2917788 2929997 2944008 2956851 
1796.465 2967394 2975600 2981839 2985976 2987744 2986610 2981572 2972798 
1800.322 2960955 2946777 2931899 2918189 2907347 2900743 2899542 2904112 
1804.179 2913919 2928062 2945075 2963757 2983240 3003258 3023644 3043898 
1808.037 3062951 3079235 3090948 3096888 3097054 3092816 3086142 3079635 
1811.894 3075097 3073495 3075130 3079635 3087077 3097522 3111471 3129125 
1815.752 3150385 3174583 3200617 3227455 3254628 3281937 3309414 3337460 
1819.609 3366110 3396063 3427989 3462389 3499831 3539247 3577966 3611743 
1823.467 3635732 3646625 3644887 3635665 3628081 3630988 3650334 3685654 
1827.324 3730701 3773949 3803295 3809713 3790427 3750553 3700524 3652840 
1831.181 3615952 3592632 3579469 3570983 3561095 3545962 3524783 3498996 
1835.039 3471073 3443786 3418905 3397900 3382305 3373923 3375392 3389017 
1838.896 3416400 3457412 3510587 3572587 3638940 3704835 3764056 3810448 
1842.754 3839095 3847720 3839363 3822281 3808677 3809379 3831106 3874029 
1846.611 3932471 3998410 4063256 4121890 4173372 4220311 4267154 4317885 
1850.469 4374277 4435262 4498065 4560173 4620280 4678956 4737505 4796766 
1854.326 4856605 4915380 4971112 5023232 5072810 5122930 5177684 5240325 
1858.183 5312434 5393680 5482659 5577831 5678094 5783282 5892726 6004685 
1862.041 6115900 6222539 6320596 6408151 6484625 6550449 6605887 6648681 
1865.898 6673984 6674926 6643837 6576518 6473089 6341072 6192793 6043087 
1869.756 5905221 5787009 5690447 5612738 5549103 5493967 5442328 5389957 
1873.613 5332996 5268966 5196093 5114683 5026450 4933946 4840053 4746684 
1877.470 4653971 4560708 4466227 4370361 4274918 4182840 4097405 4020314 
1881.328 3951763 3889508 3831106 3775152 3722045 3674660 3635966 3608669 
1885.185 3592799 3586451 3585850 3587521 3589458 3591062 3592899 3595739 
1889.043 3600149 3605762 3613079 3623203 3637737 3658854 3687391 3721711 
1892.900 3758240 3791463 3817936 3835752 3846650 3854172 3862396 3872959 
1896.758 3884828 3894389 3897866 3893553 3882989 3870920 3862630 3863331 
1900.615 3875032 3896997 3926552 3961193 3999681 4041584 4087806 4137579 
1904.472 4189464 4240921 4289574 4334718 4377155 4419128 4462177 4505765 
1908.330 4546645 4580063 4602063 4611138 4609396 4601862 4594160 4590510 
1912.187 4592151 4597877 4605311 4613214 4621419 4631131 4643187 4656617 
1916.045 4668071 4672659 4666597 4648813 4623361 4597241 4577685 4568745 
1919.902 4569950 4576513 4582105 4581536 4573131 4559369 4545340 4535964 
1923.760 4534223 4540283 4551768 4565965 4581804 4600255 4623194 4652732 
1927.617 4689004 4730940 4775996 4822095 4867998 4913771 4960119 5006842 
1931.474 5052931 5096412 5135403 5168865 5196965 5220875 5240460 5255450 
1935.332 5263399 5262728 5253203 5237307 5220808 5211351 5215006 5234960 
1939.189 5270039 5315922 5367010 5418204 5466754 5511786 5553533 5591189 
1943.047 5623311 5648385 5665606 5677355 5688870 5706058 5735066 5778916 
1946.904 5836808 5905087 5979288 6055552 6131761 6208019 6284053 6360102 
1950.761 6435289 6508673 6580757 6654266 6731658 6816166 6907086 7000989 
1954.619 7090331 7168744 7231302 7278168 7313481 7344180 7376229 7412864 
1958.476 7453345 7494436 7533475 7569719 7606067 7646195 7693409 7747678 
1962.334 7805597 7862175 7912550 7954933 7990133 8020508 8047848 8072557 
1966.191 8093080 8107562 8116677 8124104 8136123 8160195 8199766 8254301 
1970.049 8319177 8387408 8453454 8515623 8575369 8636440 8701542 8770814 
1973.906 8842193 8913685 8986068 9065061 9158686 9275992 9419605 9584741 
1977.763 9757665 9919099 10051937 10143605 10189531 10192787 10162327 
1981.139 10107756 10040882 9972121 9910047 9861778 9832494 9823105 9831646 
1984.996 9852626 9880115 9909336 9939269 9972764 10015350 10072893 10147980 
1988.854 10239872 10343524 10452936 10563463 10672897 10782326 10894736 
1992.229 11013328 11139669 11273765 11414843 11561717 11713440 11868757 
1995.604 12024063 12174789 12314319 12437868 12543682 12634002 12714855 
1998.979 12794870 12878859 12969795 13064096 13156060 13238889 13307965 
2002.354 13362428 13404732 13439452 13471134 13504014 13541923 13588517 
2005.730 13648007 13725356 13823310 13942122 14077463 14222673 14369747 
2009.105 14513204 14652459 14790010 14931926 15081263 15240467 15408174 
2012.480 15581957 15760103 15943274 16134325 16336095 16548833 16767805 
2015.855 16984994 17190742 17377516 17542290 17687386 17819136 17943984 
2019.231 18065968 18186084 18301708 18408616 18500958 18573816 18622752 
2022.606 18642882 18631260 18585574 18506872 18398590 18266770 18118024 
2025.981 17958626 17793108 17624234 17454498 17285860 17120390 16960944 
2029.356 16809338 16665500 16528420 16396442 16269458 16150352 16045682 
2032.732 15962867 15907595 15882060 15881682 15897010 15916292 15929352 
2036.107 15931930 15925433 15914710 15906977 15907012 15915845 15931861 
2039.482 15952107 15973901 15996039 16019451 16042382 16062494 16074942 
2042.857 16073911 16054174 16013468 15952691 15875632 15786422 15690189 
2046.233 15591574 15495005 15405600 15328260 15266035 15217441 15174892 
2049.608 15125553 15052792 14942831 14788570 14591974 14363855 14120351 
2052.983 13878385 13650605 13442050 13250674 13069422 12890738 12709396 
2056.358 12525709 12342783 12166543 12001683 11850370 11712589 11586558 
2059.734 11470735 11364128 11265842 11174481 11087592 11001501 10912642 
2063.109 10819045 10722038 10625392 10534200 10452360 10381564 10320111 
2066.484 10264434 10210325 10155306 10098497 10039899 9979545 9915200 
2069.859 9843271 9759800 9662284 9551173 9430136 9305070 9181326 9062625 
2073.717 8949334 8839251 8730109 8620622 8511467 8405380 8305398 8213408 
2077.574 8128931 8049670 7972279 7894565 7815650 7735906 7657054 7579665 
2081.432 7503943 7429447 7355772 7283626 7215030 7152642 7097909 7050961 
2085.289 7010181 6972402 6934591 6895270 6853562 6810175 6764840 6716852 
2089.146 6663990 6603801 6535446 6460511 6381453 6303148 6228891 6160192 
2093.004 6095503 6032369 5968203 5903071 5839260 5780998 5732044 5694845 
2096.861 5668090 5648284 5631333 5613979 5595183 5575583 5556419 5538330 
2100.719 5521115 5503530 5484941 5465815 5447461 5432162 5420620 5411495 
2104.576 5401463 5386568 5364427 5335377 5303076 5273293 5251426 5240828 
2108.434 5241063 5249280 5261990 5276848 5293987 5315520 5343931 5379758 
2112.291 5421325 5463533 5500443 5527423 5540948 5541082 5529370 5509068 
2116.148 5482726 5453232 5422902 5394183 5369526 5350472 5336786 5326119 
2120.006 5313877 5295261 5266820 5228085 5182312 5135571 5094568 5064396 
2123.863 5046730 5039758 5038987 5038987 5035266 5025511 5008987 4986698 
2127.721 4960321 4932035 4903785 4878586 4858549 4845381 4840187 4842600 
2131.578 4851546 4866490 4887868 4917056 4956701 5007981 5069425 5136409 
2135.436 5201626 5258200 5301668 5331419 5351781 5368788 5387306 5409482 
2139.293 5433202 5454574 5468868 5474304 5471988 5465680 5459574 5455514 
2143.150 5452628 5447931 5437798 5419446 5392439 5357987 5318338 5275037 
2147.008 5229695 5183116 5138387 5098557 5068754 5052127 5048171 5051557 
2150.865 5053468 5043881 5016361 4969236 4906968 4838344 4770870 4709837 
2154.723 4657085 4612109 4576814 4557929 4568108 4622758 4734122 4904254 
2158.580 5121522 5362750 5601292 5812193 5981807 6106626 6191045 6243480 
2162.438 6271918 6282171 6277834 6261396 6234774 6200086 6159520 6113145 
2166.295 6061566 6004585 5942706 5878587 5816592 5761288 5715862 5681048 
2170.152 5654629 5632340 5610589 5587430 5564071 5544472 5533464 5536283 
2174.010 5555781 5592599 5645565 5711027 5784054 5857932 5925777 5981371 
2177.867 6021719 6048227 6066303 6085490 6115094 6161302 6224555 6298475 
2181.725 6372946 6437273 6483549 6510825 6522833 6525927 6526365 6527879 
2185.582 6530805 6533058 6533227 6531074 6528484 6528047 6531242 6537162 
2189.439 6543250 6545638 6541972 6531141 6514357 6493134 6467943 6437912 
2193.297 6400619 6354688 6299988 6241026 6184458 6137710 6106457 6092311 
2197.154 6092546 6101182 6111800 6119026 6120605 6117009 6109650 6100779 
2201.012 6092412 6085826 6083003 6085926 6097250 6118790 6151051 6191953 
2204.869 6238068 6285432 6329977 6369819 6404116 6432632 6454962 6470870 
2208.727 6479311 6481497 6480421 6481262 6489972 6511330 6546109 6591690 
2212.584 6641044 6685558 6718232 6734788 6735057 6722404 6701608 6677415 
2216.441 6652551 6628528 6605281 6582372 6558993 6534370 6507899 6478571 
2220.299 6445512 6409059 6370289 6331389 6294744 6262203 6234068 6208960 
2224.156 6185533 6161738 6137710 6115195 6096377 6083339 6076619 6074401 
2228.014 6074099 6072587 6069160 6064926 6062641 6065531 6075208 6091000 
2231.871 6109919 6127796 6141238 6148464 6150211 6148800 6146918 6147186 
2235.729 6150950 6158781 6171250 6189062 6212724 6242539 6278002 6317066 
2239.586 6357345 6396315 6432800 6467035 6500533 6534976 6571203 6608511 
2243.443 6645081 6678290 6706050 6726880 6740812 6747845 6748182 6741653 
2247.301 6727856 6706891 6679771 6649489 6619344 6593338 6573895 6562289 
2251.158 6557916 6559060 6564240 6572684 6584760 6601177 6622304 6647302 
2255.016 6674454 6700902 6723245 6739365 6747879 6748249 6741317 6727957 
2258.873 6709045 6685390 6657497 6625904 6591186 6554317 6516509 6479210 
2262.730 6444772 6415146 6392583 6378292 6371971 6372240 6375871 6379435 
2266.588 6380578 6378124 6372744 6366456 6361783 6360202 6361547 6364540 
2270.445 6367028 6367566 6365851 6363363 6362422 6365380 6373686 6387034 
2274.303 6404015 6422779 6441207 6458493 6474334 6488728 6501879 6513483 
2278.160 6523001 6530165 6534942 6538104 6541097 6544898 6550549 6558286 
2282.018 6567739 6578100 6588562 6598553 6606997 6613322 6616417 6615441 
2285.875 6609722 6599461 6585938 6571136 6557580 6547590 6542544 6542914 
2289.732 6547825 6556133 6566460 6577460 6588023 6597476 6605349 6611135 
2293.590 6614432 6615374 6614567 6612817 6611640 6612212 6615542 6622607 
2297.447 6633609 6648782 6668263 6692052 6719948 6751850 6787053 6825085 
2301.305 6865377 6907288 6950618 6994995 7040051 7085548 7131186 7176626 
2305.162 7222172 7268397 7316244 7366927 7421189 7479132 7540319 7604078 
2309.020 7669329 7735502 7802021 7868652 7935260 8001236 8065602 8127818 
2312.877 8186902 8242684 8295469 8346469 8396901 8448386 8502918 8561310 
2316.734 8624746 8693396 8766621 8843613 8922748 9002812 9083094 9163694 
2320.592 9245359 9328158 9411377 9492174 9565094 9624002 9663165 9679223 
2324.449 9672956 9649307 9617429 9587586 9570073 9572953 9600559 9653001 
2328.307 9726829 9816497 9915098 10015722 10112843 10201776 10279668 
2331.682 10345289 10399042 10442721 10478835 10510064 10538545 10565466 
2335.057 10590930 10614323 10634323 10650078 10660673 10665800 10665257 
2338.432 10658941 10646954 10629501 10606820 10579691 10548729 10513933 
2341.808 10474456 10428126 10371451 10299312 10206254 10087849 9941608 
2345.183 9769525 9578778 9382461 9197502 9042867 8936616 8892175 8917101 
2349.040 9012014 9170868 9381615 9627322 9890793 10155374 10408137 10641690 
2352.898 10853492 11044154 11214872 11366916 11499994 11613850 11709083 
2356.273 11787959 11853877 11910643 11961184 12006554 12045864 12077104 
2359.648 12098124 12107494 12104564 12089710 12064124 12028286 11984243 
2363.023 11934108 11880574 11826399 11773933 11723890 11675419 11626136 
2366.399 11573151 11514046 11447738 11374366 11294884 11210044 11120360 
2369.774 11025631 10925826 10821661 10715042 10608653 10504428 10403792 
2373.149 10305827 10207985 10106603 9998566 9882488 9758342 9628202 9495154 
2377.007 9362147 9231381 9104647 8983260 8868502 8761888 8664764 8578038 
2380.864 8501972 8435582 8377139 8324852 8277400 8234378 8195950 8163335 
2384.721 8136933 8117049 8103106 8094599 8090413 8090143 8093452 8100237 
2388.579 8110365 8123361 8138689 8156042 8175422 8197032 8221613 8249405 
2392.436 8280845 8315260 8351940 8389773 8428149 8466292 8504405 8542183 
2396.294 8579457 8615856 8651008 8684674 8717161 8748466 8778759 8807094 
2400.151 8832420 8852506 8865830 8871038 8868265 8858628 8844458 8827686 
2404.009 8810069 8792385 8774668 8756851 8739034 8722029 8706918 8695222 
2407.866 8687818 8685282 8687209 8693227 8702490 8714591 8729162 8746065 
2411.723 8765066 8786366 8810170 8837154 8868333 8904790 8947304 8995810 
2415.581 9049701 9107354 9167282 9228572 9290818 9354056 9418691 9484114 
2419.438 9549073 9611501 9669025 9720256 9764612 9803346 9838086 9870659 
2423.296 9901674 9930861 9956830 9978053 9993446 10002872 10007415 10008805 
2427.153 10008873 10008873 10009890 10011891 10014976 10018842 10023691 
2430.528 10029523 10036338 10044273 10053666 10064891 10079032 10096734 
2433.904 10118778 10145233 10175318 10207645 10240822 10273730 10305827 
2437.279 10337280 10368839 10401315 10434813 10469093 10503716 10538002 
2440.654 10571611 10604714 10637413 10670011 10702238 10733619 10763915 
2444.029 10793127 10821830 10851250 10882540 10916379 10952805 10990933 
2447.405 11028961 11064717 11096735 11123624 11144497 11159590 11168974 
2450.780 11173359 11174005 11172611 11171116 11171489 11175365 11183185 
2454.155 11194574 11208140 11222420 11236497 11250065 11263496 11278220 
2457.530 11295088 11314676 11336918 11361236 11387154 11414231 11442975 
2460.906 11473729 11507344 11544091 11583869 11626613 11672186 11720860 
2464.281 11773661 11831847 11896886 11969666 12050429 12138533 12232995 
2467.656 12332897 12437049 12544910 12655868 12770062 12887187 13007588 
2471.031 13131368 13259214 13391883 13530779 13676866 13831827 13997143 
2474.406 14174435 14364917 14569599 14789222 15024081 15274237 15539887 
2477.782 15821438 16120158 16437735 16775761 17135522 17517692 17921368 
2481.157 18344910 18785302 19239266 19702582 20170244 20635804 21091360 
2484.532 21527618 21934446 22302032 22622102 22887956 23095508 23242786 
2487.907 23329204 23355636 23324204 23238696 23104242 22927706 22717580 
2491.283 22482014 22229592 21968078 21703694 21441732 21186850 20942342 
2494.658 20711802 20497710 20302820 20129254 19979420 19855580 19760626 
2498.033 19697588 19669852 19680738 19732574 19827314 19966376 20151016 
2501.408 20382856 20663534 20994884 21378346 21814298 22301752 22838642 
2504.784 23421376 24045760 24705904 25394136 26100492 26810288 27505398 
2508.159 28164886 28764304 29279544 29688486 29971164 30113086 30105734 
2511.534 29946738 29641126 29201076 28645578 27996988 27280520 26521772 
2514.909 25742124 24960438 24190838 23442604 22722084 22032772 21376222 
2518.285 20752568 20160908 19599618 19066886 18560986 18081132 17627306 
2521.660 17200704 16802486 16433813 16094610 15784362 15501392 15244242 
2525.035 15011459 14802660 14617367 14455582 14316493 14198639 14099471 
2528.410 14016170 13945920 13886526 13836444 13794817 13761094 13734829 
2531.786 13715336 13701863 13693689 13690236 13691159 13695639 13703127 
2535.161 13712874 13723954 13735684 13748201 13761470 13776143 13792320 
2538.536 13810209 13829398 13849477 13870003 13890666 13911911 13934253 
2541.911 13958648 13985577 14015486 14048235 14083556 14121070 14161017 
2545.287 14202953 14247393 14294611 14344986 14398927 14456850 14519062 
2548.662 14585875 14656605 14730740 14807117 14884398 14961830 15038934 
2552.037 15116153 15193592 15272624 15353867 15438078 15525498 15616646 
2555.412 15711695 15811266 15915673 16025055 16139312 16258175 16381372 
2558.788 16509010 16641950 16781098 16927732 17082994 17247072 17420074 
2562.163 17601600 17791554 17989844 18196726 18412176 18635652 18865474 
2565.538 19098914 19333066 19565232 19793362 20016334 20233662 20444532 
2568.913 20647514 20840440 21020514 21185180 21332300 21461086 21571734 
2572.289 21664822 21741174 21801234 21844994 21872486 21883952 21880292 
2575.664 21863428 21835378 21798900 21756746 21711390 21665624 21622158 
2579.039 21583678 21552792 21531484 21521072 21522326 21535800 21562090 
2582.414 21602518 21658728 21732848 21826528 21941104 22076346 22231510 
2585.790 22405322 22596238 22803440 23026430 23265124 23519232 23788262 
2589.165 24071746 24368452 24677284 24997112 25326272 25662326 26001806 
2592.540 26340178 26672120 26991304 27292060 27568802 27816506 28030738 
2595.915 28207668 28343674 28436278 28483756 28485524 28442326 28355770 
2599.291 28228774 28064246 27865858 27637688 27383946 27109402 26818960 
2602.666 26517230 26208740 25897478 25586406 25278964 24978054 24687420 
2606.041 24411000 24153284 23918584 23711094 23533680 23388190 23275260 
2609.416 23194446 23144782 23124792 23133180 23168686 23229992 23315954 
2612.792 23424942 23555086 23703572 23866702 24040122 24219284 24399714 
2616.167 24577762 24751012 24918328 25079212 25233908 25382720 25525644 
2619.542 25662712 25794162 25920410 26042824 26163304 26283922 26406228 
2622.917 26531070 26658132 26785794 26911308 27030866 27139838 27233034 
2626.292 27304654 27348340 27358114 27328508 27254802 27134230 26966024 
2629.668 26751014 26492224 26194062 25862592 25504210 25125834 24734454 
2633.043 24336140 23936196 23539274 23148520 22766846 22396600 22039288 
2636.418 21697006 21370930 21061762 20769668 20494514 20235328 19991182 
2639.793 19761146 19544264 19339650 19146522 18963902 18790870 18626002 
2643.169 18468458 18317364 18172230 18032774 17899130 17771258 17649458 
2646.544 17534046 17425248 17323720 17229938 17144552 17067762 16999258 
2649.919 16938790 16885566 16839132 16798974 16764982 16737087 16715461 
2653.294 16699795 16689740 16684748 16683955 16687192 16693940 16704442 
2656.670 16718594 16736604 16758265 16783302 16811544 16842818 16877540 
2660.045 16915984 16958704 17005942 17057700 17113600 17173024 17235592 
2663.420 17300722 17368238 17438182 17510448 17585280 17662504 17742194 
2666.795 17824624 17909972 17998410 18090252 18185152 18282804 18382620 
2670.171 18484224 18587304 18691792 18798032 18906206 19016518 19128692 
2673.546 19242486 19357594 19473772 19591124 19710210 19831338 19955238 
2676.921 20082230 20212940 20347644 20486838 20631010 20780722 20936500 
2680.296 21098386 21266250 21439956 21619408 21805276 21997810 22198170 
2683.672 22406962 22624512 22850866 23085690 23328680 23579644 23838874 
2687.047 24107330 24386080 24676512 24980440 25299474 25635472 25990230 
2690.422 26365070 26761022 27177968 27614772 28069440 28539376 29022078 
2693.797 29514820 30015010 30519474 31024134 31523038 32008424 32470684 
2697.173 32899514 33283514 33612500 33877252 34070160 34186152 34222356 
2700.548 34178944 34058944 33868548 33616688 33313814 32971754 32602676 
2703.923 32217708 31827624 31441670 31067374 30710720 30375714 30064472 
2707.298 29777120 29512410 29268202 29042164 28832248 28636870 28455240 
2710.674 28286732 28130736 27986420 27853106 27730002 27616644 27512952 
2714.049 27418920 27334576 27259812 27194018 27136700 27087430 27045994 
2717.424 27013130 26989120 26974838 26970326 26974980 26987426 27005620 
2720.799 27027586 27051390 27076074 27100760 27125132 27149504 27174124 
2724.175 27199344 27225908 27254590 27286520 27322508 27363866 27411578 
2727.550 27466956 27531132 27605134 27690130 27786374 27893736 28011228 
2730.925 28137452 28270750 28410170 28554946 28705434 28862026 29025336 
2734.300 29194946 29370328 29550074 29732624 29917170 30103462 30292180 
2737.676 30484142 30680316 30880562 31083960 31288806 31492468 31691880 
2741.051 31884496 32067708 32239296 32397564 32540816 32667290 32775830 
2744.426 32865026 32934326 32982762 33010650 33018228 33006430 32977294 
2747.801 32933112 32877178 32812956 32744564 32675580 32609676 32549958 
2751.177 32499250 32459580 32432764 32419554 32420092 32433908 32459438 
2754.552 32494858 32537888 32586318 32638286 32691724 32745280 32797660 
2757.927 32847550 32893904 32935400 32971252 33000354 33022270 33036496 
2761.302 33042864 33042290 33035674 33024878 33012114 32999530 32989628 
2764.677 32984410 32985624 32994990 33013902 33043432 33084766 33139012 
2768.053 33206570 33287772 33382974 33492156 33615436 33753936 33908060 
2771.428 34078908 34267032 34472380 34694300 34931704 35183068 35446836 
2774.803 35721888 36007076 36301320 36603944 36913776 37229428 37549928 
2778.178 37873996 38200292 38527780 38854456 39178376 39497200 39808232 
2781.554 40109276 40398164 40673204 40933160 41176944 41403452 41612348 
2784.929 41803656 41978404 42138468 42286800 42426920 42562232 42695792 
2788.304 42830632 42968848 43112956 43265060 43427216 43601116 43786956 
2791.679 43983660 44187644 44394436 44598056 44792008 44970828 45129612 
2795.055 45264812 45374924 45460636 45524912 45572972 45612900 45653756 
2798.430 45705288 45776928 45876496 46009604 46179824 46389188 46638352 
2801.805 46927740 47256776 47624664 48029496 48468828 48939568 49438480 
2805.180 49962128 50507700 51071844 51651388 52241760 52837464 53432224 
2808.556 54019092 54591016 55142400 55667700 56162376 56622472 57043608 
2811.931 57422000 57753296 58034020 58260888 58431508 58543796 58596772 
2815.306 58589680 58523212 58399176 58221068 57994104 57724420 57419052 
2818.681 57085516 56730636 56361220 55983788 55604880 55231076 54868836 
2822.057 54523916 54201232 53904176 53634956 53394304 53182096 52997844 
2825.432 52840944 52710888 52607128 52529116 52476652 52449024 52446072 
2828.807 52467832 52514420 52586108 52683092 52804796 52950676 53119032 
2832.182 53308132 53515680 53739452 53977748 54229120 54493188 54770236 
2835.558 55061372 55368588 55694368 56041348 56411924 56808652 57233896 
2838.933 57690436 58181476 58710888 59283556 59905132 60581684 61319772 
2842.308 62126740 63010132 63978820 65043076 66213280 67500536 68913664 
2845.683 70457096 72127712 73911344 75781424 77694376 79594024 81414328 
2849.059 83079976 84521208 85678280 86507104 86988168 87125824 86948288 
2852.434 86499416 85837488 85027800 84132216 83211784 82320496 81499384 
2855.809 80781248 80186480 79723280 79391336 79182984 79086608 79088800 
2859.184 79176584 79338480 79563144 79839976 80157504 80502752 80863144 
2862.560 81225056 81575664 81904224 82201248 82459856 82676080 82848992 
2865.935 82981296 83079176 83152200 83211752 83268944 83334768 83417352 
2869.310 83522512 83653624 83812208 83998880 84212816 84452976 84716840 
2872.685 85000760 85300680 85612376 85931696 86255656 86581672 86907208 
2876.061 87229792 87546576 87854576 88151760 88437984 88715440 88988528 
2879.436 89264312 89550616 89855032 90185032 90546504 90944472 91382880 
2882.811 91864048 92389296 92957600 93566392 94210952 94884536 95580312 
2886.186 96290512 97007232 97723552 98433032 99130064 99811040 100474040 
2889.562 101119152 101748800 102366952 102977928 103585336 104192632 
2892.455 104801952 105414968 106033792 106660744 107298952 107951576 
2895.348 108621552 109311960 110025320 110764224 111531720 112330880 
2898.241 113164048 114032248 114934744 115867840 116825584 117799960 
2901.134 118782840 119765504 120739640 121697672 122632208 123536208 
2904.027 124403928 125230936 126015288 126757088 127458784 128124328 
2906.920 128757312 129361864 129941928 130501624 131046472 131582752 
2909.813 132117896 132660048 133215712 133789704 134383664 134994656 
2912.706 135615248 136231872 136827168 137377248 137855456 138236144 
2915.599 138495552 138617040 138594560 138431744 138141584 137743184 
2918.492 137258096 136705280 136098544 135445360 134745952 133996304 
2921.385 133189144 132318496 131381912 130382880 129331976 128247264 
2924.278 127152592 126072688 125033336 124055840 123154928 122339544 
2927.171 121612176 120970496 120408944 119920168 119495928 119127032 
2930.064 118804576 118520048 118265424 118035088 117825120 117633280 
2932.958 117458768 117300688 117157592 117026304 116902688 116781136 
2935.851 116656072 116521512 116371832 116201984 116007440 115784904 
2938.744 115532872 115251960 114944800 114615552 114268968 113908792 
2941.637 113537680 113156008 112762680 112355848 111933280 111492872 
2944.530 111032672 110550912 110045768 109515936 108961320 108383560 
2947.423 107787240 107180280 106572352 105975808 105403944 104869608 
2950.316 104386456 103967864 103625288 103370544 103213312 103160072 
2953.209 103214360 103375464 103637912 103990464 104417760 104898896 
2956.102 105406936 105913728 106388216 106800464 107127192 107352200 
2958.995 107469992 107485984 107415632 107281480 107108112 106921288 
2961.888 106742840 106588448 106467896 106383056 106329680 106296536 
2964.781 106268688 106229160 106160064 106047160 105880408 105655024 
2967.674 105371760 105036352 104658448 104249536 103822864 103392072 
2970.567 102968848 102563872 102184216 101833280 101510768 101213424 
2973.460 100936096 100672816 100418208 100167592 99917000 99663256 99402864 
2976.836 99132440 98849152 98551096 98238192 97912024 97575768 97234144 
2980.211 96892288 96555792 96230800 95923488 95640272 95387200 95168872 
2983.586 94988104 94844680 94735704 94655968 94598776 94557416 94524632 
2986.961 94493776 94458728 94412072 94346272 94252936 94123208 93948552 
2990.337 93721904 93437616 93092816 92687992 92227376 91718496 91172608 
2993.712 90603360 90023648 89445768 88878416 88325808 87788424 87263856 
2997.087 86748416 86238800 85733624 85232536 84737096 84249464 83771424 
3000.462 83304336 82849224 82406776 81978056 81564064 81166408 80786520 
3003.838 80425416 80083632 79760736 79455952 79167192 78892032 78627280 
3007.213 78369200 78113536 77856832 77595728 77327648 77050872 76763992 
3010.588 76465880 76155816 75833152 75497472 75149600 74790920 74423640 
3013.963 74050584 73675136 73300440 72929752 72566280 72213008 71872880 
3017.339 71547984 71239224 70945976 70666296 70396968 70133880 69873360 
3020.714 69611680 69345416 69071464 68786200 68485480 68165160 67821496 
3024.089 67451704 67054532 66630536 66181868 65711348 65221736 64715752 
3027.464 64195456 63662352 63117832 62562972 61998764 61425944 60844800 
3030.840 60255380 59657136 59049392 58431776 57803672 57165672 56518564 
3034.215 55863904 55204248 54543036 53884336 53232320 52591456 51964792 
3037.590 51354920 50763032 50189356 49633636 49095508 48574160 48068916 
3040.965 47578520 47101496 46636028 46180708 45734296 45296696 44868716 
3044.341 44451176 44044676 43648996 43262792 42883988 42510816 42141936 
3047.716 41777644 41419524 41069568 40729968 40402096 40085876 39780384 
3051.091 39484388 39196360 38915448 38641088 38372728 38109996 37851688 
3054.466 37596752 37344164 37093604 36845132 36599764 36358312 36121780 
3057.842 35890352 35664364 35443636 35228704 35020192 34819248 34626400 
3061.217 34441816 34264768 34093744 33927516 33764892 33605628 33450354 
3064.592 33299826 33154712 33014976 32879464 32746818 32615352 32484394 
3067.967 32354012 32225556 32100636 31981282 31868734 31763882 31666856 
3071.343 31577516 31495888 31421792 31355258 31296428 31245366 31201680 
3074.718 31165402 31136248 31114072 31098872 31090650 31088802 31092572 
3078.093 31100332 31109872 31118984 31125498 31127384 31123682 31113680 
3081.468 31097664 31076058 31049970 31019614 30985308 30946878 30903722 
3084.844 30855586 30802728 30745892 30686858 30627832 30570698 30516666 
3088.219 30465980 30417504 30369282 30319074 30264790 30205040 30139686 
3091.594 30068698 29993174 29914116 29832588 29749480 29665676 29581782 
3094.969 29498258 29415212 29332290 29248600 29163300 29075428 28984424 
3098.344 28890746 28795140 28699308 28605020 28513866 28426904 28344840 
3101.720 28267530 28194090 28124020 28056468 27991156 27928504 27869392 
3105.095 27815022 27766946 27726292 27693660 27669258 27652306 27642384 
3108.470 27638642 27641184 27650436 27667352 27693024 27728164 27772740 
3111.845 27826184 27887304 27954404 28026036 28100652 28176412 28251512 
3115.221 28323654 28390576 28450040 28499994 28539624 28568604 28587182 
3118.596 28595960 28595428 28585768 28566942 28539022 28502330 28458034 
3121.971 28407448 28352798 28295752 28238004 28180408 28123240 28066684 
3125.346 28010310 27953838 27897832 27842788 27790012 27740844 27697086 
3128.722 27659512 27628614 27603120 27580912 27559092 27534662 27504904 
3132.097 27468828 27426756 27380242 27331436 27282674 27234798 27187774 
3135.472 27140368 27090674 27036790 26977590 26912332 26841410 26765602 
3138.847 26685896 26603492 26519800 26435914 26352992 26272130 26193570 
3142.223 26117170 26042088 25967260 25891780 25815434 25738750 25663098 
3145.598 25590166 25521534 25457724 25399160 25345240 25294978 25248128 
3148.973 25204376 25164136 25128360 25097290 25070964 25049024 25030350 
3152.348 25013888 24998972 24985354 24973176 24962894 24954998 24949488 
3155.724 24946120 24944224 24943066 24942364 24942012 24942154 24943522 
3159.099 24946786 24952366 24960506 24971106 24983810 24998234 25014416 
3162.474 25032350 25052008 25073524 25096484 25120250 25143914 25166384 
3165.849 25186924 25205604 25222774 25239666 25257434 25277278 25299578 
3169.225 25324340 25350684 25377872 25405202 25432360 25459658 25487520 
3172.600 25516368 25546274 25576600 25606544 25634346 25659092 25679690 
3175.975 25696106 25708868 25719028 25727676 25736184 25745360 25755276 
3179.350 25765998 25777494 25789450 25802178 25816490 25833122 25852604 
3182.726 25875498 25901172 25928324 25955688 25982212 26007364 26031532 
3186.101 26055878 26081808 26110624 26142506 26176854 26212646 26248756 
3189.476 26284310 26319758 26355950 26394080 26435384 26480038 26527654 
3192.851 26577388 26628080 26679272 26731314 26784632 26840034 26898548 
3196.227 26960208 27024696 27091522 27160086 27230388 27302538 27377098 
3199.602 27454356 27534626 27617560 27702630 27789270 27876598 27964368 
3202.977 28052086 28139644 28226620 28313010 28398180 28481668 28562694 
3206.352 28640412 28713716 28781862 28844286 28901158 28953396 29002808 
3209.728 29051162 29100124 29150650 29202528 29254484 29305136 29353098 
3213.103 29397486 29438614 29477300 29514572 29551314 29587846 29623672 
3216.478 29658686 29692318 29724394 29755404 29785852 29816156 29846500 
3219.853 29876776 29906948 29937120 29967648 29999494 30033082 30069016 
3223.229 30107050 30146362 30185752 30224114 30260420 30294844 30327922 
3226.604 30360966 30395826 30433816 30476040 30523314 30575250 30631672 
3229.979 30692192 30756240 30823928 30895148 30969866 31047658 31127668 
3233.354 31208230 31287454 31363842 31436398 31505256 31571530 31637136 
3236.729 31703782 31772938 31844846 31919230 31995334 32072812 32151158 
3240.105 32230660 32311354 32392028 32471612 32547068 32615606 32675010 
3243.480 32724452 32764324 32796446 32822784 32844688 32862950 32877356 
3246.855 32887720 32894262 32898154 32901552 32906950 32916206 32930218 
3250.230 32948520 32969716 32992274 33015262 33038426 33062384 33087842 
3253.606 33115626 33145700 33178244 33213258 33250854 33291488 33335530 
3256.981 33382974 33432856 33483710 33533782 33581500 33626428 33669140 
3260.356 33710712 33752392 33794796 33837636 33880260 33921532 33960728 
3263.731 33998348 34035256 34072564 34111268 34151380 34192316 34232972 
3267.107 34272192 34309484 34344300 34377044 34407996 34437120 34464416 
3270.482 34489560 34512412 34533184 34551520 34567592 34580832 34590164 
3273.857 34594936 34594788 34589876 34581764 34572544 34564652 34559664 
3277.232 34558656 34561384 34567092 34574552 34582696 34590628 34598088 
3280.608 34604620 34609608 34612984 34613768 34611584 34606272 34597732 
3283.983 34586320 34572616 34557116 34540288 34523176 34506676 34491716 
3287.358 34479192 34469260 34461656 34455020 34448348 34439848 34429552 
3290.733 34417356 34404516 34392464 34382568 34375288 34370984 34368652 
3294.109 34367180 34365568 34362592 34357428 34349500 34338532 34324076 
3297.484 34306540 34286676 34265344 34244192 34224404 34206940 34192064 
3300.859 34179336 34168012 34157008 34145788 34133992 34121988 34110516 
3304.234 34100448 34092740 34087760 34085464 34085216 34086324 34087580 
3307.610 34088224 34087904 34086936 34086144 34086720 34089836 34096468 
3310.985 34106576 34119872 34135680 34153420 34172744 34193964 34217624 
3314.360 34243940 34272872 34304104 34336092 34367864 34398308 34427436 
3317.735 34455520 34483640 34513168 34544632 34578500 34614668 34652600 
3321.111 34691536 34730908 34770644 34810884 34851632 34892956 34935080 
3324.486 34977992 35021668 35065592 35109492 35152388 35193132 35230932 
3327.861 35264816 35294000 35318904 35339356 35356032 35369728 35380692 
3331.236 35389284 35395828 35400536 35403268 35404308 35403052 35398628 
3334.612 35390364 35377240 35358872 35335332 35307224 35275704 35241784 
3337.987 35206424 35169956 35132768 35094688 35055608 35015272 34973288 
3341.362 34928828 34881004 34828584 34770284 34706180 34636448 34562176 
3344.737 34485188 34407028 34328452 34249712 34170700 34090660 34009528 
3348.113 33927624 33845872 33765432 33687544 33612572 33540514 33470720 
3351.488 33401974 33332880 33261870 33187222 33107724 33022412 32931004 
3354.863 32834650 32734812 32634500 32536496 32443084 32355546 32273594 
3358.238 32196044 32121294 32047842 31974650 31901684 31829334 31757928 
3361.614 31687528 31617392 31546268 31473198 31397216 31318008 31236820 
3364.989 31154724 31073746 30995664 30921582 30851958 30786650 30724518 
3368.364 30664064 30603478 30541514 30477104 30410148 30341174 30270828 
3371.739 30200316 30129706 30059216 29988206 29916318 29843130 29769386 
3375.115 29696008 29624134 29554896 29488364 29423758 29359480 29293898 
3378.490 29225386 29153698 29079432 29003798 28928922 28856574 28787422 
3381.865 28722318 28660480 28600312 28540898 28480536 28418238 28353646 
3385.240 28286804 28218450 28149896 28082308 28016636 27953486 27892640 
3388.615 27833214 27774116 27713578 27650508 27584196 27514646 27442744 
3391.991 27370218 27299502 27232506 27171126 27115996 27066694 27020992 
3395.366 26976284 26929642 26878950 26823400 26763768 26701962 26640658 
3398.741 26581440 26524942 26470810 26417250 26362604 26305220 26244922 
3402.116 26181886 26117030 26051058 25984182 25916506 25847610 25777494 
3405.492 25706196 25634664 25563668 25493914 25425016 25356514 25287288 
3408.867 25216910 25145002 25072086 24999008 24926188 24853764 24781600 
3412.242 24708464 24633904 24557744 24480334 24402692 24326258 24252112 
3415.617 24180782 24112374 24046390 23981606 23916974 23851406 23783780 
3418.993 23713612 23640344 23564008 23485794 23406758 23328716 23253028 
3422.368 23180744 23111862 23045890 22981710 22917506 22853100 22787134 
3425.743 22719712 22650970 22581404 22511118 22440806 22370786 22301264 
3429.118 22233010 22165914 22100018 22034724 21969090 21902420 21834264 
3432.494 21764828 21694916 21625814 21558816 21495030 21434978 21378414 
3435.869 21324364 21271574 21218582 21163924 21106770 21046632 20983582 
3439.244 20917934 20850348 20781626 20712288 20642928 20574030 20505770 
3442.619 20438318 20371604 20305424 20238732 20169898 20097256 20019146 
3445.995 19934772 19845210 19752580 19660734 19573030 19492104 19418192 
3449.370 19349766 19283496 19215784 19143546 19065814 18983528 18898522 
3452.745 18813190 18729464 18647690 18567488 18487752 18407508 18326418 
3456.120 18245310 18165146 18086970 18011394 17937942 17865708 17793142 
3459.496 17719104 17642626 17563198 17480712 17395828 17309444 17222388 
3462.871 17135692 17050290 16966490 16884188 16802900 16722038 16641365 
3466.246 16561223 16482336 16405562 16331689 16260171 16189385 16117580 
3469.621 16042486 15962832 15878690 15791612 15703622 15617024 15533499 
3472.997 15453424 15376076 15300012 15223687 15146242 15067233 14987141 
3476.372 14906687 14826727 14748016 14671514 14597697 14526531 14457637 
3479.747 14389748 14321595 14251707 14179503 14105153 14030577 13957930 
3483.122 13889331 13825738 13766601 13709659 13651802 13589988 13522267 
3486.498 13448270 13368818 13285452 13200256 13114191 13028039 12942655 
3489.873 12858688 12777330 12700116 12628339 12562304 12501224 12443084 
3493.248 12385226 12324784 12259885 12189817 12115160 12037348 11958528 
3496.623 11880710 11805800 11734920 11668714 11607044 11549058 11493530 
3499.999 11438553 11382801 11324368 11262850 11198280 11131272 11062881 
3503.374 10994535 10927490 10862971 10802332 10746424 10695549 10649059 
3506.749 10605495 10562105 10516241 10464952 10406881 10342167 10272983 
3510.124 10202251 10133565 10068825 10008704 9952728 9899301 9846288 9792976 
3513.982 9739095 9685491 9633216 9583250 9535830 9490853 9447304 9404334 
3517.839 9361369 9317866 9274096 9230400 9187214 9144575 9102650 9060933 
3521.697 9018644 8975581 8930629 8884025 8835903 8786299 8736025 8685317 
3525.554 8634310 8582397 8529410 8474401 8416967 8357413 8296245 8233938 
3529.411 8171573 8109520 8048118 7988007 7929625 7873477 7820306 7769941 
3533.269 7721538 7673882 7624579 7572079 7515641 7455772 7394361 7334441 
3537.126 7278606 7228540 7184441 7144861 7108283 7072650 7036851 7000685 
3540.984 6964590 6929306 6894799 6861001 6826364 6789577 6748855 6702820 
3544.841 6650835 6592834 6529695 6463605 6397559 6334751 6278439 6231110 
3548.698 6192961 6162915 6137407 6112607 6084481 6050042 6008247 5959603 
3552.556 5906195 5850745 5795538 5742251 5691623 5644558 5601326 5562057 
3556.413 5526786 5494571 5463902 5432631 5398981 5361341 5319746 5275674 
3560.271 5231573 5190493 5155520 5128831 5111967 5105028 5106503 5113744 
3564.128 5121791 5124205 5114415 5085382 5032283 4955293 4859219 4753518 
3567.986 4649550 4557360 4483502 4429739 4393723 4370495 4355200 4342616 
3571.843 4329363 4313200 4292786 4267389 4237074 4202077 4163303 4122458 
3575.700 4081885 4043691 4010114 3981757 3958417 3938622 3920266 3900942 
3579.558 3878877 3853069 3824120 3793903 3765359 3741696 3726457 3721611 
3583.415 3727526 3742365 3761482 3778795 3786616 3777491 3746175 3690432 
3587.273 3613179 3521309 3425885 3337260 3264777 3214103 3186298 3179055 
3591.130 3187199 3204189 3222782 3236502 3240774 3233397 3214704 3187199 
3594.988 3154590 3120415 3087043 3056143 3027781 3001357 2975801 2950480 
3598.845 2924460 2897507 2869756 2841340 2813559 2787480 2764538 2746198 
3602.702 2733361 2726526 2725892 2731027 2740997 2754734 2769640 2782512 
3606.560 2789281 2785613 2767739 2734628 2687716 2631409 2571876 2514185 
3610.417 2461565 2414683 2371704 2329462 2286658 2243658 2203360 2170292 
3614.275 2148548 2140356 2145351 2160102 2178517 2194402 2200629 2191938 
3618.132 2165164 2120378 2061148 1994337 1928368 1870961 1827770 1801484 
3621.990 1791070 1794165 1807207 1827703 1854889 1889730 1933693 1986914 
3625.847 2046034 2103597 2147349 2162000 2134063 2057986 1941282 1803847 
3629.704 1673108 1570374 1505201 1475477 1470889 1478469 1486548 1486980 
3633.562 1476840 1456959 1430962 1402706 1375416 1349988 1326025 1302993 
3637.419 1280561 1259659 1241516 1227394 1217425 1210880 1205696 1199982 
3641.277 1192639 1183834 1175794 1171973 1176226 1191542 1219552 1259293 
3645.134 1307846 1360126 1409819 1449844 1473848 1475809 1452304 1402107 
3648.991 1326989 1233009 1129250 1028106 942824 884419 858987 867055 903045 
3653.331 956107 1013658 1061253 1086099 1080219 1042753 981079 907893 837375 
3657.671 780344 741377 720036 711705 711506 714559 718111 720965 723554 
3662.010 726175 730092 735535 743069 753458 767930 788543 817224 855800 
3666.350 904772 962416 1023921 1082046 1127589 1152272 1152338 1132937 
3670.207 1108554 1099319 1125230 1198819 1321638 1484819 1670946 1857551 
3674.065 2016606 2121077 2150912 2101400 1985849 1828968 1656909 1486116 
3677.922 1324363 1173335 1033951 908789 802750 720268 663020 628410 611421 
3682.262 604752 603989 608137 620214 644670 684657 739352 803082 866125 
3686.601 916260 942824 939836 908756 857593 798203 741908 694846 657811 
3690.941 627913 602330 579105 558933 543904 536041 536274 543572 555516 
3695.281 569317 582422 594068 604752 616034 629107 644703 661162 675465 
3699.620 683562 681936 668164 643110 610360 575920 546757 528046 522937 
3703.960 531861 552795 582422 617593 655587 694713 734606 774900 814966 
3708.299 853642 887838 912774 923200 913139 878874 820245 741675 652136 
3712.639 563810 489002 436594 411023 411753 434239 471587 515507 559132 
3716.979 596723 625391 645134 657844 666339 672876 678949 685122 690731 
3721.318 696339 702446 710544 722160 737327 754786 771415 782734 784991 
3725.658 776892 759997 740381 726441 726341 745459 784659 839964 903742 
3729.997 965737 1017179 1051222 1066169 1065173 1054975 1042055 1029401 
3733.855 1014987 992835 956572 902879 834851 761358 694547 643840 613910 
3738.194 604453 612317 634715 671018 722724 791497 876151 970951 1062648 
3742.534 1131874 1158385 1126027 1035014 906565 779116 689237 655620 676759 
3746.874 736664 814668 889930 947307 978256 981146 960357 922237 872964 
3751.213 815730 753392 689901 631928 587399 562549 559729 576583 607075 
3755.553 644471 681637 713763 738589 754919 762088 759034 744662 718442 
3759.892 683396 646030 614773 597950 600903 623101 659569 701815 741343 
3764.232 771714 790767 800394 805738 811846 820411 829772 834619 829407 
3768.572 809522 774237 727238 675963 629173 593902 574095 569981 578773 
3772.911 596457 618920 642579 665443 686649 706959 727238 748048 768926 
3777.251 787746 801954 808460 805970 795116 779348 763582 751898 746654 
3781.590 747484 751500 754753 754288 748579 738157 725014 711340 698695 
3785.930 687246 676361 665742 655654 647922 644072 645698 652236 661892 
3790.270 672478 681737 690200 699857 714327 736630 766967 802286 836511 
3794.609 862440 873927 869943 854704 837972 830702 841325 872400 919415 
3798.949 971150 1012463 1029036 1009906 953683 870939 782502 711606 674403 
3803.288 676195 710643 764511 819979 860215 872931 852978 805008 742704 
3807.628 684425 644106 629074 638066 665144 703076 746554 793223 844047 
3811.968 900256 961785 1025349 1083475 1126659 1144996 1132937 1092709 
3815.825 1036874 984068 952056 951823 983238 1036774 1096164 1143967 1163867 
3820.165 1145893 1089454 1006584 918286 845342 802418 793190 811448 845707 
3824.504 883157 913737 931069 935021 929542 922137 920045 927749 945647 
3828.844 971150 999544 1025980 1047502 1063246 1074872 1085202 1097725 
3832.701 1115663 1140445 1172604 1210414 1251351 1290298 1321505 1338721 
3836.559 1336461 1312631 1269063 1212707 1153003 1099552 1058928 1033553 
3840.416 1021530 1018109 1018341 1017411 1012430 1001869 986061 966401 
3844.273 945547 926520 912442 906764 912309 930937 964110 1012131 1075038 
3848.613 1152272 1242479 1342676 1448149 1549856 1634625 1686413 1687277 
3852.470 1624648 1498983 1330113 1151608 998647 893815 841524 833125 854405 
3856.810 892155 936747 982773 1027641 1070553 1110680 1146525 1176591 
3860.667 1199118 1214036 1222542 1225732 1224669 1218622 1206361 1187057 
3864.525 1162837 1140046 1127157 1132937 1161309 1209850 1268930 1324596 
3868.382 1361156 1366341 1337292 1282289 1219220 1166458 1136558 1131177 
3872.240 1143202 1160046 1170312 1167554 1152106 1130944 1114533 1112308 
3876.097 1129250 1164631 1212574 1265042 1312266 1346266 1361289 1355805 
3879.955 1333702 1302628 1273450 1256801 1258729 1279963 1314758 1352714 
3883.812 1380202 1384590 1358896 1304489 1233940 1165295 1117656 1102442 
3887.669 1121476 1166491 1224702 1280927 1321306 1337059 1326025 1293023 
3891.527 1248328 1203869 1169947 1152903 1154398 1173402 1207192 1252681 
3895.384 1306682 1366275 1427903 1487246 1540446 1583177 1611677 1624781 
3899.242 1622885 1608717 1586535 1560131 1532200 1503272 1472418 1437577 
3903.099 1398019 1354276 1309042 1266704 1231614 1206627 1192340 1187389 
3906.957 1189117 1195164 1204135 1215764 1230683 1249690 1272752 1298507 
3910.814 1325061 1350188 1372524 1391969 1409986 1428302 1447783 1468063 
3914.671 1487014 1501709 1509456 1509091 1501842 1490272 1478369 1468728 
3918.529 1462577 1459186 1457557 1456560 1456493 1458488 1464173 1474346 
3922.386 1488078 1502574 1514278 1519398 1516306 1505832 1490870 1476009 
3926.244 1465536 1461946 1465935 1476308 1491037 1507428 1523122 1535824 
3930.101 1543738 1545201 1538983 1525150 1504901 1480963 1457125 1437145 
3933.958 1424080 1419027 1421454 1429200 1440004 1451606 1462777 1473715 
3937.816 1485119 1497819 1512748 1529506 1546731 1563091 1576193 1584407 
3941.673 1586668 1583542 1576326 1567780 1560863 1558070 1560929 1569409 
3945.531 1581713 1595514 1607387 1614903 1616699 1613007 1604826 1594384 
3949.388 1583742 1574165 1566549 1561096 1557804 1556507 1556939 1558901 
3953.246 1561229 1562891 1562659 1559732 1554179 1546963 1540047 1535691 
3957.103 1535126 1539116 1546631 1556208 1565818 1573632 1578887 1581381 
3960.960 1581414 1579751 1577257 1574630 1572535 1571604 1572402 1575229 
3964.818 1579884 1585637 1591657 1596978 1601068 1604227 1606955 1610380 
3968.675 1614903 1620723 1627009 1632763 1636754 1638384 1637585 1634891 
3972.533 1630734 1625479 1619260 1611810 1603396 1594616 1586635 1581248 
3976.390 1579751 1582711 1589994 1600170 1611178 1621322 1629304 1634891 
3980.248 1638417 1640379 1641676 1642840 1643871 1644969 1646033 1647264 
3984.105 1648661 1650290 1651588 1651854 1651022 1648528 1644803 1640645 
3987.962 1637120 1634958 1634492 1635590 1637785 1640612 1644204 1648993 
3991.820 1655878 1665258 1677199 1690903 1704641 1716051 1723835 1726796 
3995.677 1724800 1719178 1711327 1703044 1695793 1690471 1686978 1685115 
3999.535 1684517 1684483 1684882 
##END=
