
##TITLE=Z382_3_c
##JCAMP-DX=5.01  $$ Nicolet v. 1
##DATATYPE=INFRARED SPECTRUM
##ORIGIN=UniL
##OWNER=Nicolet
##LONGDATE=2011/09/09
##TIME=10:42:17
##SPECTROMETER/DATA SYSTEM=Nicolet iS5
##DATA PROCESSING=
Ratio against background
%Transmittance->Absorbance
Truncated
ElementMultiply or ElementDivide
##COMMENTS=
Number of sample scans: 32
Collection length: 51.18 sec
Sample gain: 2.0
Background collected on: Ven Sep 09 10:32:29 2011 (GMT+02:00);
Number of background scans: 32
Background gain: 2.0
Sample spacing:  1.000
Number of scan points: 12415
Resolution points: 8192
Number of FFT points: 65536
Apodization: N-B fort;
Phase correction: Mertz;
Laser frequency: 15798.0 cm-1
Number of rejected sample scans: 0
Number of rejected background scans: 0
Bench serial number: ASB1000141;
##RESOLUTION=4.000
##XUNITS=1/CM
##YUNITS=ABSORBANCE
##FIRSTX=649.893372
##LASTX=4000.122314
##FIRSTY=0.079211
##MAXX=4000.122314
##MINX=649.893372
##MAXY=0.218741
##MINY=0.000657
##XFACTOR=1.000000
##YFACTOR=1.000000E-009
##NPOINTS=6950
##DELTAX=0.482117
##ZPD=6100
##XYDATA=(X++(Y..Y))
649.893 79210656 79215784 79314496 79514320 79789840 80095416 80388376 
653.268 80654760 80913688 81210512 81590216 82078632 82667144 83320520 
656.643 83992688 84646128 85267208 85861352 86443416 87021768 87592296 
660.018 88141728 88656960 89134880 89585920 90026256 90468512 90912112 
663.393 91342680 91735520 92068064 92323136 92485376 92536872 92449792 
666.767 92189392 91734088 91103248 90370016 89632920 88968440 88397808 
670.142 87889544 87380168 86800856 86103360 85270152 84320552 83298920 
673.517 82259424 81240232 80254632 79294928 78346424 77402480 76473232 
676.892 75579248 74742584 73973536 73265568 72599448 71954336 71319144 
680.267 70698072 70106352 69560264 69068272 68625624 68217456 67827728 
683.642 67447712 67080900 66741064 66444004 66198000 66001660 65844120 
687.016 65711580 65593524 65486176 65390028 65304028 65221576 65129416 
690.391 65011516 64859496 64676604 64480992 64297028 64147128 64042024 
693.766 63977056 63935520 63898356 63853600 63800024 63745916 63700868 
697.141 63668176 63641132 63605608 63546576 63457260 63342192 63215620 
700.516 63093380 62985884 62893732 62809796 62725408 62635988 62544940 
703.890 62460880 62391864 62339120 62295708 62249360 62190780 62118864 
707.265 62043676 61980840 61945184 61943272 61971708 62020820 62084152 
710.640 62165584 62281408 62456140 62712772 63064300 63507804 64025624 
714.015 64588776 65166296 65723756 66223704 66627524 66894644 66994756 
717.390 66925444 66726572 66486476 66319652 66346632 66642784 67205472 
720.765 67936512 68659192 69168048 69265384 68830456 67841712 66375352 
724.139 64574288 62608436 60645156 58806140 57168580 55765452 54594620 
727.514 53633720 52849928 52209920 51680536 51233584 50848812 50513208 
730.889 50220676 49969008 49755976 49575804 49419064 49274216 49132092 
734.264 48988600 48845232 48706656 48576312 48453784 48334664 48211584 
737.639 48079056 47936096 47787084 47638824 47497196 47363776 47237048 
741.013 47112944 46990020 46870744 46760952 46666720 46590912 46529980 
744.388 46475544 46417912 46351844 46279000 46208492 46152888 46123960 
747.763 46127168 46161580 46220068 46294704 46377944 46464892 46551812 
751.138 46634108 46704976 46757448 46786492 46792172 46781028 46763832 
754.513 46751396 46749552 46757632 46769664 46778224 46778852 46773208 
757.888 46767080 46768184 46781212 46806416 46840812 46881968 46931248 
761.262 46995632 47085616 47211192 47377228 47582404 47821148 48088420 
764.637 48385776 48722148 49112500 49571756 50110888 50733128 51437420 
768.012 52223636 53100612 54092232 55245712 56630780 58341568 60505276 
771.387 63263684 66765948 71138592 76432496 82571480 89285312 96120648 
774.762 102413344 107376080 110299504 110646656 108238528 103290768 96378456 
778.136 88288856 79812224 71684160 64428216 58327960 53474568 49791164 
781.511 47107480 45206892 43888120 42982488 42359048 41933256 41650528 
784.886 41478140 41397948 41398200 41469828 41604292 41793332 42029464 
788.261 42308496 42629224 42994600 43408576 43875436 44397556 44975312 
791.636 45607936 46295700 47041380 47850968 48732752 49696788 50753984 
795.010 51916132 53197340 54615776 56191752 57949840 59917228 62122456 
798.385 64599396 67391912 70553984 74157912 78288920 83031592 88460720 
801.760 94613368 101469504 108921256 116762496 124693880 132296432 139092832 
805.135 144592256 148328000 149980208 149425360 146780672 142376896 
808.028 136714640 130391928 123967232 117946392 112722000 108525192 
810.920 105453192 103455048 102362592 101896208 101708552 101449280 
813.813 100772552 99415824 97235600 94206712 90424360 86065304 81364216 
817.188 76555504 71850288 67426112 63398784 59834164 56751212 54131600 
820.563 51931744 50093260 48557932 47269336 46179676 45254032 44465604 
823.938 43795352 43230288 42760024 42377824 42079948 41866336 41740216 
827.312 41706588 41771296 41939024 42211640 42588216 43064696 43632620 
830.687 44278844 44985932 45731056 46488748 47235868 47953672 48630672 
834.062 49261152 49838580 50347720 50759716 51027680 51094504 50908560 
837.437 50432672 49661904 48625004 47383508 46016012 44603568 43222892 
840.812 41930304 40763344 39742796 38874604 38155036 37573120 37114572 
844.186 36761500 36495564 36301284 36166292 36082212 36044444 36048836 
847.561 36090276 36162116 36256436 36367212 36491668 36631736 36792372 
850.936 36979400 37196648 37445248 37723300 38028504 38360240 38719976 
854.311 39110932 39535960 39995984 40489052 41012720 41565276 42148948 
857.686 42770188 43439192 44168056 44968512 45853076 46836460 47938024 
861.060 49186264 50619040 52281184 54227132 56512000 59187364 62296628 
864.435 65858692 69854408 74200832 78744360 83242808 87365256 90758056 
867.810 93066296 94011824 93465384 91462008 88206240 84008328 79256552 
871.185 74334648 69555712 65167560 61317028 58060756 55390908 53252848 
874.560 51569372 50252776 49224336 48417520 47778504 47270484 46867760 
877.935 46552368 46312472 46138512 46023160 45961496 45950964 45991444 
881.309 46083836 46229024 46426244 46673432 46967460 47305656 47687300 
884.684 48112812 48583944 49101664 49665952 50275652 50930472 51632356 
888.059 52387600 53207936 54112008 55124376 56276384 57606516 59151708 
891.434 60942928 62990212 65270520 67712352 70191864 72552848 74609744 
894.809 76190760 77174024 77497488 77175048 76279344 74927368 73247928 
898.183 71361240 69378336 67386832 65458440 63654600 62021316 60591664 
901.558 59383304 58397548 57622176 57036012 56617416 56345752 56205292 
904.933 56183532 56268804 56449356 56714212 57054680 57467344 57953892 
908.308 58520444 59173580 59918292 60757484 61693736 62732988 63887952 
911.683 65176764 66621304 68242928 70056552 72070208 74285856 76700968 
915.058 79311552 82109608 85081040 88199496 91422504 94696760 97953912 
918.432 101117600 104106416 106818896 109134024 110912248 111991896 
921.325 112230032 111535024 109902568 107439136 104359616 100973304 97608704 
924.700 94589056 92192216 90603728 89933816 90215296 91418744 93463248 
928.075 96222320 99540768 103216888 107021360 110725616 114093216 116918000 
931.450 119039776 120333176 120721000 120170904 118697088 116369496 
934.342 113319632 109756512 105940152 102178472 98811672 96147648 94464536 
937.717 93980384 94822624 97033664 100551136 105213416 110727584 116674328 
941.092 122557328 127782944 131766584 134034648 134260416 132361280 
943.985 128496408 123048600 116525584 109466392 102391152 95691528 89631904 
947.359 84356608 79897952 76217424 73232392 70848096 68966200 67496248 
950.734 66365896 65512104 64884120 64444012 64160420 64009076 63971720 
954.109 64031960 64175636 64390436 64664528 64988232 65354356 65757720 
957.484 66194720 66662596 67157744 67675720 68211368 68759872 69318208 
960.859 69885544 70463176 71053008 71656536 72273536 72901928 73538216 
964.233 74179560 74824024 75471848 76124232 76782096 77445960 78115240 
967.608 78788856 79467168 80152240 80847744 81558904 82290064 83044232 
970.983 83823136 84628176 85461200 86326664 87230032 88177416 89173368 
974.358 90219408 91314336 92455160 93639520 94866488 96136768 97451136 
977.733 98807680 100200776 101620448 103053152 104485192 105903584 107296160 
981.108 108651728 109957752 111199792 112363872 113438792 114419176 
984.000 115307352 116112056 116845488 117517784 118135544 118700744 
986.893 119213304 119674448 120088856 120465088 120813232 121141872 
989.786 121454816 121753016 122034880 122300944 122555744 122808240 
992.678 123068840 123348000 123652784 123987200 124353408 124754200 
995.571 125193376 125675160 126200896 126767072 127363312 127975792 
998.464 128589984 129195648 129789960 130376936 130964128 131558656 
1001.356 132164392 132781584 133409608 134050088 134708496 135393760 
1004.249 136116624 136885040 137704512 138579200 139514864 140523680 
1007.142 141626592 142849184 144221872 145775072 147534544 149525024 
1010.035 151767184 154273344 157037872 160020112 163133424 166223120 
1012.927 169079952 171472016 173165216 173993008 173892016 172921024 
1015.820 171246944 169109728 166788144 164525744 162515488 160882176 
1018.713 159674496 158886096 158472064 158373856 158528672 158883040 
1021.605 159400064 160055216 160836928 161740848 162764848 163905232 
1024.498 165154464 166501168 167933360 169441648 171020176 172666592 
1027.391 174379520 176154944 177984880 179857216 181758480 183678080 
1030.284 185609744 187551488 189502656 191460416 193417472 195363840 
1033.177 197289472 199187984 201059264 202906944 204734800 206541072 
1036.070 208315728 210041168 211695168 213252896 214689776 215978272 
1038.963 217081040 217950528 218527152 218740816 218527088 217831136 
1041.856 216615184 214863200 212577552 209777232 206495472 202783056 
1044.750 198709680 194356896 189822016 185205392 180595760 176073776 
1047.643 171702064 167524752 163576368 159879424 156447952 153288304 
1050.536 150396640 147760080 145357040 143162176 141149024 139292592 
1053.429 137572592 135970416 134467776 133045448 131681280 130351480 
1056.322 129034800 127712280 126368600 124993168 123576280 122109664 
1059.215 120586832 119003944 117362552 115670944 113944624 112203088 
1062.108 110466720 108755016 107083384 105463544 103905016 102415192 
1065.001 100999680 99663464 98408144 97232856 96133424 95104616 94140608 
1068.376 93236864 92390848 91600488 90863664 90177160 89535672 88933064 
1071.751 88363904 87823832 87311208 86825416 86366320 85933432 85525224 
1075.127 85140448 84779544 84446824 84151440 83906536 83729032 83637432 
1078.502 83648760 83778816 84039728 84438536 84975696 85642280 86418552 
1081.877 87270336 88150584 89004752 89770808 90391192 90820216 91027080 
1085.252 91003056 90762432 90342880 89799944 89203560 88634288 88167912 
1088.628 87875304 87816696 88034024 88557616 89406848 90593688 92129792 
1092.003 94028480 96305160 98975896 102050536 105524000 109363320 113497440 
1095.378 117812736 122133368 126238776 129877584 132773664 134687984 
1098.271 135447072 134974496 133312496 130613656 127121296 123105920 
1101.164 118848752 114602696 110554368 106839576 103535704 100668848 
1104.057 98232664 96197264 94523272 93165528 92081824 91236176 90597648 
1107.433 90142376 89852464 89712672 89709944 89831360 90063320 90393392 
1110.808 90811232 91310088 91888040 92546472 93285160 94096048 94953224 
1114.183 95802928 96565472 97127592 97358008 97135672 96362320 94997464 
1117.558 93071344 90689704 88013696 85224832 82507768 80004544 77803320 
1120.934 75940680 74406776 73165328 72170120 71383736 70782728 70359800 
1124.309 70121496 70084072 70270584 70705560 71414552 72416008 73712584 
1127.684 75279032 77050280 78921752 80737840 82313616 83461512 83997512 
1131.059 83784760 82749160 80887496 78272096 75039120 71379400 67495544 
1134.435 63588232 59836408 56366540 53262244 50562084 48266900 46353648 
1137.810 44785064 43521552 42522216 41749412 41170500 40753444 40469376 
1141.185 40293852 40205224 40187344 40228488 40319372 40452132 40618808 
1144.560 40810624 41019744 41240192 41468624 41704220 41947744 42199960 
1147.936 42460496 42728360 43002500 43283252 43572980 43875808 44195528 
1151.311 44534212 44890688 45261204 45640324 46023012 46406408 46789552 
1154.686 47172592 47555232 47935060 48307780 48667848 49009072 49326476 
1158.061 49615400 49871140 50088128 50258952 50374804 50428016 50411944 
1161.437 50322192 50157072 49915180 49595228 49195172 48712548 48146828 
1164.812 47500188 46778740 45992144 45151856 44269932 43357132 42422464 
1168.187 41474384 40521276 39571996 38637176 37726444 36848848 36011252 
1171.562 35217312 34468972 33767188 33112836 32507784 31954284 31454242 
1174.938 31008298 30615316 30272994 29978264 29728580 29521984 29356644 
1178.313 29230314 29139808 29080742 29049604 29045068 29069760 29129956 
1181.688 29235240 29396352 29622112 29919300 30292430 30744434 31278230 
1185.063 31897082 32604710 33404802 34301664 35301404 36415236 37662552 
1188.438 39070400 40674040 42507672 44595304 46940476 49516904 52265900 
1191.814 55092400 57883736 60516244 62869564 64853528 66414228 67547456 
1195.189 68297912 68758048 69055848 69326448 69710792 70328512 71259688 
1198.564 72542664 74160968 76047440 78079704 80097216 81920704 83353912 
1201.939 84224688 84399416 83793720 82387864 80221072 77386960 74011680 
1205.315 70248064 66263720 62212916 58241452 54471324 50986544 47841052 
1208.690 45055104 42620344 40508400 38678572 37089164 35698968 34475000 
1212.065 33394064 32439440 31601570 30874976 30256830 29746072 29342428 
1215.440 29046060 28856290 28770676 28784272 28890356 29080566 29346788 
1218.816 29683166 30085742 30552390 31081646 31670992 32316316 33012866 
1222.191 33755472 34540040 35363904 36223732 37115112 38030640 38960424 
1225.566 39894308 40825072 41750832 42676380 43612692 44575368 45580148 
1228.941 46642484 47776544 48994908 50309472 51732188 53272396 54937004 
1232.317 56728332 58645196 60684016 62841652 65117748 67514944 70037504 
1235.692 72688944 75469632 78375712 81399824 84529776 87748360 91028264 
1239.067 94322800 97565072 100660408 103487224 105918928 107828936 109113064 
1242.442 109712576 109620624 108893960 107642192 106031848 104261960 
1245.335 102531432 101040120 99953320 99389504 99428864 100108016 101432544 
1248.711 103388712 105954368 109103912 112802896 117005048 121634840 
1251.604 126568720 131641384 136626768 141244336 145199552 148177104 
1254.497 149883008 150097136 148681872 145622784 141026240 135114032 
1257.390 128183600 120553464 112558640 104497376 96615880 89123648 82168976 
1260.765 75846560 70206392 65251268 60948912 57239456 54050464 51301892 
1264.140 48914424 46821696 44967152 43308260 41818068 40480612 39290728 
1267.516 38251128 37372080 36669048 36160496 35866996 35806576 35989584 
1270.891 36414372 37061992 37894496 38849496 39848400 40798940 41597620 
1274.266 42150408 42377896 42227416 41686276 40781468 39578424 38162160 
1277.641 36631560 35080680 33581460 32186660 30924038 29800436 28809940 
1281.017 27938644 27171514 26493138 25890232 25351246 24866536 24429016 
1284.392 24034028 23679880 23365988 23092364 22857886 22660046 22495414 
1287.767 22360668 22253586 22173344 22119612 22091164 22084574 22093882 
1291.142 22113092 22136556 22161766 22189802 22224222 22269002 22326762 
1294.518 22397578 22480060 22572888 22675686 22791114 22922500 23073704 
1297.893 23246632 23440436 23652974 23882210 24127050 24389094 24670376 
1301.268 24972684 25295434 25636070 25990408 26355562 26730856 27118112 
1304.643 27520470 27939526 28374374 28820490 29272136 29723896 30172894 
1308.019 30620082 31067802 31518050 31970474 32421696 32866846 33301544 
1311.394 33724500 34137792 34546888 34959284 35382128 35823420 36291520 
1314.769 36794316 37338604 37924612 38541752 39161952 39740188 40220892 
1318.144 40542556 40655812 40533208 40174080 39603976 38866636 38015992 
1321.520 37101576 36166076 35243688 34358288 33529344 32772578 32099638 
1324.895 31518332 31031606 30636934 30329096 30101652 29948764 29865914 
1328.270 29847814 29888452 29978762 30108080 30266210 30444230 30636188 
1331.645 30838086 31045842 31253874 31454210 31637420 31795502 31923686 
1335.021 32021194 32090828 32136388 32160044 32161292 32137598 32086332 
1338.396 32007712 31906496 31791404 31671632 31555854 31447974 31348526 
1341.771 31255904 31168964 31089122 31020004 30966770 30934070 30925992 
1345.146 30945314 30995592 31082108 31211612 31392194 31630326 31929572 
1348.521 32290190 32710660 33189584 33727688 34327340 34990312 35714620 
1351.897 36492788 37311740 38154276 39003084 39843136 40658976 41434068 
1355.272 42146064 42763756 43251664 43574224 43703188 43627272 43354936 
1358.647 42916540 42356088 41730952 41103436 40531788 40074104 39783756 
1362.022 39704892 39874656 40315264 41031656 42011324 43226700 44637604 
1365.398 46187892 47807984 49410080 50883008 52113864 52998852 53465912 
1368.773 53497208 53130604 52453136 51570416 50595848 49628848 48739756 
1372.148 47977984 47369320 46919508 46615220 46422224 46289176 46144224 
1375.523 45911296 45523224 44928752 44107792 43073512 41873740 40579224 
1378.899 39273536 38040476 36943572 36027308 35318476 34830520 34572472 
1382.274 34551876 34775240 35252488 36001316 37052756 38457392 40277236 
1385.649 42564716 45330748 48505912 51925728 55326400 58406908 60890088 
1389.024 62555276 63284464 63052772 61917596 59993304 57432172 54408340 
1392.400 51082244 47614828 44166588 40886376 37919224 35379220 33324548 
1395.775 31749192 30590750 29760230 29159934 28709538 28357042 28074602 
1399.150 27856920 27709694 27639384 27646516 27723820 27858334 28035792 
1402.525 28243910 28475016 28728300 29009396 29330340 29704914 30147678 
1405.901 30670750 31281758 31985030 32779724 33658900 34604656 35585564 
1409.276 36558344 37466592 38255148 38882940 39331176 39609744 39751080 
1412.651 39800716 39801516 39785428 39771664 39767020 39772428 39788408 
1416.026 39817968 39865904 39937968 40039768 40177420 40361152 40605020 
1419.402 40926204 41337300 41838388 42416876 43049732 43712204 44381776 
1422.777 45047164 45709632 46381040 47076868 47807132 48569532 49348860 
1426.152 50122376 50865980 51563476 52206784 52797092 53342300 53856016 
1429.527 54358656 54875908 55444928 56109852 56913192 57891988 59067276 
1432.903 60444456 62019520 63791044 65770596 67979600 70440096 73149208 
1436.278 76053880 79046544 81994744 84785704 87355008 89679880 91751360 
1439.653 93553904 95045096 96159016 96828840 96996256 96634472 95753184 
1443.028 94396960 92635744 90548832 88223448 85736328 83143288 80483960 
1446.404 77782992 75066888 72386728 69824136 67485528 65483712 63902312 
1449.779 62785708 62134808 61913816 62056172 62465932 63033692 63630620 
1453.154 64124740 64398052 64335332 63833112 62808068 61225148 59147000 
1456.529 56762808 54377736 52291988 50687512 49598164 48954660 48656916 
1459.905 48616480 48772748 49084008 49515380 50033324 50598864 51167300 
1463.280 51698300 52157128 52526124 52810112 53037148 53250296 53491320 
1466.655 53797656 54193120 54688412 55283384 55968676 56727992 57533840 
1470.030 58348504 59119208 59769480 60209744 60352380 60139104 59567436 
1473.406 58689572 57589904 56350392 55040724 53717440 52428684 51227396 
1476.781 50167304 49290512 48625300 48178708 47940832 47894620 48025020 
1480.156 48325632 48800852 49463544 50327700 51403628 52692032 54185312 
1483.531 55871252 57742508 59802336 62068408 64572132 67350080 70433280 
1486.906 73836600 77554520 81565184 85843104 90366792 95121976 100086320 
1490.282 105221224 110456032 115694336 120830000 125767704 130433840 
1493.175 134754864 138658080 142053392 144818240 146830816 148001936 
1496.068 148327024 147903568 146923648 145622416 144201648 142816544 
1498.961 141569344 140522000 139724240 139218096 139031312 139172160 
1501.854 139615008 140299056 141115472 141908336 142472432 142511840 
1504.747 141653456 139475984 135607824 129941744 122780104 114767608 
1507.640 106589168 98693464 91219576 84105880 77229504 70508928 63936784 
1511.015 57602164 51655940 46244540 41487980 37433908 34055756 31279300 
1514.391 29005606 27137510 25583980 24272400 23153134 22194440 21386140 
1517.766 20728344 20219672 19847742 19584610 19386594 19208996 19018386 
1521.141 18812532 18622372 18497570 18476998 18567730 18748628 18982870 
1524.516 19237810 19493560 19752026 20031636 20358166 20749336 21206960 
1527.892 21719542 22270744 22849572 23454634 24094054 24779530 25519250 
1531.267 26314866 27159450 28040280 28944968 29864424 30795578 31735756 
1534.642 32680902 33620340 34537708 35410744 36215304 36931056 37537248 
1538.017 38018632 38363428 38563660 38612296 38505472 38251348 37872948 
1541.393 37406568 36890328 36349124 35787508 35189752 34533044 33801744 
1544.768 33002642 32165502 31335316 30549760 29821586 29136442 28460442 
1548.143 27758400 27009780 26223098 25432360 24686228 24021770 23449598 
1551.518 22954288 22506406 22079938 21664438 21269834 20919776 20637716 
1554.894 20431196 20286986 20172256 20045030 19856100 19553102 19091124 
1558.269 18448060 17653704 16796252 15988236 15311510 14791518 14411498 
1561.644 14133940 13918549 13728570 13537308 13332156 13116990 12910022 
1565.019 12736282 12616776 12557256 12548082 12567488 12592933 12607123 
1568.395 12605076 12594093 12591329 12615207 12677600 12782824 12929855 
1571.770 13116035 13339775 13599320 13892308 14212060 14549795 14898354 
1575.145 15255979 15631141 16041316 16506668 17038092 17634656 18288644 
1578.520 18991974 19741346 20539048 21390248 22296696 23250022 24231266 
1581.896 25208204 26141240 26991588 27721102 28298474 28701078 28913836 
1585.271 28932286 28762108 28420642 27934192 27336624 26668350 25967684 
1588.646 25266354 24584672 23927792 23289070 22655578 22015726 21363380 
1592.021 20699290 20028306 19356348 18688782 18030874 17391724 16786918 
1595.396 16236540 15762750 15381192 15095397 14897292 14771258 14702497 
1598.772 14682652 14713294 14802215 14958298 15185219 15480035 15836421 
1602.147 16250608 16727548 17281962 17934006 18704730 19609290 20654324 
1605.522 21840326 23164528 24623628 26210780 27910340 29694482 31517338 
1608.897 33322186 35051080 36651528 38090464 39357984 40467228 41445916 
1612.273 42326612 43135352 43881888 44557416 45134428 45574408 45832048 
1615.648 45866184 45651328 45184576 44483372 43574740 42481872 41218372 
1619.023 39790004 38199388 36449400 34543912 32496858 30331014 28086266 
1622.398 25829606 23646292 21627208 19848018 18347432 17124698 16146155 
1625.774 15363307 14725051 14188061 13725356 13324092 12983553 12708612 
1629.149 12503645 12368180 12295980 12276654 12297855 12347657 12413250 
1632.524 12481309 12537134 12562884 12540374 12455905 12307297 12110288 
1635.899 11896034 11701458 11551373 11452466 11395624 11363957 11338755 
1639.275 11305493 11256525 11191820 11117810 11043814 10978664 10926811 
1642.650 10886990 10852914 10814119 10759025 10674867 10551445 10383634 
1646.025 10175386 9941913 9708260 9503757 9351517 9263671 9238760 9265160 
1649.883 9323079 9385069 9420045 9389537 9257410 9007075 8664764 8302899 
1653.740 8000494 7801583 7700694 7666833 7665080 7669869 7667576 7652906 
1657.597 7627007 7594468 7559773 7525620 7491571 7454322 7408482 7348122 
1661.455 7268565 7168407 7051803 6928733 6811824 6714261 6644307 6603566 
1665.312 6586678 6583785 6582675 6570901 6538373 6479983 6396113 6293365 
1669.170 6182038 6074771 5982009 5910696 5863642 5839461 5832510 5833215 
1673.027 5829487 5807089 5754170 5666680 5552358 5431725 5327931 5258737 
1676.885 5228118 5228252 5244752 5263936 5278156 5287580 5299186 5321994 
1680.742 5361375 5414514 5469170 5504336 5497524 5432463 5310455 5155688 
1684.599 5007981 4902713 4852417 4849837 4876676 4915078 4950769 4975235 
1688.457 4985055 4980263 4964811 4944837 4929522 4928349 4949295 4996183 
1692.314 5065972 5149317 5229929 5289526 5311898 5290163 5233451 5167356 
1696.172 5124205 5124305 5168999 5240090 5310690 5349097 5329675 5242505 
1700.029 5104022 4955293 4840422 4786180 4791306 4836502 4896513 4948255 
1703.886 4974933 4967024 4924227 4855667 4777001 4703674 4646301 4608660 
1707.744 4588534 4580063 4577417 4576346 4575274 4574973 4577116 4583445 
1711.601 4594562 4609999 4628418 4648713 4670281 4692856 4715632 4735563 
1715.459 4746952 4742363 4715129 4663951 4595700 4524983 4470044 4443698 
1719.316 4450192 4485242 4539413 4601996 4664253 4721394 4772043 4817974 
1723.174 4862469 4908678 4959416 5015892 5078912 5148445 5223859 5302875 
1727.031 5381201 5453534 5513967 5558634 5588068 5606629 5620894 5636368 
1730.888 5653387 5665270 5657314 5609750 5505779 5339403 5126719 4903216 
1734.746 4711311 4579493 4511791 4493712 4502417 4516043 4516545 4493110 
1738.603 4443296 4372169 4290678 4211378 4144202 4093191 4057771 4033859 
1742.461 4016803 4002690 3989481 3977009 3967044 3962129 3964269 3974902 
1746.318 3993561 4018074 4044728 4069176 4087371 4095800 4091686 4074126 
1750.176 4043423 4002222 3956478 3914215 3883390 3869783 3874798 3894790 
1754.033 3921872 3945310 3955408 3945143 3914048 3868079 3818939 3778695 
1757.890 3754430 3746843 3749818 3754196 3749651 3729632 3691668 3639307 
1761.748 3580137 3523447 3477886 3448829 3438142 3444020 3462522 3487673 
1765.605 3511889 3528357 3531564 3520708 3499363 3475381 3456945 3448161 
1769.463 3447159 3445522 3431696 3395128 3331617 3246449 3154657 3074263 
1773.320 3017739 2988478 2980605 2984341 2990814 2995384 2998320 3002925 
1777.177 3012467 3027481 3045299 3061049 3069991 3070158 3063484 3055209 
1781.035 3050905 3053407 3061849 3072127 3078701 3077600 3067656 3051072 
1784.892 3032619 3017071 3008330 3008129 3017772 3037458 3067822 3108801 
1788.750 3158896 3213636 3266413 3308713 3332318 3332719 3310950 3274358 
1792.607 3233297 3198548 3176886 3169810 3175117 3188468 3206225 3225085 
1796.465 3243011 3258434 3270018 3276195 3276428 3270386 3259235 3245047 
1800.322 3230660 3217942 3208328 3202287 3199115 3198448 3199917 3203722 
1804.179 3210164 3219344 3231561 3246650 3264610 3285175 3308112 3332085 
1808.037 3355624 3376127 3391388 3399970 3401940 3399369 3395328 3393391 
1811.894 3395495 3402308 3412861 3424850 3436839 3447660 3457479 3467365 
1815.752 3478655 3492549 3509651 3530295 3554380 3581473 3611275 3643551 
1819.609 3677567 3712889 3749216 3786382 3824086 3861560 3896897 3927689 
1823.467 3951128 3965506 3971625 3973431 3976942 3987943 4009111 4038875 
1827.324 4071383 4098041 4110450 4103827 4079043 4042822 4005031 3975002 
1831.181 3957314 3951128 3950827 3949890 3942869 3927488 3904787 3877673 
1835.039 3849692 3823685 3800822 3781235 3764924 3752558 3746074 3747779 
1838.896 3760412 3784978 3822248 3870619 3926887 3986940 4044627 4092890 
1842.754 4125436 4138348 4133263 4117809 4103995 4103627 4124165 4166247 
1846.611 4224761 4291247 4357442 4418158 4472521 4523242 4574605 4630092 
1850.469 4690344 4753115 4814858 4873158 4927310 4979659 5033255 5090176 
1854.326 5150525 5211787 5270710 5325013 5375263 5424344 5477424 5538565 
1858.183 5609683 5690414 5778446 5871702 5969177 6071310 6179416 6293331 
1862.041 6410606 6526432 6634786 6730447 6809905 6872177 6917455 6945736 
1865.898 6955196 6941594 6899613 6825355 6718568 6585298 6436869 6287281 
1869.756 6149539 6031227 5934242 5855649 5789393 5729493 5670406 5608005 
1873.613 5539572 5463332 5378986 5288184 5193478 5097987 5004629 4914441 
1877.470 4826651 4738176 4646436 4550262 4451096 4353326 4261968 4181201 
1881.328 4112691 4054527 4002858 3953903 3905990 3860122 3819908 3789491 
1885.185 3771241 3765192 3768434 3776689 3786115 3793769 3798415 3800153 
1889.043 3800053 3798783 3798281 3800588 3808209 3822749 3844812 3872458 
1892.900 3901577 3926452 3942033 3946213 3939993 3927823 3915452 3907729 
1896.758 3906425 3910270 3916489 3922340 3927355 3933674 3944307 3962931 
1900.615 3990953 4026802 4067403 4108911 4148818 4186654 4223724 4261734 
1904.472 4302457 4346063 4391615 4437171 4480890 4521266 4557092 4587295 
1908.330 4611004 4628049 4639302 4646301 4651827 4658157 4666497 4676544 
1912.187 4686458 4694195 4699019 4701263 4702803 4705684 4709938 4713287 
1916.045 4711746 4700995 4679257 4649182 4617132 4591548 4578958 4580732 
1919.902 4592854 4608157 4618840 4620247 4612277 4599217 4587596 4583009 
1923.760 4587530 4600020 4617534 4637226 4658626 4683478 4714259 4752747 
1927.617 4798576 4848765 4899864 4949395 4996887 5043143 5089874 5136979 
1931.474 5182278 5221948 5251594 5269604 5276647 5276278 5273024 5270677 
1935.332 5270308 5271716 5273662 5276143 5280973 5291639 5310925 5339638 
1939.189 5375028 5411897 5444475 5468868 5484706 5495477 5506920 5523732 
1943.047 5548197 5579811 5615020 5650466 5684069 5715492 5746582 5778916 
1946.904 5813973 5852727 5895951 5944588 6000251 6063515 6134013 6208926 
1950.761 6284087 6354924 6418744 6475948 6529796 6585433 6646696 6714665 
1954.619 6787658 6860866 6929440 6990449 7043250 7089893 7132264 7172382 
1958.476 7210886 7247811 7283054 7317524 7353413 7392035 7432918 7474075 
1962.334 7511393 7541465 7562908 7577305 7589073 7603302 7622792 7647611 
1966.191 7674827 7699885 7719615 7733849 7744811 7756414 7772302 7793756 
1970.049 7821217 7855191 7897299 7951559 8022263 8111579 8218270 8337248 
1973.906 8460346 8581857 8700292 8819841 8947338 9089082 9243329 9402337 
1977.763 9550699 9671431 9753937 9794434 9797687 9773355 9731946 9681697 
1981.621 9627694 9572512 9518726 9469891 9431050 9407415 9402134 9415643 
1985.478 9445035 9486823 9537693 9596901 9665163 9744585 9835036 9934828 
1989.336 10040611 10148319 10257005 10368261 10485216 10612184 10750058 
1992.711 10896639 11046159 11191582 11327939 11452773 11566651 11672118 
1996.086 11772503 11870494 11967622 12065419 12164498 12265747 12368862 
1999.461 12471420 12569262 12656857 12729902 12785896 12827768 12860395 
2002.837 12891283 12926782 12970717 13023430 13083968 13150664 13223210 
2006.212 13303558 13393899 13495914 13609851 13733495 13864256 14001695 
2009.587 14145818 14298755 14462159 14634432 14811985 14989542 15163054 
2012.962 15332791 15503075 15680468 15871096 16076110 16290030 16502848 
2016.338 16703995 16885084 17045122 17187880 17320686 17448874 17574998 
2019.713 17696186 17809020 17909592 17997340 18073532 18140136 18194964 
2023.088 18233802 18248764 18230140 18173958 18078954 17949612 17793108 
2026.463 17617126 17427386 17227834 17021414 16811716 16604701 16407454 
2029.839 16226770 16067412 15930967 15815081 15717054 15635056 15569800 
2033.214 15525293 15505650 15511625 15539784 15580755 15622417 15653949 
2036.589 15668411 15664151 15645603 15619257 15591951 15569387 15554551 
2039.964 15547786 15548953 15555959 15566914 15579278 15590166 15597240 
2043.340 15598923 15594183 15583365 15566811 15543974 15513789 15474918 
2046.715 15427572 15372747 15314050 15254880 15196132 15134542 15062533 
2050.090 14969581 14847299 14691392 14504639 14296837 14080168 13867369 
2053.465 13666813 13480636 13305334 13134305 12961328 12783336 12601596 
2056.841 12419899 12242674 12072641 11910133 11753949 11603471 11459781 
2060.216 11326001 11206270 11102820 11014857 10937854 10864635 10789187 
2063.591 10708692 10624068 10540141 10462033 10393103 10333650 10280176 
2066.966 10227592 10172063 10112233 10048308 9982427 9916048 9847915 9776100 
2070.824 9697519 9610113 9513916 9411546 9306390 9201394 9097846 8995336 
2074.681 8891803 8785792 8676258 8564013 8451224 8340018 8232520 8130147 
2078.539 8033536 7943156 7859509 7781815 7709058 7639417 7570528 7501482 
2082.396 7432750 7366522 7306876 7256975 7217321 7185688 7156348 7122900 
2086.253 7080193 7026042 6962065 6892880 6823066 6756292 6693196 6631926 
2090.111 6570497 6506856 6441174 6375333 6312158 6253463 6199851 6150413 
2093.968 6104172 6060457 6019803 5983252 5951809 5925173 5901358 5877814 
2097.826 5852861 5825760 5797552 5770287 5744970 5720931 5696323 5667788 
2101.683 5633683 5594680 5553935 5516181 5485813 5465378 5454373 5451051 
2105.541 5452259 5456755 5464808 5477122 5494772 5516651 5540008 5560816 
2109.398 5576589 5586189 5591894 5597466 5606259 5619853 5637006 5654360 
2113.255 5667922 5675945 5678060 5676717 5674804 5673663 5673663 5672118 
2117.113 5666109 5652950 5632206 5604346 5571656 5536585 5500880 5466016 
2120.970 5433470 5404986 5382676 5368486 5362280 5362448 5364662 5363958 
2124.828 5356678 5341684 5320619 5297441 5276412 5259978 5248139 5238950 
2128.685 5229560 5218729 5207293 5198172 5195557 5202364 5219768 5247100 
2132.542 5281543 5320552 5361911 5404114 5445582 5484236 5516819 5541317 
2136.400 5556486 5563501 5565917 5568870 5576422 5590115 5609381 5631232 
2140.257 5651708 5667250 5675811 5675207 5664196 5639892 5600654 5546686 
2144.115 5480545 5409381 5342656 5288956 5253874 5238078 5235899 5239051 
2147.972 5240493 5236033 5226978 5217890 5212793 5213732 5218796 5221646 
2151.830 5215408 5194819 5156627 5101172 5030204 4945977 4852082 4754456 
2155.687 4663081 4593992 4566702 4599819 4705316 4880496 5107072 5355772 
2159.544 5594847 5796814 5948047 6047387 6102593 6126587 6132098 6130148 
2163.402 6128502 6132198 6143389 6161907 6183349 6200792 6206506 6194036 
2167.259 6160629 6109079 6046446 5981337 5920940 5869351 5825760 5786975 
2171.117 5749570 5712068 5676281 5647076 5628547 5624788 5636334 5660570 
2174.974 5694308 5733656 5775357 5817532 5858167 5895783 5929271 5958259 
2178.832 5983857 6009221 6037442 6070403 6108138 6147254 6183987 6215749 
2182.689 6242303 6266707 6294508 6329371 6371634 6417600 6460141 6491991 
2186.546 6508807 6510825 6502013 6489603 6478638 6471306 6466935 6462293 
2190.404 6454189 6441578 6425167 6407109 6389523 6371130 6349712 6322109 
2194.261 6285902 6241093 6190306 6137407 6085792 6037879 5993398 5951877 
2198.119 5913450 5879662 5854003 5839932 5839260 5851719 5874489 5902534 
2201.976 5931386 5959199 5984529 6008280 6030723 6051284 6068790 6082163 
2205.833 6091034 6097822 6106256 6119294 6139558 6166679 6197902 6230437 
2209.691 6262068 6292256 6322815 6355596 6391372 6429034 6465421 6496026 
2213.548 6517519 6528450 6529089 6521487 6507328 6487820 6463370 6434414 
2217.406 6402166 6369213 6338852 6313133 6292996 6276523 6259581 6238774 
2221.263 6211951 6179584 6145473 6113682 6087472 6068286 6053637 6039626 
2225.121 6023264 6002334 5977440 5951877 5928968 5911569 5901358 5898033 
2228.978 5901157 5909789 5923426 5941564 5963903 5988997 6014999 6039357 
2232.835 6060289 6076250 6086632 6090765 6087976 6078299 6062272 6042415 
2236.693 6023600 6011774 6013924 6034754 6075342 6132232 6198910 6267010 
2240.550 6329102 6380679 6421030 6452238 6477798 6500735 6523068 6544696 
2244.408 6564106 6579546 6589134 6591522 6586644 6575038 6557580 6536456 
2248.265 6514323 6493638 6476890 6465656 6459771 6458224 6459636 6462360 
2252.123 6466598 6473560 6484894 6502719 6527475 6557748 6590681 6622237 
2255.980 6647807 6664125 6668701 6660491 6639833 6608040 6567571 6521689 
2259.837 6474098 6428563 6387774 6353612 6326144 6304863 6288524 6276389 
2263.695 6268119 6263749 6263144 6265127 6267548 6267212 6261867 6250303 
2267.552 6233093 6213295 6194910 6181231 6174845 6176425 6184962 6199111 
2271.410 6216858 6237227 6258774 6280490 6301030 6319016 6333776 6345913 
2275.267 6357445 6371029 6389018 6412960 6441981 6473358 6503056 6527676 
2279.125 6544596 6553947 6556705 6555562 6553106 6551189 6550650 6551794 
2282.982 6553812 6555763 6556302 6553712 6546244 6532789 6512978 6488156 
2286.839 6461184 6435322 6414103 6399509 6391607 6388447 6387471 6386194 
2290.697 6382865 6377451 6370895 6364271 6358488 6352940 6346754 6338449 
2294.554 6327186 6313133 6297298 6281499 6267514 6256455 6248824 6244589 
2298.412 6243681 6245463 6249631 6255480 6262304 6269228 6275380 6280255 
2302.269 6283953 6286978 6289835 6293130 6296794 6300257 6302812 6304157 
2306.126 6304291 6304224 6305199 6308292 6314579 6323622 6334684 6346182 
2309.984 6356403 6363766 6367230 6366120 6360001 6349645 6335894 6320092 
2313.841 6303753 6288255 6274372 6262505 6251917 6241597 6230841 6218909 
2317.699 6205934 6192625 6179786 6168023 6158243 6150850 6146413 6145070 
2321.556 6146346 6149035 6150715 6147859 6137239 6116203 6084515 6044262 
2325.414 6000553 5959199 5925912 5905658 5900217 5909319 5930984 5962559 
2329.271 6002065 6048429 6100947 6158646 6220219 6282305 6341072 6392717 
2333.128 6433843 6462764 6478874 6482943 6476284 6460242 6436466 6406369 
2336.986 6371735 6334112 6295046 6255581 6215984 6176190 6136265 6096310 
2340.843 6057366 6020543 5986914 5956915 5929942 5904818 5881039 5859611 
2344.701 5843693 5838252 5848529 5879023 5930681 6001091 6084246 6172325 
2348.558 6256993 6330044 6385656 6420055 6432161 6423183 6397021 6359261 
2352.416 6315654 6272086 6232824 6200322 6175047 6155353 6139323 6124032 
2356.273 6106895 6086632 6062607 6035157 6006197 5978179 5953825 5935988 
2360.130 5926113 5924870 5931252 5943210 5958393 5975156 5992558 6010665 
2363.988 6030689 6053401 6079274 6108003 6138382 6169502 6201128 6233765 
2367.845 6268455 6306443 6348031 6392885 6439862 6487719 6535749 6584659 
2371.703 6635526 6689966 6749023 6812766 6879818 6948059 7015502 7080463 
2375.560 7142167 7200274 7254886 7306337 7354728 7400595 7444682 7488031 
2379.417 7531654 7576192 7621241 7665181 7705854 7741168 7769705 7791800 
2383.275 7808734 7823174 7837511 7853470 7871486 7891394 7911841 7932290 
2387.132 7952302 7972044 7992157 8012678 8033536 8054159 8074244 8093147 
2390.990 8111479 8129911 8149357 8170898 8194870 8221850 8252106 8285573 
2394.847 8322150 8361432 8402204 8442542 8480381 8514035 8542656 8566717 
2398.705 8587906 8608083 8629038 8651075 8672945 8692821 8708169 8716823 
2402.562 8717837 8711177 8697655 8678455 8655165 8629410 8602811 8577498 
2406.419 8555193 8537588 8524780 8516130 8510521 8506669 8504405 8504878 
2410.277 8510656 8524274 8547556 8580505 8620858 8665171 8709352 8750630 
2414.134 8788226 8823358 8858796 8897519 8942061 8993409 9051528 9115339 
2417.992 9183120 9253314 9323790 9392551 9457462 9516491 9568312 9612348 
2421.849 9648901 9678987 9704127 9725541 9743534 9758207 9769559 9777320 
2425.707 9782301 9785283 9787452 9789926 9793078 9797010 9801415 9805956 
2429.564 9810328 9814700 9819106 9823918 9829647 9837069 9847067 9860863 
2433.421 9879268 9902522 9930014 9959780 9989581 10017452 10042205 10064620 
2437.279 10086390 10110130 10138178 10171249 10208595 10248286 10287844 
2440.654 10324794 10358285 10388114 10415094 10440005 10463390 10485487 
2444.029 10506500 10526935 10547575 10570185 10596022 10626242 10661046 
2447.405 10699386 10739529 10779710 10817686 10851963 10881180 10904522 
2450.780 10921374 10931262 10934558 10932247 10925859 10917365 10908633 
2454.155 10901090 10895620 10892630 10891916 10893581 10897727 10904998 
2457.530 10916107 10931738 10952635 10978936 11010338 11046363 11086131 
2460.906 11128315 11171727 11215382 11258770 11302331 11347155 11394978 
2464.281 11448044 11507479 11573967 11647169 11725558 11807979 11893515 
2467.656 11981996 12073936 12170427 12271984 12378816 12490720 12607088 
2471.031 12727513 12852442 12982289 13118288 13261469 13412558 13572176 
2474.406 13741087 13920019 14110971 14316116 14537666 14777634 15037458 
2477.782 15317345 15617643 15938632 16280569 16644189 17030166 17438044 
2481.157 17866190 18312214 18771394 19238920 19709168 20175798 20632122 
2484.532 21071084 21484238 21863044 22199006 22483690 22710004 22873112 
2487.907 22969832 22999878 22965606 22871892 22725436 22534952 22309984 
2491.283 22059648 21792592 21516338 21236918 20959624 20689006 20428938 
2494.658 20183572 19956244 19750464 19568734 19413478 19286408 19189670 
2498.033 19125366 19096386 19105734 19156426 19251318 19393002 19583188 
2501.408 19823706 20116066 20461760 20861924 21316778 21825412 22385054 
2504.784 22991702 23639434 24321282 25028210 25750106 26473348 27181142 
2508.159 27854200 28468966 29000434 29424290 29717402 29861726 29846004 
2511.534 29667236 29331262 28852358 28252856 27557574 26794604 25991252 
2514.909 25170386 24351946 23551764 22780080 22044380 21348762 20694288 
2518.285 20080634 19505308 18965216 18456392 17975202 17518554 17084478 
2521.660 16672248 16281877 15914470 15571379 15253508 14961590 14695951 
2525.035 14456301 14241777 14051795 13885089 13740267 13616141 13511022 
2528.410 13423151 13350639 13291499 13243467 13204252 13172010 13144961 
2531.786 13122386 13103877 13090082 13081783 13079700 13084583 13095886 
2535.161 13112892 13134476 13159100 13185228 13211323 13236088 13258190 
2538.536 13276842 13291737 13303558 13314081 13325526 13340457 13360617 
2541.911 13387133 13419563 13456575 13496359 13537274 13578056 13618090 
2545.287 13657410 13696152 13734589 13772962 13812159 13853104 13897200 
2548.662 13946434 14002003 14064252 14133049 14207096 14284750 14364780 
2552.037 14446470 14529580 14614762 14702154 14791792 14883678 14977057 
2555.412 15071795 15167960 15265931 15366293 15470008 15577629 15689570 
2558.788 15806833 15930247 16061086 16200908 16350716 16511247 16682165 
2562.163 16862796 17052014 17249072 17453600 17665646 17885042 18111392 
2565.538 18343598 18579868 18818102 19056154 19292122 19524128 19749946 
2568.913 19967728 20174722 20368304 20546132 20706484 20848610 20972524 
2572.289 21078074 21165316 21234376 21284518 21315944 21329446 21326696 
2575.664 21310338 21283370 21248746 21209082 21166428 21122632 21079814 
2579.039 21039712 21004934 20977914 20960980 20955972 20964630 20988416 
2582.414 21028790 21087396 21165768 21264370 21383356 21521666 21677362 
2585.790 21849280 22035978 22237612 22454972 22689616 22942794 23215138 
2589.165 23505976 23813880 24136612 24471430 24815066 25164486 25515736 
2592.540 25864630 26206240 26535120 26846028 27133456 27391886 27616748 
2595.915 27803188 27947408 28046466 28098638 28103410 28061488 27974758 
2599.291 27845758 27676816 27471298 27232718 26965214 26673882 26364716 
2602.666 26043388 25716216 25388094 25063626 24746626 24440372 24147926 
2606.041 23872968 23618548 23388086 23184308 23008890 22862844 22746454 
2609.416 22659802 22602592 22575018 22577042 22608280 22667970 22754590 
2612.792 22865814 22999108 23151456 23319344 23499226 23687020 23878464 
2616.167 24069152 24255442 24434168 24603640 24763148 24913274 25055096 
2619.542 25190224 25320546 25447678 25573156 25698568 25825210 25953648 
2622.917 26083956 26215320 26345880 26473028 26593628 26703442 26797884 
2626.292 26871654 26918924 26933696 26910428 26843736 26730152 26567808 
2629.668 26356760 26098732 25797572 25458568 25087882 24692822 24280880 
2633.043 23859596 23436204 23016856 22606534 22209086 21826946 21461156 
2636.418 21112614 20781416 20467838 20171840 19893908 19633694 19390610 
2639.793 19163768 18951858 18752918 18565170 18386804 18216284 18052428 
2643.169 17894332 17741884 17594974 17453980 17319548 17191776 17070866 
2646.544 16956810 16849156 16748073 16653588 16566077 16486190 16414439 
2649.919 16350854 16295636 16248029 16207270 16172808 16143851 16120227 
2653.294 16101968 16089177 16081681 16079480 16082231 16089486 16100936 
2656.670 16116444 16135633 16158674 16184948 16214665 16247375 16283251 
2660.045 16322298 16365062 16411686 16462581 16517648 16576646 16639197 
2663.420 16704580 16772386 16842578 16914984 16989782 17067210 17147240 
2666.795 17229904 17315030 17402656 17492718 17585280 17680518 17778264 
2670.171 17878172 17979932 18082996 18186810 18291132 18396066 18502030 
2673.546 18609644 18719880 18833430 18950818 19072254 19197602 19326486 
2676.921 19458456 19593206 19730874 19871744 20016302 20165314 20319276 
2680.296 20478258 20642476 20811832 20986226 21166080 21352032 21544888 
2683.672 21745666 21955358 22174284 22402810 22640986 22888898 23146528 
2687.047 23414626 23694054 23985984 24291986 24613810 24953138 25311592 
2690.422 25690588 26091204 26513778 26957562 27421320 27902638 28398816 
2693.797 28906186 29421240 29939532 30456170 30965204 31459480 31930782 
2697.173 32369788 32766112 33109616 33390164 33598824 33728616 33775028 
2700.548 33736888 33616832 33421010 33159326 32843188 32486324 32102316 
2703.923 31703678 31301770 30905926 30522496 30156272 29810408 29485990 
2707.298 29183712 28903388 28644304 28405714 28186206 27984688 27799444 
2710.674 27629284 27472746 27328720 27196346 27075088 26964262 26863652 
2714.049 26772614 26690582 26617054 26551464 26493844 26444294 26403200 
2717.424 26371194 26348452 26335074 26330708 26334720 26345880 26363344 
2720.799 26385878 26411864 26440244 26469578 26498598 26526562 26553224 
2724.175 26578798 26604302 26630722 26659402 26691356 26727508 26768668 
2727.550 26816138 26870948 26934718 27009216 27095364 27194160 27305184 
2730.925 27427390 27559340 27699416 27846534 27999638 28158840 28324114 
2734.300 28495572 28673150 28856716 29045600 29239528 29437622 29639494 
2737.676 29844478 30051616 30259708 30467472 30672990 30874370 31069686 
2741.051 31257044 31434652 31600964 31754434 31893660 32017630 32125112 
2744.426 32214568 32284514 32333664 32360758 32365576 32348622 32311998 
2747.801 32258674 32192942 32119188 32042596 31967372 31897440 31836290 
2751.177 31786342 31749160 31725846 31716078 31719324 31734224 31759210 
2754.552 31792544 31832758 31878184 31927180 31978178 32028794 32076736 
2757.927 32119974 32156688 32185696 32206788 32220100 32226380 32226272 
2761.302 32220670 32210500 32196760 32180808 32164466 32149586 32138098 
2764.677 32131750 32131892 32139524 32155868 32182056 32219206 32268598 
2768.053 32331594 32408488 32499712 32605316 32725346 32860056 33010326 
2771.428 33177030 33361182 33563280 33783124 34020028 34272480 34538924 
2774.803 34817956 35108376 35409164 35719260 36037496 36362348 36692376 
2778.178 37025728 37360668 37695688 38029156 38359516 38684984 39003484 
2781.554 39313220 39612324 39898740 40171132 40427804 40667564 40889324 
2784.929 41092692 41277980 41446792 41601520 41745800 41883412 42018440 
2788.304 42154536 42294724 42441612 42597060 42762108 42937500 43122620 
2791.679 43315472 43512984 43710368 43902452 44083112 44247036 44389628 
2795.055 44508444 44602612 44674436 44728424 44770628 44809016 44852108 
2798.430 44907920 44983836 45086160 45219764 45388680 45595900 45843976 
2801.805 46134572 46468504 46845504 47263796 47720512 48211208 48731304 
2805.180 49275848 49840180 50419940 51011288 51610600 52213960 52817556 
2808.556 53416784 54006524 54581248 55133972 55657608 56145144 56589404 
2811.931 56984404 57325576 57609728 57834864 57999976 58104204 58147044 
2815.306 58128216 58048560 57909632 57715264 57470296 57181092 56854496 
2818.681 56497920 56118260 55722732 55318456 54912300 54511220 54122332 
2822.057 53751228 53403072 53081964 52790540 52530496 52302788 52107252 
2825.432 51942980 51808640 51702256 51621912 51566012 51533704 51525044 
2828.807 51540680 51581648 51648740 51742344 51862068 52006956 52175096 
2832.182 52364460 52572756 52797952 53037972 53291276 53557136 53835724 
2835.558 54128376 54437484 54766136 55117680 55495264 55902040 56340396 
2838.933 56813296 57324292 57877488 58477944 59131892 59845192 60624732 
2842.308 61478008 62412716 63438660 64567364 65810768 67181912 68691288 
2845.683 70344056 72136440 74052664 76062560 78117064 80153360 82097440 
2849.059 83865864 85381208 86577264 87406424 87848408 87910272 87626312 
2852.434 87048248 86243288 85286152 84245968 83189840 82175904 81247624 
2855.809 80438816 79770136 79249864 78876736 78642128 78533256 78534256 
2859.184 78629736 78805656 79047936 79344008 79681112 80045776 80424584 
2862.560 80804080 81171008 81513968 81823008 82090672 82312688 82488496 
2865.935 82621376 82718288 82789608 82847504 82903648 82969336 83053496 
2869.310 83162072 83299160 83466704 83665192 83893680 84149752 84430200 
2872.685 84730208 85045088 85370480 85702536 86038720 86376752 86714352 
2876.061 87048368 87375552 87692360 87996408 88287720 88569280 88846536 
2879.436 89127880 89422728 89739688 90087536 90473000 90901208 91375840 
2882.811 91898280 92467992 93082136 93735680 94422240 95134232 95864936 
2886.186 96607600 97356184 98105560 98850824 99587280 100311000 101019168 
2889.562 101710816 102386672 103049160 103701976 104348496 104992304 
2892.455 105636848 106284936 106940360 107606952 108288648 108989808 
2895.348 109714072 110464280 111243152 112052832 112895872 113774424 
2898.241 114689712 115641360 116626512 117640408 118675576 119723864 
2901.134 120777440 121828800 122870544 123896712 124900032 125873592 
2904.027 126810816 127706008 128556224 129361200 130123184 130846696 
2906.920 131536680 132198976 132839072 133462400 134075432 134685056 
2909.813 135298912 135924832 136569312 137236784 137928320 138640480 
2912.706 139363840 140082432 140774800 141412304 141962496 142395376 
2915.599 142683392 142809312 142768576 142569584 142230912 141777072 
2918.492 141234288 140623536 139958016 139242656 138473904 137643456 
2921.385 136741232 135759936 134697712 133560896 132363752 131129728 
2924.278 129888120 128669176 127503528 126416280 125424536 124537952 
2927.171 123758168 123081112 122498192 121999024 121572720 121208184 
2930.064 120894904 120623792 120386336 120176504 119989600 119822744 
2932.958 119673792 119540872 119421592 119312296 119208120 119103368 
2935.851 118991792 118866960 118721824 118550216 118346352 118106448 
2938.744 117828552 117514360 117168528 116797400 116408736 116009040 
2941.637 115602096 115189496 114769424 114338672 113893192 113429328 
2944.530 112944048 112435424 111902408 111344656 110763248 110160448 
2947.423 109540832 108911288 108280776 107660696 107064440 106505832 
2950.316 106000296 105562992 105208184 104948760 104794704 104752440 
2953.209 104824440 105008544 105298152 105680928 106140312 106653976 
2956.102 107193432 107728080 108224360 108649512 108978264 109193416 
2958.995 109290144 109276160 109170024 108998280 108789112 108571264 
2961.888 108368456 108196608 108064728 107973072 107915256 107877952 
2964.781 107844616 107797256 107717896 107592352 107411680 107172096 
2967.674 106875424 106528184 106140560 105723784 105290936 104854728 
2970.567 104426320 104016024 103630504 103273576 102945456 102643264 
2973.460 102362424 102096936 101840952 101589184 101336840 101079296 
2976.354 100812544 100532632 100236624 99922880 99591952 99245768 98888680 
2979.729 98526440 98164912 97810616 97470504 97151048 96858736 96599160 
2983.104 96376424 96192424 96046776 95936296 95856344 95800408 95762240 
2986.479 95735016 95711760 95685368 95647160 95588032 95498400 95367592 
2989.854 95186744 94947904 94645456 94277144 93843624 93350304 92805688 
2993.230 92222416 91615336 90999008 90386576 89787720 89207016 88644808 
2996.605 88097736 87561408 87030920 86503744 85978784 85457160 84941248 
2999.980 84434024 83938208 83456736 82992088 82546272 82121296 81718296 
3003.355 81337400 80977800 80637768 80314784 80005984 79708856 79420616 
3006.731 79139088 78861912 78586664 78310904 78031840 77746808 77453208 
3010.106 77148728 76831296 76499784 76153800 75794088 75422448 75041720 
3013.481 74655024 74265848 73877328 73492024 73112592 72741512 72381128 
3016.856 72034224 71702728 71387920 71089216 70804576 70530592 70262752 
3020.232 69996400 69727248 69451432 69165440 68866096 68549920 68213584 
3023.607 67854032 67469000 67057164 66618912 66155480 65669024 65161824 
3026.982 64636380 64094940 63539176 62971024 62391828 61802828 61204664 
3030.357 60597800 59982044 59357208 58723064 58079392 57426384 56764504 
3033.733 56094432 55417636 54736104 54052828 53371524 52696596 52032728 
3037.108 51383972 50753464 50143092 49553448 48983892 48433192 47899912 
3040.483 47382180 46878500 46387568 45908056 45439224 44981080 44533772 
3043.858 44097928 43674128 43262500 42862484 42473028 42092468 41719536 
3047.234 41353192 40993236 40640384 40295484 39959364 39632432 39314636 
3050.609 39005656 38704868 38412108 38126924 37849520 37579300 37315424 
3053.984 37056936 36802576 36551136 36302508 36056472 35814060 35575888 
3057.359 35342484 35114124 34891020 34672836 34460040 34253044 34052816 
3060.735 33859988 33675012 33497668 33327014 33162330 33002462 32846690 
3064.110 32694940 32547350 32404132 32265562 32131284 32000758 31873480 
3067.485 31748730 31625908 31504936 31385854 31268902 31154474 31043030 
3070.860 30935492 30832714 30736040 30646358 30565084 30493100 30431258 
3074.236 30380192 30340110 30310832 30291506 30280774 30276370 30275836 
3077.611 30276512 30276086 30272958 30266708 30257506 30246138 30233776 
3080.986 30221130 30208378 30194986 30179786 30161280 30137946 30108398 
3084.361 30071964 30028502 29978904 29924446 29866696 29807532 29747846 
3087.737 29688310 29628640 29568056 29505740 29441096 29374014 29304852 
3091.112 29234460 29163442 29092188 29020412 28947552 28872720 28795458 
3094.487 28715592 28633190 28549248 28464084 28377982 28291084 28202788 
3097.862 28112566 28019852 27924546 27826892 27727706 27628330 27530178 
3101.238 27435050 27344174 27258648 27178920 27104922 27036296 26972618 
3104.613 26913424 26859070 26809830 26766728 26730680 26702280 26681880 
3107.988 26669160 26663662 26664860 26672578 26686954 26708516 26738044 
3111.363 26776068 26823118 26878878 26942792 27013588 27089688 27168938 
3114.739 27248910 27326674 27399720 27465298 27521708 27567566 27602556 
3118.114 27626318 27639172 27640760 27630944 27609368 27575864 27530990 
3121.489 27476030 27413344 27345692 27276322 27207706 27141816 27079742 
3124.864 27021134 26965496 26911980 26859914 26809372 26760844 26715458 
3128.240 26674620 26639424 26610150 26586054 26565870 26547062 26527090 
3131.615 26503986 26476128 26443060 26405030 26362816 26317330 26269102 
3134.990 26218488 26165274 26109042 26049686 25986960 25921150 25852322 
3138.365 25780520 25705808 25628232 25547608 25464296 25378434 25291044 
3141.740 25203006 25115720 25030422 24948610 24871166 24799140 24732806 
3145.116 24671814 24615424 24562372 24511150 24461088 24411560 24363264 
3148.491 24317252 24275202 24238448 24208110 24184076 24165512 24151044 
3151.866 24138818 24127260 24115664 24103478 24090974 24078890 24067788 
3155.241 24057912 24049716 24043168 24038020 24034378 24032558 24032908 
3158.617 24036234 24042888 24053500 24067822 24085684 24106104 24128346 
3161.992 24151394 24174688 24198020 24221386 24244930 24268966 24293774 
3165.367 24319426 24345812 24372832 24400204 24427684 24454814 24481316 
3168.742 24506838 24531588 24555464 24579308 24603712 24629592 24657680 
3172.118 24688088 24720564 24754344 24788334 24821416 24852326 24880184 
3175.493 24904360 24924466 24940434 24952576 24961526 24968298 24974370 
3178.868 24980618 24988302 24997884 25009642 25023330 25038844 25055728 
3182.243 25074088 25093570 25114458 25136400 25159114 25182500 25206764 
3185.619 25232326 25260246 25291044 25325182 25362416 25401690 25441668 
3188.994 25480914 25518336 25553828 25587882 25621552 25656140 25693048 
3192.369 25732914 25776722 25824754 25877538 25935146 25997304 26063126 
3195.744 26131352 26200258 26268680 26335988 26402708 26470070 26540052 
3199.120 26614378 26694106 26779240 26868834 26961372 27054986 27148128 
3202.495 27239668 27328930 27415532 27499608 27581300 27661030 27739326 
3205.870 27816788 27893806 27970024 28044876 28116914 28184860 28247552 
3209.245 28304238 28354886 28400160 28441088 28478766 28514184 28548398 
3212.621 28582122 28616132 28651312 28687804 28726104 28765508 28805268 
3215.996 28844392 28881998 28917696 28951342 28983466 29014320 29044112 
3219.371 29073126 29100866 29127548 29153130 29178184 29203132 29228684 
3222.746 29255230 29283372 29313254 29345156 29379794 29417340 29458116 
3226.122 29502230 29549114 29598062 29648044 29698492 29749550 29801392 
3229.497 29854736 29910530 29969070 30030384 30094442 30160960 30229620 
3232.872 30300316 30373118 30447462 30523278 30599460 30675586 30751262 
3236.247 30826132 30900696 30975346 31050682 31126602 31203174 31279832 
3239.623 31355936 31430840 31503656 31573526 31639524 31700574 31755720 
3242.998 31804628 31847592 31885244 31918514 31948398 31975004 31997974 
3246.373 32016880 32030900 32040138 32045736 32049340 32053262 32059256 
3249.748 32068532 32081410 32097354 32115444 32135174 32156258 32178812 
3253.124 32203220 32229446 32257390 32286872 32317318 32348800 32381606 
3256.499 32416198 32453154 32492858 32535460 32580708 32627962 32676864 
3259.874 32726164 32774578 32821462 32865058 32904982 32941512 32975684 
3263.249 33009398 33044506 33082586 33123850 33167124 33210472 33251676 
3266.625 33289310 33323258 33354670 33385228 33416572 33449352 33482600 
3270.000 33514488 33542800 33565712 33582608 33594096 33601544 33606560 
3273.375 33610244 33613180 33615364 33616548 33616188 33614544 33611784 
3276.750 33608384 33605124 33602228 33599968 33598680 33598432 33599144 
3280.125 33600760 33602872 33604552 33605340 33604340 33601116 33595316 
3283.501 33587512 33577952 33567396 33556440 33545666 33535716 33526660 
3286.876 33518318 33510338 33501856 33491976 33480380 33467248 33453468 
3290.251 33440408 33429564 33421546 33416540 33413638 33411242 33407840 
3293.626 33402656 33395712 33387444 33378716 33369768 33360574 33349842 
3297.002 33336780 33321042 33303044 33283904 33265554 33249494 33236616 
3300.377 33226564 33218626 33211366 33204104 33196520 33188972 33182394 
3303.752 33177458 33174704 33173810 33174348 33175170 33175706 33175420 
3307.127 33173952 33171736 33169448 33167732 33167980 33171020 33177674 
3310.503 33187720 33200204 33213582 33226028 33236258 33243876 33249672 
3313.878 33255540 33263982 33277538 33297356 33323866 33356246 33393062 
3317.253 33432248 33472828 33513666 33554294 33594920 33635700 33676912 
3320.628 33718696 33760952 33803144 33844728 33884560 33922140 33957144 
3324.004 33989820 34021316 34052852 34085716 34120660 34157436 34195148 
3327.379 34232324 34267924 34300984 34331320 34359220 34384792 34407708 
3330.754 34427256 34442284 34451932 34456092 34454804 34449136 34440024 
3334.129 34427868 34412840 34394652 34372992 34348104 34320920 34292556 
3337.505 34264272 34236696 34209236 34180772 34149620 34114352 34074496 
3340.880 34030060 33981652 33930452 33876928 33821552 33764144 33704948 
3344.255 33643864 33581284 33516996 33450890 33382688 33311702 33237796 
3347.630 33161402 33083730 33006218 32930146 32855838 32782688 32709054 
3351.006 32632962 32552816 32467968 32379464 32288798 32198150 32109700 
3354.381 32024440 31943194 31865918 31792402 31722248 31655312 31590592 
3357.756 31527490 31464648 31400706 31334568 31265482 31193206 31118342 
3361.131 31041252 30962606 30882766 30802338 30721530 30641094 30561634 
3364.507 30484106 30409330 30337906 30270366 30206850 30147464 30091886 
3367.882 30039404 29988666 29937900 29885400 29829182 29768464 29703246 
3371.257 29634776 29564686 29494108 29424042 29354622 29284860 29213692 
3374.632 29140978 29066820 28992074 28918228 28846128 28776092 28707592 
3378.008 28639704 28571366 28502188 28432350 28362242 28292780 28224462 
3381.383 28156862 28089766 28022504 27954580 27885892 27816752 27747626 
3384.758 27678794 27610428 27542748 27475888 27410556 27347070 27286130 
3388.133 27227602 27170808 27114374 27056820 26996310 26932322 26864780 
3391.509 26794676 26723704 26653340 26584540 26518040 26453906 26391510 
3394.884 26330178 26269244 26208104 26146448 26084482 26022668 25961986 
3398.259 25903422 25847506 25794514 25743602 25693048 25640710 25584966 
3401.634 25524486 25459412 25390940 25320688 25250446 25181164 25112772 
3405.010 25044390 24974826 24902956 24828678 24752378 24675040 24597962 
3408.385 24521982 24447452 24374514 24302778 24232284 24162428 24093390 
3411.760 24025028 23957098 23889036 23820286 23750464 23679426 23607840 
3415.135 23536582 23466454 23398472 23332666 23268584 23205384 23141600 
3418.510 23076184 23008436 22938184 22865918 22792650 22719640 22647690 
3421.886 22577426 22508848 22441714 22375390 22309252 22242600 22175678 
3425.261 22108106 22040160 21971774 21903082 21833636 21763364 21691746 
3428.636 21618782 21545028 21471218 21398358 21327498 21259638 21195374 
3432.011 21134458 21076438 21019992 20963970 20907330 20848888 20788924 
3435.387 20727790 20666070 20605402 20546342 20489930 20435920 20384348 
3438.762 20333720 20283064 20230468 20174826 20114956 20050236 19981120 
3442.137 19908962 19835324 19761942 19690202 19620452 19551508 19481328 
3445.512 19407798 19329222 19245292 19157534 19068792 18982766 18902434 
3448.888 18829278 18763194 18702066 18642986 18583014 18520218 18453420 
3452.263 18383174 18309830 18234148 18156926 18078162 17998272 17917430 
3455.638 17836638 17756760 17679102 17604188 17532078 17461948 17392620 
3459.013 17322788 17250726 17175712 17097298 17016004 16932554 16848192 
3462.389 16764602 16683025 16604461 16529247 16456490 16384881 16313009 
3465.764 16239189 16162835 16083881 16003052 15921412 15839754 15758729 
3469.139 15678270 15598271 15518630 15439589 15361590 15285151 15210475 
3472.514 15137527 15065449 14993212 14919992 14845207 14768790 14691700 
3475.890 14614386 14537803 14462261 14388275 14315500 14243969 14172792 
3479.265 14101730 14030064 13957211 13883310 13809320 13736402 13666574 
3482.640 13601577 13541684 13486139 13432412 13376780 13315857 13246678 
3486.015 13168731 13083047 12992293 12899885 12809408 12722839 12641404 
3489.391 12565305 12494437 12427979 12365486 12306206 12249252 12193292 
3492.766 12136932 12078705 12017659 11953487 11886601 11817954 11748639 
3496.141 11679844 11612217 11546778 11484072 11424776 11369229 11317193 
3499.516 11267780 11219394 11169619 11116655 11058871 10996132 10929631 
3502.892 10861781 10796014 10735352 10682236 10637718 10600946 10569778 
3506.267 10540785 10510233 10474592 10431079 10378544 10317702 10250694 
3509.642 10180915 10111588 10045595 9984224 9927675 9874997 9825410 9777930 
3513.500 9732928 9690438 9650934 9614448 9579964 9545754 9510530 9472600 
3517.357 9431795 9388827 9345694 9304156 9266040 9231483 9199432 9168264 
3521.214 9135135 9098049 9055519 9007684 8955828 8902219 8849159 8798572 
3525.072 8751441 8706985 8663717 8619472 8571955 8519509 8461528 8398421 
3528.929 8331135 8262136 8193115 8125522 8060775 7999043 7940592 7884511 
3532.787 7830225 7776147 7722010 7667104 7611698 7556637 7502999 7451693 
3536.644 7403427 7358030 7314593 7271901 7229112 7185587 7141796 7098751 
3540.501 7057394 7019071 6983647 6950281 6917253 6882242 6842925 6797654 
3544.359 6745557 6687139 6623448 6557445 6491822 6429942 6373954 6325404 
3548.216 6283751 6247177 6212691 6177366 6138180 6093890 6044565 5991684 
3552.074 5937668 5884834 5834894 5788184 5744870 5704111 5665639 5629185 
3555.931 5595016 5563198 5533397 5505041 5476854 5447830 5417098 5384555 
3559.789 5350674 5316660 5284495 5255853 5232243 5214872 5203638 5196730 
3563.646 5191533 5183452 5166384 5135571 5086723 5018841 4935186 4842667 
3567.503 4749933 4665525 4594964 4540016 4498834 4467700 4442225 4419128 
3571.361 4396401 4372804 4348707 4324210 4299646 4275219 4250792 4226099 
3575.218 4201375 4176451 4150859 4124432 4096669 4067103 4036032 4004062 
3579.076 3971826 3940495 3910638 3882554 3856178 3831775 3809713 3791296 
3582.933 3778227 3771241 3770406 3773882 3777157 3774283 3758675 3724786 
3586.791 3670750 3599113 3516967 3434635 3362036 3306375 3270987 3253760 
3590.648 3249721 3252191 3254628 3251390 3239406 3217842 3187867 3152020 
3594.505 3113607 3075531 3040060 3008330 2981372 2959220 2941306 2926895 
3598.363 2914586 2902711 2889836 2875293 2858950 2842240 2826599 2813926 
3602.220 2805622 2802153 2803487 2808923 2817994 2829067 2840473 2848944 
3606.078 2850278 2839639 2813225 2769540 2710922 2643610 2576309 2517517 
3609.935 2472129 2440473 2418748 2400323 2378501 2350050 2314838 2276899 
3613.792 2242126 2216149 2202295 2200330 2207290 2218014 2227239 2229204 
3617.650 2219579 2195701 2157572 2107626 2051694 1997200 1951333 1919183 
3621.507 1902709 1900213 1908167 1922111 1938919 1958023 1981023 2010481 
3625.365 2047599 2089647 2129435 2154675 2150712 2106261 2018537 1898682 
3629.222 1768846 1655413 1576426 1536655 1529174 1540679 1557438 1568977 
3633.080 1569908 1560531 1545267 1529739 1518600 1514111 1515209 1519498 
3636.937 1523920 1527245 1528908 1529772 1530703 1531668 1531734 1529074 
3640.794 1522258 1510687 1495891 1481062 1470822 1469426 1480530 1505300 
3644.652 1542208 1587234 1634825 1677365 1707269 1717880 1703643 1662697 
3648.509 1596013 1508492 1408889 1308477 1219718 1153833 1117590 1112906 
3652.367 1136326 1179581 1231447 1280329 1314924 1326258 1310870 1271190 
3656.224 1216030 1157289 1106262 1069956 1049894 1043384 1044812 1048930 
3660.082 1051056 1048698 1041324 1030165 1017445 1005887 998415 996987 
3663.939 1003429 1018574 1042055 1073377 1110414 1150279 1189748 1223506 
3667.796 1246400 1253511 1242679 1216960 1186326 1166890 1175428 1224436 
3671.654 1317583 1448947 1604826 1766251 1912959 2022798 2077828 2068639 
3675.511 1999796 1888599 1757069 1623849 1497753 1379570 1267302 1159282 
3679.369 1057267 965837 889864 832727 794518 772444 762818 762851 772311 
3683.708 792726 826220 873064 929974 990112 1044845 1083707 1099020 1087294 
3688.048 1050857 997950 938175 881696 834055 796344 767532 745824 730026 
3692.387 719870 715522 716617 722160 729959 737925 744430 748944 751998 
3696.727 755350 760561 768727 779647 791365 800991 805140 800991 787248 
3701.067 764511 736132 706528 681007 663684 657213 662191 677556 701251 
3705.406 730922 764378 799829 836644 874259 912010 949333 983670 1011433 
3709.746 1028305 1029567 1011799 975301 924528 867885 815630 777357 758271 
3714.085 759068 775963 802584 831565 857028 875222 886112 891723 895575 
3718.425 900688 908988 919049 928446 933892 933028 925989 915032 903776 
3722.765 896106 894047 896537 900256 900289 891856 873130 845940 816394 
3727.104 793688 786087 799464 834752 887639 949764 1010437 1060356 1092576 
3731.444 1105465 1102575 1090882 1077197 1064276 1049495 1026844 990278 
3735.301 937677 873927 809854 758570 729561 725777 744629 779913 826121 
3739.641 879704 940101 1006950 1078824 1149880 1209119 1241117 1231580 
3743.498 1173036 1074506 961553 870275 828278 842819 902414 985961 1071384 
3747.838 1138983 1177488 1182538 1157986 1112507 1055374 993765 931667 
3751.695 871968 819415 780576 762387 769291 800526 850056 908424 966268 
3756.035 1014987 1049030 1067331 1070852 1062183 1044214 1019670 991175 
3759.892 963114 941131 930704 935652 955642 986393 1020666 1050259 1069192 
3764.232 1075868 1073709 1068527 1068195 1077197 1094735 1115630 1132073 
3768.089 1136392 1124333 1095831 1055839 1012629 974869 948038 934788 933925 
3772.429 942492 956439 972843 989979 1007481 1026179 1047037 1070620 1096429 
3776.769 1121543 1142073 1153601 1152604 1138385 1114035 1086364 1062847 
3780.626 1049562 1048864 1058463 1073011 1085302 1089819 1083740 1068195 
3784.483 1046738 1024519 1006086 993035 985064 980282 976829 973408 970619 
3788.823 969456 971249 976895 986459 999577 1016149 1036010 1059194 1085368 
3793.163 1112540 1137455 1156192 1165129 1162239 1149182 1131044 1115364 
3797.020 1109683 1118553 1140844 1170877 1198187 1209949 1195729 1149515 
3800.877 1075635 988286 910250 862606 856962 892553 957269 1033586 1101279 
3805.217 1142837 1148186 1116360 1057533 990743 936747 909354 912674 941197 
3809.557 985330 1035645 1085833 1134133 1181807 1230949 1281625 1330080 
3813.414 1368801 1388445 1380833 1343673 1283320 1216163 1162770 1139747 
3817.271 1154664 1202241 1268598 1334533 1380368 1390606 1356968 1282688 
3821.129 1183867 1085003 1008610 968460 965438 990942 1031194 1072513 
3824.986 1105232 1124865 1133037 1135694 1141741 1157887 1186990 1226928 
3828.844 1272353 1316221 1352182 1376945 1389875 1394163 1394296 1395858 
3832.701 1402905 1417399 1438508 1463275 1486282 1501510 1502740 1485418 
3836.559 1448282 1394828 1332772 1273184 1226696 1200114 1194732 1206593 
3840.416 1228490 1252182 1270891 1280628 1279598 1269462 1252980 1234239 
3844.273 1217193 1205431 1201178 1205962 1219785 1241881 1271522 1308244 
3848.131 1352448 1405664 1468961 1541710 1620357 1695760 1754274 1778694 
3851.988 1751945 1665125 1524751 1356902 1198387 1082079 1023854 1019504 
3855.846 1053348 1106727 1164398 1217160 1260855 1295881 1324496 1349390 
3859.703 1372424 1394196 1414473 1432757 1448182 1459585 1465237 1463142 
3863.561 1452471 1434918 1415903 1403470 1406163 1428801 1470257 1522391 
3867.418 1571571 1603064 1604494 1571039 1508758 1434353 1369100 1329049 
3871.275 1319511 1334002 1358929 1379803 1386218 1376014 1354708 1333769 
3875.133 1324829 1336793 1371294 1423814 1485385 1545966 1596246 1628672 
3878.990 1639614 1629670 1604726 1573100 1545534 1530770 1533064 1550455 
3882.848 1575994 1598674 1605990 1588065 1542109 1473981 1399348 1337259 
3886.705 1304954 1310039 1349889 1412844 1483922 1547495 1590426 1605890 
3890.563 1593386 1559865 1516472 1475344 1446320 1434419 1440270 1461779 
3894.420 1495459 1537487 1583908 1631366 1676101 1714354 1742930 1759730 
3898.277 1763789 1756636 1741400 1722072 1702446 1684982 1669715 1655047 
3902.135 1638217 1616100 1587433 1552783 1514843 1477605 1445556 1421953 
3905.992 1408490 1405099 1411083 1424513 1443727 1466833 1492001 1517736 
3909.850 1542242 1564621 1584507 1602531 1619792 1637851 1657541 1678696 
3913.707 1699618 1717847 1729989 1733881 1728492 1714720 1695560 1674538 
3917.564 1655213 1640013 1629902 1624880 1624548 1628572 1637253 1650424 
3921.422 1667786 1687710 1707901 1725032 1736177 1739603 1735478 1725731 
3925.279 1713689 1703277 1697223 1697356 1703510 1714687 1728525 1742963 
3929.137 1755439 1763689 1766251 1761926 1750515 1733116 1711660 1689207 
3932.994 1668717 1652652 1642541 1638417 1639381 1643905 1650490 1658306 
3936.852 1666921 1677066 1689040 1703211 1719311 1736277 1751912 1764721 
3940.709 1772539 1774269 1770177 1761726 1751313 1742265 1737075 1737474 
3944.566 1743196 1752544 1762591 1770609 1774102 1772173 1765220 1755339 
3948.424 1744593 1735511 1728958 1724899 1722338 1719943 1716284 1711360 
3952.281 1705340 1699252 1694296 1691568 1691402 1693764 1698587 1705539 
3956.139 1714354 1724833 1736909 1750349 1764554 1779060 1792934 1805244 
3959.996 1814926 1821049 1823045 1820882 1814860 1806109 1796560 1788009 
3963.854 1782154 1779659 1780257 1782686 1785148 1786046 1784616 1780856 
3967.711 1776199 1772306 1770742 1772239 1776831 1783252 1790139 1795961 
3971.568 1800386 1802982 1804179 1804678 1804579 1803847 1802482 1800453 
3975.426 1797991 1796128 1795728 1797691 1802283 1809037 1816956 1824576 
3979.283 1830465 1833659 1833859 1831264 1826372 1820283 1813662 1807174 
3983.141 1801584 1797392 1794897 1794398 1795662 1798257 1801850 1805477 
3986.998 1808804 1811599 1814028 1816390 1819518 1824143 1830299 1838251 
3990.855 1847535 1857285 1866802 1874921 1880945 1883906 1883440 1879314 
3994.713 1872159 1862875 1852759 1843608 1836887 1834125 1835722 1841579 
3998.570 1851062 1862576 1874755 1886036 1895188 
##END=
