
##TITLE=Z382_2_b
##JCAMP-DX=5.01  $$ Nicolet v. 1
##DATATYPE=INFRARED SPECTRUM
##ORIGIN=UniL
##OWNER=Nicolet
##LONGDATE=2011/09/09
##TIME=10:18:40
##SPECTROMETER/DATA SYSTEM=Nicolet iS5
##DATA PROCESSING=
Ratio against background
%Transmittance->Absorbance
Truncated
ElementMultiply or ElementDivide
##COMMENTS=
Number of sample scans: 32
Collection length: 51.17 sec
Sample gain: 2.0
Background collected on: Ven Sep 09 10:10:32 2011 (GMT+02:00);
Number of background scans: 32
Background gain: 2.0
Sample spacing:  1.000
Number of scan points: 12415
Resolution points: 8192
Number of FFT points: 65536
Apodization: N-B fort;
Phase correction: Mertz;
Laser frequency: 15798.0 cm-1
Number of rejected sample scans: 0
Number of rejected background scans: 0
Bench serial number: ASB1000141;
##RESOLUTION=4.000
##XUNITS=1/CM
##YUNITS=ABSORBANCE
##FIRSTX=649.893372
##LASTX=4000.122314
##FIRSTY=0.083719
##MAXX=4000.122314
##MINX=649.893372
##MAXY=0.216727
##MINY=0.001598
##XFACTOR=1.000000
##YFACTOR=1.000000E-009
##NPOINTS=6950
##DELTAX=0.482117
##ZPD=6100
##XYDATA=(X++(Y..Y))
649.893 83719064 83764224 83885592 84114520 84452744 84876904 85351976 
653.268 85851624 86365312 86895024 87445128 88009272 88566464 89090744 
656.643 89563808 89986720 90379920 90774840 91195584 91647288 92112824 
660.018 92561768 92969496 93326968 93646224 93953448 94275992 94631288 
663.393 95022168 95440688 95875560 96316496 96746896 97136880 97430944 
666.767 97540928 97376992 96890416 96119496 95181456 94214864 93314072 
670.142 92500096 91740512 90974536 90148168 89231592 88231776 87183936 
673.517 86136008 85123080 84154976 83217448 82284648 81338200 80376696 
676.892 79417400 78486296 77607528 76791352 76035832 75331368 74670928 
680.267 74053800 73486496 72975576 72522304 72119304 71753616 71411312 
683.642 71085784 70778760 70497856 70250016 70033776 69838568 69648824 
687.016 69451344 69242768 69032384 68837632 68676304 68557408 68475280 
690.391 68413872 68353368 68278096 68182032 68068224 67943408 67812424 
693.766 67675216 67527864 67368272 67200128 67034812 66887260 66768156 
697.141 66679636 66612728 66552936 66485628 66405468 66316984 66231764 
700.516 66160648 66106708 66062956 66016628 65956340 65879516 65794692 
703.890 65717936 65663820 65638112 65633604 65633916 65622696 65589980 
707.265 65537380 65476388 65420648 65378972 65352432 65336452 65328212 
710.640 65332636 65366188 65451928 65612720 65863244 66204288 66624008 
714.015 67100280 67606408 68111288 68576768 68960960 69218560 69313152 
717.390 69236632 69024032 68760152 68557136 68534712 68770008 69262472 
720.765 69919360 70569224 71012776 71057488 70586448 69580256 68115816 
724.139 66334896 64404928 62488772 60702996 59117652 57758784 56618772 
727.514 55671804 54885344 54229196 53675824 53202840 52794020 52437356 
730.889 52125144 51851612 51610976 51395908 51198204 51010876 50829852 
734.264 50655676 50492700 50345296 50214460 50095976 49982392 49865080 
737.639 49739444 49607528 49476760 49357288 49256216 49174908 49108712 
741.013 49050176 48992716 48934264 48876820 48824468 48779388 48739424 
744.388 48697980 48648280 48586504 48514804 48441084 48374852 48324516 
747.763 48292708 48277380 48273824 48278300 48290340 48311708 48344148 
751.138 48385812 48429412 48465712 48486428 48489128 48479572 48469716 
754.513 48472348 48494612 48535296 48585020 48631344 48663624 48678708 
757.888 48681376 48681600 48689380 48711476 48750248 48805600 48877860 
761.262 48969684 49085120 49227900 49397232 49588248 49794212 50011464 
764.637 50243996 50506508 50821244 51211364 51696808 52288100 52987620 
768.012 53794016 54709984 55749556 56947380 58360972 60073200 62200876 
771.387 64877688 68244136 72420280 77453568 83270064 89612720 96052808 
774.762 101964456 106609240 109324064 109607488 107292168 102578048 96000976 
778.136 88297424 80210184 72434840 65470344 59590772 54889140 51299320 
781.511 48666140 46790844 45488084 44602428 44011016 43632364 43410260 
784.886 43306356 43296360 43362952 43493024 43677832 43909676 44183572 
788.261 44496404 44847256 45237120 45668296 46143012 46663880 47233392 
791.636 47854888 48534220 49278336 50096236 50995896 51983880 53065116 
795.010 54244360 55528736 56930344 58466648 60161292 62043064 64142904 
798.385 66497408 69151064 72156120 75579440 79498360 83987576 89111608 
801.760 94898928 101324752 108282784 115576544 122924976 129939064 136179952 
805.135 141200176 144578384 146029968 145450464 142954576 138849120 
808.028 133593664 127735792 121786128 116208608 111364048 107466640 
810.920 104607272 102740344 101710104 101257056 101057632 100785128 
813.813 100117568 98811712 96734976 93866328 90295112 86185944 81755688 
817.188 77219656 72770784 68571616 64728716 61303936 58318184 55758368 
820.563 53588660 51759440 50219632 48918876 47813900 46872668 46070904 
823.938 45391624 44823492 44357592 43986816 43706448 43513864 43409344 
827.312 43394920 43474416 43651344 43928044 44304344 44777168 45339024 
830.687 45976820 46673028 47404536 48145352 48872372 49566260 50215580 
834.062 50814244 51356264 51828092 52203984 52440764 52485440 52289108 
837.437 51815884 51059136 50044624 48830064 47491464 46108928 44760456 
840.812 43504964 42381948 41412564 40601196 39940332 39414724 39006420 
844.186 38696284 38466556 38304216 38199640 38146788 38141612 38179236 
847.561 38252540 38353436 38472784 38604364 38746168 38900588 39072756 
850.936 39267880 39488928 39735904 40006812 40299848 40615496 40956932 
854.311 41328884 41735220 42177244 42653456 43161224 43699376 44270444 
857.686 44881868 45544272 46269896 47069924 47955488 48939752 50039716 
861.060 51282652 52705052 54350396 56270764 58517640 61136420 64161688 
864.435 67602616 71431112 75559296 79836544 84032776 87840744 90936376 
867.810 92998600 93779464 93167744 91202856 88078664 84084968 79582408 
871.185 74928160 70413328 66269084 62632276 59555656 57031480 55008040 
874.560 53413376 52165424 51190636 50427384 49825576 49351052 48980180 
877.935 48697092 48491760 48356556 48285264 48272824 48314744 48407076 
881.309 48546668 48729636 48953180 49215024 49514640 49853892 50236484 
884.684 50667068 51148888 51682624 52265976 52894908 53566168 54279128 
888.059 55038880 55856144 56749588 57743228 58868708 60163348 61663452 
891.434 63398936 65379128 67580704 69933960 72319256 74586840 76560408 
894.809 78077600 79024320 79342928 79046104 78201280 76916288 75310320 
898.183 73495792 71578816 69646144 67771216 66018632 64436748 63059552 
901.558 61903688 60967708 60236080 59685344 59292404 59037060 58904412 
904.933 58884036 58965548 59138192 59391436 59716520 60109804 60572924 
908.308 61111972 61734032 62444200 63245944 64141868 65137380 66243960 
911.683 67478288 68860344 70409704 72140120 74058912 76167976 78465488 
915.058 80947776 83607424 86430920 89391792 92447824 95545712 98617984 
918.432 101590224 104385408 106909416 109052504 110689448 111675672 
921.325 111882824 111228592 109708744 107419192 104554232 101395544 98244544 
924.700 95400360 93122992 91590176 90910968 91122944 92204264 94082760 
928.075 96640464 99730200 103159312 106709504 110163992 113300880 115929240 
931.450 117902840 119109336 119481352 118992360 117657352 115539536 
934.342 112757912 109500152 106001232 102541168 99431992 96959216 95383856 
937.717 94913648 95672480 97705128 100956616 105277296 110393488 115913704 
941.092 121376984 126233296 129944112 132073344 132319080 130601032 
943.985 127058912 122037168 115996704 109432336 102826456 96547056 90847984 
947.359 85873272 81661272 78183072 75366328 73124120 71364600 70001464 
950.734 68964264 68191096 67631656 67248640 67011424 66897424 66890740 
954.109 66978024 67147920 67390248 67694816 68052256 68454720 68896344 
957.484 69372504 69879544 70412864 70967704 71537752 72117072 72701400 
960.859 73289064 73881096 74480232 75089496 75710688 76343960 76988088 
964.233 77641560 78304000 78975832 79658512 80352728 81057984 81772008 
967.608 82491584 83214480 83940224 84670848 85410368 86163272 86933928 
970.983 87725808 88542216 89387152 90266152 91185560 92151504 93168776 
974.358 94238736 95360240 96530424 97747128 99009024 100316216 101668272 
977.733 103062104 104490168 105941384 107401672 108856448 110294120 
980.625 111703144 113073496 114393560 115648712 116824408 117907184 
983.518 118889344 119770968 120558888 121264824 121900224 122474424 
986.411 122993536 123461968 123885032 124270520 124627832 124966216 
989.304 125291600 125604976 125904096 126185608 126449840 126702832 
992.196 126955272 127220320 127510112 127831888 128188464 128579304 
995.089 129003808 129462392 129956720 130487488 131051320 131640184 
997.982 132242832 132847088 133444384 134031952 134612000 135189344 
1000.874 135767680 136347872 136928944 137510592 138096960 138697696 
1003.767 139326352 139997520 140721888 141504592 142347552 143252160 
1006.660 144225664 145283856 146449456 147751552 149221376 150886512 
1009.552 152773728 154904800 157292000 159929168 162776256 165749632 
1012.445 168702320 171436944 173736128 175379344 176209472 176164144 
1015.338 175293408 173748480 171749248 169554432 167393296 165451360 
1018.231 163853872 162655248 161858864 161430288 161318096 161464736 
1021.123 161817936 162339312 163001904 163790336 164698128 165721536 
1024.016 166856160 168095280 169428432 170844592 172334864 173892320 
1026.909 175512832 177192592 178924416 180698208 182501328 184321072 
1029.802 186149152 187981872 189819312 191660928 193502224 195332928 
1032.695 197139248 198907712 200629712 202304304 203936384 205531504 
1035.588 207090656 208606528 210063872 211443200 212722432 213880048 
1038.481 214892880 215729392 216349296 216701856 216727232 216370256 
1041.374 215584592 214338608 212619264 210428576 207782496 204709088 
1044.267 201252160 197473232 193445152 189256272 184997312 180749040 
1047.160 176584288 172558768 168712032 165074368 161666656 158501568 
1050.053 155585008 152913120 150473168 148243760 146200336 144317344 
1052.947 142571696 140945504 139422800 137987952 136623728 135309680 
1055.840 134023520 132744696 131454736 130139008 128786904 127388936 
1058.733 125936552 124422944 122844112 121201920 119504784 117768544 
1061.626 116012976 114258272 112523864 110824992 109173432 107579320 
1064.519 106050592 104594488 103216632 101919584 100702352 99560904 98489776 
1067.894 97482984 96536584 95648448 94817592 94042600 93320856 92647352 
1071.269 92015920 91420624 90856488 90320808 89812576 89331096 88876096 
1074.645 88446712 88042464 87664416 87317208 87009136 86751528 86559024 
1078.020 86447616 86432952 86530312 86752872 87109792 87604056 88228848 
1081.395 88966040 89782992 90633240 91463808 92214464 92829608 93265448 
1084.770 93491192 93497152 93294032 92915328 92411832 91849848 91307232 
1088.146 90859096 90576384 90519360 90730536 91239152 92063224 93213488 
1091.521 94699480 96533440 98729440 101301944 104259016 107593584 111271744 
1094.896 115223400 119339112 123452152 127355888 130815520 133574296 
1097.789 135409904 136160592 135753824 134227024 131720184 128458456 
1100.682 124693480 120688400 116681608 112850368 109325296 106181856 
1103.575 103447488 101117856 99165912 97555032 96243288 95191520 94367264 
1106.950 93742296 93295472 93010136 92871176 92864696 92976480 93191776 
1110.326 93497152 93882040 94339520 94867800 95467480 96137560 96869384 
1113.701 97637168 98389272 99050104 99512688 99653376 99358504 98535504 
1117.076 97146736 95221600 92861120 90220264 87472720 84796104 82327344 
1120.451 80151600 78304920 76778424 75537216 74536840 73740384 73123760 
1123.827 72677904 72406768 72323752 72449136 72805456 73416608 74300480 
1127.202 75460064 76871912 78474976 80170616 81812568 83227072 84237920 
1130.577 84672544 84401544 83354200 81525128 78979888 75844312 72296944 
1133.952 68528888 64731440 61076920 57688700 54649556 51999228 49740816 
1137.328 47853852 46303664 45052860 44062644 43297056 42724780 42314812 
1140.703 42039176 41873780 41797272 41793552 41850976 41960480 42114044 
1144.078 42303928 42520972 42756844 43004840 43260560 43522468 43790768 
1147.453 44066460 44349956 44641168 44940512 45248920 45569180 45904888 
1150.829 46258692 46631304 47020704 47422424 47831104 48242500 48654428 
1154.204 49066756 49480288 49894292 50306348 50711568 51104196 51477964 
1157.579 51828016 52149992 52439340 52690200 52894680 53043064 53126224 
1160.954 53136224 53067772 52918224 52686164 52370592 51970392 51484460 
1164.330 50913220 50259696 49530312 48734380 47882488 46985884 46054916 
1167.705 45098588 44126608 43148272 42174248 41216184 40284508 39388312 
1171.080 38533572 37722972 36957176 36235728 35559096 34928648 34347208 
1174.455 33817688 33342258 32921318 32553814 32237228 31968694 31745702 
1177.831 31565152 31424108 31319040 31246292 31203354 31189966 31209120 
1181.206 31266764 31370930 31530484 31752334 32042346 32404918 32843724 
1184.581 33363008 33967500 34661032 35447052 36328232 37308636 38397340 
1187.956 39611088 40974848 42521776 44284240 46285048 48526884 50984456 
1191.332 53600844 56285136 58930064 61418996 63639180 65507212 66974500 
1194.707 68039384 68745624 69181376 69466824 69728032 70095752 70680288 
1198.082 71554944 72754248 74261840 76014480 77897232 79759976 81435032 
1201.457 82739296 83512312 83630880 83017312 81654344 79579264 76879464 
1204.833 73671568 70096888 66310808 62457016 58672656 55073744 51741036 
1208.208 48727820 46054840 43715572 41683464 39920604 38387568 37045864 
1211.583 35865088 34824276 33908204 33108332 32419446 31838428 31363666 
1214.958 30994454 30730634 30571304 30513964 30553422 30682520 30892764 
1218.333 31176082 31526886 31942158 32420770 32962282 33564708 34224148 
1221.709 34935328 35692172 36489504 37323692 38190780 39086172 40002740 
1225.084 40931192 41862140 42788724 43709380 44629304 45559064 46513824 
1228.459 47508948 48559156 49677992 50876784 52166732 53557960 55058588 
1231.834 56673740 58404104 60246928 62197240 64250580 66405588 68663424 
1235.210 71027016 73498504 76076968 78758024 81534160 84394152 87322592 
1238.585 90295808 93272712 96194200 98976272 101511104 103687048 105393008 
1241.960 106538688 107074312 106995928 106355032 105248928 103824424 
1244.853 102257000 100722072 99396832 98428752 97923976 97955200 98555664 
1248.229 99730576 101467152 103744384 106537288 109812832 113527352 
1251.122 117610520 121949848 126395984 130748096 134758256 138168864 
1254.015 140705488 142113600 142202544 140852704 138049920 133883464 
1256.908 128542632 122283648 115382840 108134040 100801464 93606392 86740240 
1260.283 80341416 74501240 69271216 64659916 60642984 57169976 54177468 
1263.658 51594072 49348044 47378448 45633000 44071740 42669216 41410232 
1267.033 40289816 39311076 38484184 37824828 37351064 37083352 37038536 
1270.409 37226248 37643792 38272332 39074752 39991516 40948268 41858272 
1273.784 42624072 43157420 43383092 43251004 42748144 41899212 40765308 
1277.159 39426588 37976392 36503992 35077412 33746556 32537640 31457412 
1280.534 30500386 29654926 28907602 28245288 27656334 27130668 26658942 
1283.910 26234082 25851444 25508920 25206062 24942890 24718530 24530432 
1287.285 24374970 24248470 24148802 24075248 24028006 24006888 24009130 
1290.660 24029896 24063410 24103756 24147576 24194692 24247594 24309298 
1294.035 24381838 24465786 24560022 24663888 24778300 24906606 25053060 
1297.411 25222002 25415602 25633150 25872226 26129874 26405030 26698298 
1300.786 27012072 27347914 27705632 28082872 28475476 28880016 29295104 
1304.161 29722016 30163234 30620578 31093072 31577054 32067284 32558494 
1307.536 33047974 33535856 34023576 34512272 35000580 35484552 35959204 
1310.912 36420136 36866200 37300080 37727452 38156120 38593392 39047016 
1314.287 39524672 40033408 40578680 41159716 41765244 42367156 42921624 
1317.662 43374780 43667316 43752252 43604156 43223480 42636204 41886040 
1321.037 41026448 40106440 39168296 38245560 37361752 36535640 35783012 
1324.413 35115132 34540396 34062028 33678092 33383262 33170626 33033672 
1327.788 32966140 32961852 33013974 33113014 33249206 33413068 33596964 
1331.163 33796124 34007448 34227164 34449744 34667060 34868720 35045836 
1334.538 35192376 35306288 35389140 35443960 35472976 35476068 35451728 
1337.914 35398416 35317612 35214580 35098388 34978568 34863408 34757256 
1341.289 34660244 34570964 34488128 34412764 34348424 34299872 34271832 
1344.664 34268140 34291624 34345236 34433784 34563396 34741352 34974368 
1348.039 35266648 35619764 36033900 36509184 37047124 37649652 38317752 
1351.415 39047852 39831076 40653772 41498736 42349440 43191784 44011600 
1354.790 44793404 45515792 46148576 46657348 47007376 47170856 47136584 
1358.165 46911864 46525332 46019032 45447908 44872092 44348012 43932440 
1361.540 43676804 43623940 43809352 44254264 44963260 45925256 47114348 
1364.916 48493388 50009676 51596868 53171084 54624908 55849512 56744228 
1368.291 57238808 57315404 57009340 56402648 55595540 54695252 53795816 
1371.666 52963816 52246620 51669936 51241264 50950736 50769028 50649420 
1375.041 50524856 50322304 49975696 49432724 48670072 47696472 46554468 
1378.417 45310156 44044088 42839116 41759952 40853720 40150052 39664704 
1381.792 39407792 39386716 39607204 40076864 40810548 41835176 43195332 
1385.167 44945916 47132848 49762476 52766484 55988840 59182084 62065692 
1388.542 64382868 65929652 66597588 66364428 65283648 63460744 61035848 
1391.917 58168864 55006648 51697520 48391448 45229912 42354812 39881160 
1395.293 37871028 36324012 35182960 34361804 33764176 33309698 32946158 
1398.668 32646428 32407024 32235942 32141882 32125290 32177706 32283158 
1402.043 32424662 32587782 32763894 32952878 33162654 33407662 33703620 
1405.418 34065860 34506208 35031112 35643540 36341884 37119192 37959108 
1408.794 38832792 39700644 40510616 41211084 41763380 42148400 42373624 
1412.169 42467112 42470400 42423304 42357624 42294180 42242648 42206968 
1415.544 42188748 42189588 42211060 42254296 42320400 42413696 42545344 
1418.919 42734176 43004184 43373388 43844536 44403868 45024740 45677680 
1422.295 46335880 46984000 47621480 48260084 48917352 49606892 50331084 
1425.670 51078220 51827568 52555176 53243408 53881820 54468960 55010112 
1429.045 55517556 56010288 56513508 57063292 57702964 58473736 59411836 
1432.420 60537156 61853752 63354576 65032840 66892320 68944768 71204328 
1435.796 73666536 76287992 78981520 81639312 84167808 86509976 88640056 
1439.171 90540912 92189392 93539360 94527264 95092568 95186240 94789528 
1442.546 93916960 92613720 90945936 88986904 86815664 84500112 82088392 
1445.921 79612336 77089728 74541200 72012136 69579712 67347136 65425076 
1449.297 63896820 62807040 62157900 61915840 62017800 62374388 62883468 
1452.672 63424856 63873412 64114952 64034304 63525328 62501244 60922760 
1456.047 58850912 56475204 54102404 52033624 50449604 49381160 48755100 
1459.422 48468236 48430040 48579572 48875824 49284832 49773996 50304376 
1462.798 50831416 51315092 51722336 52038968 52273452 52457400 52634616 
1466.173 52845920 53125808 53495068 53962512 54526996 55179040 55902608 
1469.548 56670452 57445484 58176512 58791612 59208436 59349380 59165036 
1472.923 58657032 57874648 56894004 55787192 54614876 53427392 52269416 
1476.299 51192312 50248908 49481036 48916648 48562120 48407296 48434452 
1479.674 48628080 48980884 49496480 50186048 51062528 52134564 53401948 
1483.049 54856128 56484788 58280368 60245252 62395884 64761096 67374496 
1486.424 70262984 73437760 76888288 80587264 84502656 88605432 92875320 
1489.800 97289432 101815440 106397616 110959560 115415000 119684136 
1492.693 123702440 127402184 130715264 133559376 135827248 137417616 
1495.586 138263024 138374112 137850128 136868816 135638928 134334896 
1498.479 133086680 131977696 131056768 130363792 129932848 129787192 
1501.372 129933120 130347144 130974648 131716056 132428288 132921728 
1504.265 132923040 132089288 130037848 126438584 121209192 114641216 
1507.158 107331712 99901528 92747224 85979432 79527808 73269184 67122320 
1510.533 61078636 55221520 49695340 44641940 40180800 36363248 33170342 
1513.908 30537068 28373418 26589928 25101960 23842478 22765554 21842660 
1517.284 21064858 20432550 19943376 19584158 19326278 19126232 18940470 
1520.659 18737870 18518868 18316742 18182180 18153228 18235806 18407266 
1524.034 18629772 18870318 19109230 19348794 19608076 19913332 20281952 
1527.409 20715624 21202194 21724906 22272420 22843566 23446660 24093494 
1530.785 24791842 25541740 26334264 27154794 27989848 28831822 29681816 
1534.160 30543360 31417872 32297686 33167228 34002328 34776064 35464456 
1537.535 36042684 36491020 36794500 36944440 36937836 36778952 36485364 
1540.910 36087436 35623396 35128600 34622348 34103456 33551320 32940370 
1544.286 32253608 31497278 30702114 29912910 29168296 28481562 27839680 
1547.661 27209858 26557698 25862944 25132818 24399748 23709486 23097046 
1551.036 22572052 22118914 21708292 21314238 20925304 20550686 20213736 
1554.411 19938864 19735730 19594418 19485484 19369340 19198294 18920430 
1557.787 18489964 17883384 17128110 16310429 15541776 14903395 14420438 
1561.162 14075650 13831040 13645853 13483371 13317190 13135568 12942894 
1564.537 12757983 12605621 12506032 12464771 12471693 12505419 12544160 
1567.912 12571820 12583894 12588362 12601563 12641473 12719120 12839030 
1571.288 13000862 13202989 13444682 13724911 14040775 14384850 14746851 
1574.663 15117079 15491880 15878657 16294708 16762536 17295306 17894262 
1578.038 18552272 19260184 20012104 20806860 21645912 22527414 23440680 
1581.413 24366384 25273696 26126248 26889384 27529826 28021090 28344804 
1584.789 28489700 28453754 28243876 27877024 27378510 26780402 26121500 
1588.164 25438684 24762760 24113074 23494050 22898330 22311622 21721250 
1591.539 21119570 20505874 19883954 19259044 18635964 18019962 17420110 
1594.914 16852082 16335612 15892781 15538994 15278355 15103185 14998357 
1598.290 14949484 14948010 14994961 15097730 15264559 15498680 15797522 
1601.665 16154960 16567660 17040436 17588040 18230036 18986782 19872230 
1605.040 20892066 22045356 23327700 24734840 26259458 27887162 29592848 
1608.415 31335246 33062276 34720140 36258780 37645528 38868736 39938332 
1611.791 40878804 41719904 42485384 43184208 43806676 44325076 44700584 
1615.166 44888740 44851632 44570268 44050840 43320228 42411508 41349764 
1618.541 40145656 38799748 37308564 35669364 33881804 31955532 29911100 
1621.916 27785278 25642256 23564426 21639816 19942090 18509464 17341754 
1625.292 16407419 15660029 15050596 14537529 14094919 13710309 13383340 
1628.667 13119347 12923198 12795280 12730243 12718710 12748838 12808725 
1632.042 12884969 12963240 13027458 13058086 13035892 12946615 12789547 
1635.417 12582666 12360986 12163918 12017216 11927127 11882788 11865523 
1638.792 11855681 11837907 11804847 11756741 11699994 11643358 11594418 
1642.168 11556408 11526704 11498021 11459883 11401474 11312091 11184171 
1645.543 11015333 10811334 10587942 10368872 10181323 10046579 9975036 
1648.918 9965238 10005584 10076658 10151067 10196926 10174979 10046918 
1652.293 9794637 9444459 9071252 8758000 8552422 8450481 8420717 8426832 
1656.151 8442237 8451561 8448048 8432102 8406934 8376936 8344611 8310025 
1660.008 8270443 8220769 8155738 8070801 7964720 7841830 7712195 7589140 
1663.866 7486278 7412931 7371207 7356682 7359816 7368376 7369387 7351728 
1667.723 7308022 7236086 7139506 7027288 6911968 6806270 6720755 6662072 
1671.581 6631186 6623650 6629268 6634315 6621968 6577965 6496363 6384580 
1675.438 6263514 6157873 6087203 6056324 6057366 6075006 6094831 6108843 
1679.295 6116740 6126587 6147758 6186609 6240387 6295988 6331288 6322277 
1683.153 6251211 6119294 5951809 5791172 5675140 5617940 5612503 5640094 
1687.010 5682659 5725598 5760348 5783382 5794362 5795840 5792415 5791240 
1690.868 5800071 5825928 5872004 5936257 6010061 6078837 6125545 6136130 
1694.725 6106021 6046178 5983823 5951037 5966657 6029950 6121041 6211413 
1698.583 6268825 6266203 6193196 6064993 5922317 5809675 5755043 5757997 
1702.440 5800642 5858100 5908109 5934846 5929506 5892726 5833752 5767399 
1706.297 5707065 5661846 5633884 5619887 5614550 5613073 5612603 5613107 
1710.155 5616329 5624284 5638416 5658422 5682760 5709617 5737718 5766694 
1714.012 5796814 5827741 5856589 5877176 5881005 5860115 5812495 5744870 
1717.870 5672890 5616698 5590820 5600855 5642477 5705454 5778077 5850275 
1721.727 5916171 5973981 6025683 6074838 6125545 6180794 6241967 6309065 
1725.584 6381352 6457484 6535144 6610731 6680276 6739230 6785471 6819868 
1729.442 6846594 6871099 6897525 6924525 6944321 6941426 6895640 6790014 
1733.299 6619546 6401830 6174442 5982580 5855984 5798862 5795605 5821327 
1737.157 5852223 5867671 5854708 5809406 5737046 5650030 5563869 5491014 
1741.014 5438000 5404215 5385495 5376403 5371975 5369459 5368084 5368620 
1744.872 5372277 5380160 5392238 5407603 5424612 5441489 5456118 5466955 
1748.729 5471921 5468533 5454306 5427666 5389487 5344904 5302472 5271683 
1752.586 5259441 5267658 5292209 5323637 5349802 5359160 5344602 5305726 
1756.444 5250219 5191231 5142075 5110056 5095205 5090411 5085617 5070632 
1760.301 5039423 4991289 4931700 4869606 4814791 4775326 4754824 4753384 
1764.159 4767889 4793584 4824105 4852450 4871985 4878083 4870176 4852484 
1768.016 4833218 4820855 4820185 4829298 4839517 4838713 4814858 4761390 
1771.874 4681836 4589740 4502953 4435564 4393221 4372637 4365575 4364102 
1775.731 4363634 4363868 4367349 4376352 4391012 4407882 4421404 4426459 
1779.588 4420601 4405739 4387565 4372804 4365776 4367516 4374712 4382611 
1783.446 4386627 4384452 4376753 4366646 4358011 4354464 4358580 4371532 
1787.303 4394158 4426158 4466495 4512361 4557929 4596303 4619075 4620012 
1791.161 4597040 4554179 4501011 4449724 4410860 4389640 4386259 4396468 
1795.018 4414944 4437338 4460469 4482397 4501747 4517182 4526757 4529000 
1798.875 4523007 4508912 4488490 4464888 4440886 4419463 4402627 4391113 
1802.733 4385322 4385221 4390778 4401421 4416551 4435296 4456419 4478881 
1806.590 4501915 4524715 4546277 4565396 4580665 4590610 4594595 4593089 
1810.448 4587697 4580766 4575140 4572897 4574772 4580732 4589874 4601293 
1814.305 4614152 4628552 4644326 4661875 4681568 4703741 4728696 4756901 
1818.163 4788860 4824407 4863105 4903550 4944603 4985223 5024104 5060441 
1822.020 5092858 5119042 5136208 5142075 5136241 5121858 5105832 5097619 
1825.877 5104692 5130709 5172788 5222618 5268094 5297140 5301969 5281107 
1829.735 5240728 5191834 5146434 5112236 5091282 5080085 5073280 5065636 
1833.592 5054004 5037847 5018372 4997155 4975771 4954891 4935621 4919502 
1837.450 4909549 4909549 4922987 4952177 4996786 5054641 5121221 5190661 
1841.307 5256758 5312602 5351579 5369057 5364092 5341449 5311528 5288352 
1845.165 5283925 5304652 5349634 5412166 5482827 5552291 5615255 5671010 
1849.022 5722610 5774484 5830495 5891585 5955673 6019300 6079845 6136735 
1852.879 6191919 6248320 6307855 6370693 6434448 6495892 6553005 6606021 
1856.737 6658237 6714631 6779682 6855817 6942671 7038030 7138697 7242049 
1860.594 7346673 7451558 7555761 7657155 7753243 7841189 7919501 7987736 
1864.452 8046262 8095139 8131802 8151214 8146048 8108811 8035089 7925811 
1868.309 7789303 7639518 7492380 7361569 7254178 7170495 7105453 7052443 
1872.167 7004760 6957082 6906144 6849792 6786649 6716280 6639227 6556604 
1876.024 6469995 6381486 6292088 6201666 6109247 6014025 5916372 5818439 
1879.881 5723919 5637039 5560614 5495645 5440113 5390963 5345474 5302506 
1883.739 5263298 5230264 5206522 5193008 5189018 5191566 5196764 5201526 
1887.596 5203336 5201526 5196563 5190057 5184390 5182915 5189454 5206925 
1891.454 5236703 5277586 5325314 5373082 5413239 5440516 5452964 5452997 
1895.311 5446018 5438469 5434946 5436926 5442797 5450280 5457795 5465815 
1899.168 5476888 5493598 5517860 5548868 5584074 5620088 5655132 5689239 
1903.026 5724456 5763706 5807895 5856488 5906363 5954396 5998067 6036871 
1906.883 6072083 6105483 6137374 6166275 6189028 6202708 6206203 6201397 
1910.741 6192726 6185869 6186038 6195683 6215077 6242942 6277095 6314982 
1914.598 6353915 6390834 6420492 6437878 6437744 6418777 6383403 6339391 
1918.456 6296660 6263783 6244925 6238707 6239816 6241463 6238740 6230707 
1922.313 6219850 6211144 6208926 6214875 6228354 6246908 6268455 6292760 
1926.170 6321773 6357580 6401594 6453011 6508908 6565922 6621497 6675060 
1930.028 6727486 6780355 6833938 6886618 6935433 6977318 7010720 7036178 
1933.885 7056148 7073054 7088411 7101546 7110977 7115355 7115153 7113065 
1937.743 7113840 7121351 7137350 7160457 7186732 7212470 7234907 7254178 
1941.600 7273485 7296835 7326757 7363928 7406426 7451491 7497639 7545208 
1945.458 7595412 7650411 7710576 7774494 7839840 7904553 7968128 8032152 
1949.315 8099393 8171843 8250080 8332418 8416224 8499607 8582465 8665576 
1953.172 8750866 8838303 8925725 9008597 9082451 9144677 9196284 9240587 
1957.030 9282762 9325787 9370002 9412664 9449640 9478628 9501114 9522655 
1960.887 9550123 9588704 9639652 9698841 9759291 9813582 9857303 9889606 
1964.745 9912827 9931031 9947405 9963542 9979986 9997311 10017553 10043561 
1968.602 10078183 10122509 10174436 10230238 10286181 10339995 10393442 
1971.977 10450290 10514612 10588417 10670011 10754745 10838578 10920899 
1975.353 11006531 11102990 11219190 11357937 11515067 11677291 11826296 
1978.728 11945483 12023620 12056868 12048794 12008564 11946369 11873798 
1982.103 11800931 11735873 11685120 11653398 11641486 11647748 11667659 
1985.478 11694923 11725728 11758375 11794224 11837329 11891334 11957608 
1988.854 12034588 12117954 12203005 12287289 12371384 12458667 12553675 
1992.229 12659928 12777843 12905517 13039306 13175288 13311109 13445536 
1995.604 13577338 13705385 13828167 13944860 14055936 14163481 14270334 
1998.979 14379713 14491072 14601535 14704314 14792375 14860122 14906412 
2002.354 14934121 14950170 14963716 14982305 15012830 15060304 15127406 
2005.730 15215244 15324072 15451227 15591161 15736602 15879756 16015807 
2009.105 16143680 16267704 16394205 16529487 16675863 16831762 16992884 
2012.480 17154822 17316238 17480676 17654774 17844270 18051426 18270536 
2015.855 18490758 18699402 18884680 19041304 19170902 19279200 19373220 
2019.231 19458492 19537436 19610432 19677618 19738330 19792078 19837752 
2022.606 19870496 19883502 19867858 19816354 19725326 19597746 19440298 
2025.981 19263094 19076200 18887622 18703068 18525784 18357628 18200838 
2029.356 18057540 17928826 17814682 17712786 17619334 17531974 17449426 
2032.732 17372272 17303824 17247314 17204082 17173162 17151134 17134590 
2036.107 17122112 17113600 17110774 17116564 17130834 17151204 17173162 
2039.482 17191810 17203254 17206874 17205184 17200600 17196154 17192430 
2042.857 17187708 17178746 17161682 17132900 17090198 17032060 16958394 
2046.233 16871306 16774520 16674142 16577953 16491732 16417811 16352918 
2049.608 16287450 16207991 16102036 15961869 15785908 15581133 15358398 
2052.983 15130117 14906687 14692626 14488092 14289817 14093995 13898672 
2056.358 13705897 13520046 13346198 13188199 13047672 12923403 12812956 
2059.734 12713865 12623803 12540852 12461906 12383282 12300343 12208866 
2063.109 12107357 11997766 11885376 11777712 11681239 11599387 11532555 
2066.484 11477744 11429878 11384672 11338959 11290667 11238333 11179547 
2069.859 11111794 11032666 10941320 10838985 10729204 10616428 10504055 
2073.235 10393679 10284587 10174369 10061737 9947033 9833138 9724152 9623561 
2077.092 9532477 9449437 9370002 9289633 9205625 9117911 9028692 8942197 
2080.949 8861502 8788294 8722367 8661993 8605075 8550631 8498053 8447034 
2084.807 8397306 8348124 8298643 8248898 8199597 8151923 8106989 8063813 
2088.664 8019968 7971301 7913562 7844597 7765893 7681268 7597030 7518641 
2092.522 7449266 7388395 7333531 7281369 7230123 7180197 7133981 7094137 
2096.379 7062007 7036346 7013750 6991190 6966509 6940349 6915065 6893721 
2100.237 6878135 6868440 6862448 6857601 6851811 6844574 6836395 6827947 
2104.094 6819161 6808357 6793683 6774129 6750100 6724894 6702719 6687611 
2107.951 6681890 6684683 6693398 6704973 6717087 6729740 6744547 6763158 
2111.809 6785908 6811353 6835755 6854807 6865747 6867296 6861001 6849253 
2115.666 6835419 6821383 6808828 6798227 6789913 6784528 6781836 6780961 
2119.524 6779817 6774667 6762215 6740509 6709920 6673512 6636166 6602691 
2123.381 6576182 6556840 6542678 6530266 6516509 6499524 6479412 6456778 
2127.239 6432800 6407882 6382528 6356302 6330683 6307048 6287583 6274708 
2131.096 6269699 6273262 6285768 6308225 6341273 6387001 6445243 6513583 
2134.953 6586980 6657799 6719746 6768441 6804150 6831178 6856322 6884699 
2138.811 6919138 6958159 6997992 7033787 7063018 7084707 7100334 7111347 
2142.668 7117443 7116399 7105790 7083831 7050625 7009373 6963647 6917590 
2146.526 6872985 6830572 6789543 6751143 6718434 6696258 6688956 6697133 
2150.383 6716212 6737682 6750638 6746095 6720957 6676877 6620521 6558925 
2154.240 6497035 6437643 6382663 6335759 6307082 6311586 6366356 6484087 
2158.098 6665942 6897727 7152676 7400595 7613755 7777935 7889976 7957296 
2161.955 7991719 8005523 8008088 8005488 8000257 7992563 7980616 7961346 
2165.813 7929388 7880664 7812749 7727204 7630008 7531419 7442188 7370904 
2169.670 7321433 7291848 7275944 7265600 7255088 7242016 7228135 7218062 
2173.528 7217253 7230056 7257784 7299901 7353380 7413875 7475660 7533037 
2177.385 7580610 7616082 7640294 7657829 7677086 7706765 7752974 7816865 
2181.242 7893249 7973158 8046059 8103916 8144462 8170020 8185923 8197977 
2185.100 8209998 8222896 8234816 8244913 8252376 8258522 8265276 8272740 
2188.957 8278447 8278987 8269531 8247548 8213374 8170965 8126130 8084405 
2192.815 8048556 8017741 7988985 7957937 7921931 7881068 7837511 7795612 
2196.672 7759079 7730577 7710104 7697187 7689227 7683831 7679278 7673039 
2200.530 7663832 7651894 7638001 7625288 7617835 7619622 7633145 7658807 
2204.387 7693780 7733309 7773381 7810320 7843753 7874523 7904317 7933910 
2208.244 7962932 7989323 8011902 8030533 8047105 8064860 8087645 8116474 
2212.102 8150303 8185551 8217257 8241536 8256665 8262879 8262406 8257272 
2215.959 8248526 8235728 8217764 8193891 8164854 8132274 8098650 8065806 
2219.817 8034616 8003767 7972179 7938297 7902292 7865379 7829718 7796894 
2223.674 7767681 7741269 7716411 7691824 7667474 7644104 7623736 7607922 
2227.531 7597503 7592681 7592546 7596154 7602594 7611091 7621207 7632301 
2231.389 7642857 7651557 7657222 7659279 7658335 7655604 7652467 7649196 
2235.246 7646431 7643868 7641744 7641103 7643531 7651253 7665957 7688350 
2239.104 7717625 7752400 7790889 7831540 7873376 7915485 7956688 7995060 
2242.961 8028575 8055240 8074750 8088050 8097402 8105605 8113841 8121977 
2246.819 8127919 8128493 8121269 8106043 8084607 8060742 8038600 8021453 
2250.676 8010551 8005253 8003767 8004341 8005793 8008223 8012172 8018112 
2254.533 8025368 8033266 8040118 8044743 8046430 8045283 8041232 8034009 
2258.391 8022769 8006063 7982809 7952639 7916194 7875771 7834407 7795443 
2262.248 7761542 7735265 7717828 7709733 7710273 7717693 7729127 7740932 
2266.106 7749027 7750984 7745418 7733309 7717052 7700222 7685517 7674691 
2269.963 7667677 7663394 7660730 7658942 7658538 7660696 7666968 7678266 
2273.821 7694455 7714590 7737188 7760395 7782894 7803843 7822532 7838659 
2277.678 7852019 7862984 7872094 7880698 7890482 7902663 7917477 7934585 
2281.535 7952302 7968602 7981628 7989896 7993508 7991787 7985475 7974135 
2285.393 7957700 7936002 7909681 7880191 7849860 7821318 7797400 7779521 
2289.250 7768186 7763228 7762756 7765758 7770615 7776012 7780938 7784682 
2293.108 7786234 7785390 7782152 7777429 7772032 7767512 7764679 7764004 
2296.965 7765691 7769266 7774663 7781916 7791159 7802460 7816055 7831203 
2300.823 7847565 7863963 7880124 7895949 7911741 7928072 7945384 7964012 
2304.680 7983889 8005185 8027900 8052540 8079712 8109858 8142639 8177448 
2308.537 8212968 8247885 8281284 8312558 8341909 8369742 8396495 8422271 
2312.395 8447305 8471327 8494133 8515893 8537216 8557897 8578646 8599532 
2316.252 8620453 8641577 8662974 8684911 8708134 8733151 8760570 8790830 
2320.110 8824744 8862550 8903910 8947304 8989822 9026865 9053050 9063504 
2323.967 9055384 9029131 8988943 8942467 8898770 8866439 8852473 8860284 
2327.824 8889503 8937055 8998211 9067834 9141394 9215744 9288279 9356967 
2331.682 9419876 9475479 9522486 9560251 9588737 9608791 9621596 9627864 
2335.539 9628609 9623764 9613737 9598900 9579558 9556457 9530580 9502639 
2339.397 9473412 9443579 9413443 9383138 9352464 9320507 9285639 9245833 
2343.254 9198315 9141259 9073519 8996182 8912771 8829242 8753334 8693565 
2347.112 8657464 8650838 8676630 8734537 8821093 8930528 9054945 9184981 
2350.969 9312179 9429695 9533290 9622138 9697960 9763934 9822834 9876522 
2354.826 9925302 9968527 10005550 10036338 10061296 10082016 10099549 
2358.202 10115183 10129428 10142112 10152695 10160496 10164430 10163548 
2361.577 10156901 10143436 10123492 10098633 10070825 10042951 10017621 
2364.952 9996226 9979138 9965509 9953779 9942558 9930861 9918285 9904623 
2368.810 9889505 9871879 9850966 9825783 9796772 9764984 9732691 9701450 
2372.667 9673125 9647851 9625187 9603710 9582200 9560251 9537524 9514187 
2376.524 9490481 9466064 9440464 9413138 9384289 9354631 9325618 9298875 
2380.382 9275586 9256124 9240215 9226779 9215034 9204745 9196048 9189651 
2384.239 9186538 9186707 9189956 9195642 9203188 9212123 9222649 9235375 
2388.097 9250708 9268579 9288855 9310858 9334217 9358728 9384527 9412155 
2391.954 9441649 9472938 9505450 9538641 9572072 9605912 9640669 9677022 
2395.812 9714901 9753632 9791858 9827884 9860185 9888759 9913708 9936116 
2399.669 9956796 9975986 9992904 10006635 10016028 10020537 10020401 
2403.044 10016570 10009687 10000566 9989141 9975273 9958796 9940523 9921607 
2406.902 9904047 9889844 9880285 9875912 9876251 9880556 9888081 9898555 
2410.759 9911844 9928116 9947405 9969442 9993820 10020537 10049767 10082694 
2414.616 10120406 10163922 10213751 10269014 10328628 10390896 10454668 
2417.992 10518787 10583223 10647701 10711714 10774479 10834502 10890320 
2421.367 10940335 10984340 11021926 11053772 11080760 11103805 11123556 
2424.742 11140688 11155714 11168702 11179988 11188896 11195322 11198790 
2428.117 11199164 11196920 11193384 11190188 11188964 11191140 11197226 
2431.493 11207018 11219564 11233845 11249146 11264958 11281213 11298182 
2434.868 11316070 11335048 11355658 11378277 11403652 11432430 11464884 
2438.243 11500981 11539735 11579956 11620283 11660035 11698769 11736384 
2441.618 11773218 11809273 11844411 11878020 11909963 11940307 11970074 
2444.994 12000491 12032817 12067565 12104564 12142691 12179900 12214319 
2448.369 12244446 12269326 12288072 12301025 12308047 12309751 12307126 
2451.744 12302184 12296867 12293867 12295265 12301980 12313807 12329249 
2455.119 12346430 12363680 12380010 12395385 12410966 12428082 12447789 
2458.495 12470670 12496654 12525164 12555585 12587408 12620562 12655425 
2461.870 12692371 12731812 12774498 12821010 12871590 12927055 12987479 
2465.245 13052998 13123445 13198617 13278414 13363282 13454012 13551152 
2468.620 13655597 13767284 13885705 14009702 14137499 14268074 14400366 
2471.996 14534582 14671206 14811951 14958367 15112928 15277875 15455107 
2475.371 15646152 15852263 16073601 16310258 16562257 16829902 17114014 
2478.746 17416384 17738396 18081546 18446332 18831874 19236496 19657198 
2482.121 20090524 20532064 20977148 21419070 21850292 22262234 22645210 
2485.497 22990200 23290014 23538786 23732720 23870168 23950340 23973938 
2488.872 23942568 23859702 23730270 23561034 23359728 23134402 22892706 
2492.247 22641720 22386764 22133140 21885416 21647618 21424152 21218164 
2495.622 21032444 20868772 20728136 20611762 20521504 20459990 20431128 
2498.998 20439324 20488608 20582368 20723098 20911640 21148860 21435082 
2502.373 21770506 22155176 22588594 23069650 23596016 24164250 24770162 
2505.748 25408154 26070128 26746326 27422838 28082694 28706566 29271924 
2509.123 29756718 30140078 30402614 30529818 30512294 30346968 30038268 
2512.499 29598098 29045706 28403980 27698568 26954954 26194204 25434046 
2515.874 24687140 23961648 23263480 22596238 21962152 21362266 20796570 
2519.249 20263412 19760244 19284050 18832498 18404018 17999030 17618472 
2522.624 17264276 16937688 16639197 16368160 16123597 15903711 15707711 
2526.000 15534633 15383663 15254126 15144457 15052517 14976029 14912310 
2529.375 14859128 14814797 14777703 14746782 14721143 14700475 14684949 
2532.750 14674770 14671068 14674633 14685531 14703011 14725428 14750451 
2536.125 14775715 14799232 14820042 14837801 14853093 14866603 14879255 
2539.500 14892044 14905932 14922152 14941322 14964643 14992320 15024252 
2542.876 15059721 15097799 15137390 15178014 15219843 15262809 15307666 
2546.251 15354828 15404776 15457957 15514853 15576153 15642304 15713172 
2549.626 15788037 15865562 15943754 16021065 16096707 16171157 16245207 
2553.001 16321300 16401123 16485674 16574994 16668703 16765291 16864104 
2556.377 16964768 17067660 17173782 17284344 17400380 17522694 17651704 
2559.752 17787066 17928376 18075224 18226926 18383692 18545806 18714864 
2563.127 18892328 19080216 19279236 19489714 19709690 19936402 20166322 
2566.502 20396226 20623052 20845272 21061240 21269798 21469302 21657752 
2569.878 21832382 21991466 22133176 22257004 22362796 22450644 22520714 
2573.253 22572854 22606606 22622662 22622452 22608560 22584616 22554042 
2576.628 22519946 22484562 22449040 22414114 22380762 22350098 22324110 
2580.003 22304994 22294602 22294426 22305482 22328400 22364088 22413974 
2583.379 22479886 22563952 22668250 22793348 22939546 23105990 23291238 
2586.754 23493840 23712772 23947118 24196198 24459372 24736068 25025330 
2590.129 25325674 25635998 25954000 26276988 26601236 26922204 27235186 
2593.504 27534838 27816506 28075768 28308590 28511106 28679450 28809658 
2596.880 28898254 28942878 28942132 28896200 28807002 28677362 28510858 
2600.255 28311596 28083616 27830990 27558422 27270360 26971348 26666060 
2603.630 26358624 26052606 25751690 25459236 25178848 24914608 24670796 
2607.005 24451450 24259962 24098678 23968266 23868382 23797816 23754838 
2610.381 23738180 23746648 23780106 23838384 23920964 24026988 24154546 
2613.756 24300572 24461160 24631730 24807524 24984092 25158062 25326940 
2617.131 25489558 25645560 25795076 25938488 26076108 26208036 26334616 
2620.506 26456444 26574676 26690970 26807046 26924460 27043844 27165024 
2623.882 27286592 27405968 27519658 27623246 27711812 27780050 27821734 
2627.257 27831130 27802834 27731944 27615478 27452096 27242490 26989294 
2630.632 26697030 26371652 26019746 25648442 25264494 24874256 24483138 
2634.007 24096122 23716728 23348294 22993206 22652786 22328576 22020676 
2637.383 21729296 21453638 21193530 20947974 20716424 20498126 20292436 
2640.758 20098332 19914998 19741172 19575908 19417950 19266628 19121488 
2644.133 18982144 18848586 18721058 18599408 18484016 18375224 18273404 
2647.508 18179036 18092738 18014814 17945540 17884524 17831252 17785340 
2650.884 17746024 17712718 17684902 17662296 17644386 17630824 17621268 
2654.259 17615608 17613882 17616610 17623924 17636382 17653740 17675654 
2657.634 17701398 17730078 17761074 17794212 17829804 17868228 17910352 
2661.009 17956346 18006250 18059922 18117058 18177412 18240852 18307616 
2664.385 18377886 18451724 18529278 18610060 18693692 18779766 18867758 
2667.760 18957360 19048226 19139806 19232166 19325480 19419924 19516364 
2671.135 19615634 19718392 19825060 19935326 20048432 20163614 20279870 
2674.510 20396884 20514662 20633756 20754618 20877708 21002812 21130180 
2677.885 21259916 21392616 21529220 21670918 21819108 21974282 22136976 
2681.261 22306704 22483026 22665702 22854358 23049210 23250686 23458970 
2684.636 23674212 23896458 24125718 24362458 24607638 24862746 25129378 
2688.011 25409348 25704192 26015210 26343558 26690088 27055408 27439814 
2691.386 27843178 28264454 28701962 29153768 29617430 30090536 30570236 
2694.762 31053210 31534936 32009818 32470186 32907200 33311702 33673436 
2698.137 33983228 34233184 34416172 34527300 34563644 34524720 34412764 
2701.512 34232756 33992832 33702368 33372774 33015974 32643072 32265134 
2704.887 31891804 31530556 31187760 30867504 30571588 30300068 30051084 
2708.263 29822154 29610478 29413546 29229748 29058424 28899280 28752268 
2711.638 28617300 28493944 28381520 28279412 28186770 28103090 28028052 
2715.013 27961260 27902036 27850242 27805696 27768430 27738972 27717886 
2718.388 27705950 27702984 27708776 27721948 27740950 27764050 27789448 
2721.764 27816152 27843178 27870168 27897408 27924900 27953308 27983346 
2725.139 28015824 28051520 28091286 28135932 28185958 28242318 28305902 
2728.514 28377486 28458212 28548860 28649648 28760338 28880122 29007872 
2731.889 29142890 29284400 29432338 29586676 29747634 29914756 30087588 
2735.265 30265252 30446538 30630926 30817952 31007904 31200612 31396218 
2738.640 31593870 31792578 31990732 32186374 32377538 32562458 32739170 
2742.015 32905806 33060524 33201136 33325582 33432140 33519250 33586152 
2745.390 33632048 33657680 33663628 33651344 33623064 33581640 33530022 
2748.766 33471826 33410526 33349160 33290666 33238012 33193588 33159864 
2752.141 33138726 33131718 33139084 33160328 33193660 33236258 33285302 
2755.516 33337712 33391346 33444450 33495772 33544880 33591128 33634088 
2758.891 33672900 33706880 33734992 33756656 33771480 33779256 33780688 
2762.267 33776676 33769084 33760200 33752288 33748096 33749636 33758984 
2765.642 33777068 33804968 33843152 33891976 33952160 34024184 34108436 
2769.017 34205508 34316080 34440384 34579324 34733352 34903048 35088904 
2772.392 35290872 35508572 35741024 35987244 36245992 36516176 36797204 
2775.768 37088012 37387896 37695976 38010712 38330708 38654016 38978908 
2779.143 39303496 39625864 39944072 40256368 40561000 40856232 41140992 
2782.518 41413764 41673692 41919536 42150336 42365332 42564568 42748432 
2785.893 42918696 43077684 43228164 43373244 43515656 43658156 43803228 
2789.269 43953304 44110948 44278368 44457604 44648808 44851116 45061132 
2792.644 45274004 45483704 45683608 45867804 46031336 46171200 46286080 
2796.019 46377464 46449144 46506376 46557456 46611348 46676716 46762248 
2799.394 46875068 47019592 47198968 47414848 47667444 47956816 48282600 
2802.770 48643868 49039380 49466812 49923544 50406396 50912288 51437756 
2806.145 51979732 52534876 53099228 53667648 54234676 54794064 55339268 
2809.520 55864884 56365636 56836864 57274876 57675412 58034740 58348652 
2812.895 58613228 58824880 58980920 59079080 59118940 59100644 59025824 
2816.271 58897088 58718244 58494168 58230236 57932420 57607344 57261568 
2819.646 56901860 56535056 56168036 55807384 55459008 55127988 54818308 
2823.021 54532668 54273048 54040072 53834260 53655352 53502940 53376692 
2826.396 53276032 53200408 53149512 53123152 53121540 53144760 53193108 
2829.771 53266592 53364892 53487048 53631736 53797016 53980860 54181332 
2833.147 54396848 54626636 54870304 55128476 55402016 55692408 56000824 
2836.522 56328740 56677136 57047008 57439888 57857992 58304276 58783340 
2839.897 59300116 59860784 60471836 61139548 61870484 62671700 63550300 
2843.272 64515120 65576456 66745004 68032064 69446912 70994080 72670536 
2846.648 74461472 76339976 78261504 80168856 81994936 83663664 85104824 
2850.023 86258200 87079984 87550744 87674960 87481112 87013144 86329576 
2853.398 85496088 84575512 83629520 82713072 81868256 81128272 80513872 
2856.773 80033632 79687008 79466408 79359992 79353632 79433544 79586944 
2860.149 79801152 80064264 80364336 80688592 81025032 81361776 81687304 
2863.524 81992384 82268640 82509368 82711000 82872488 82996456 83088680 
2866.899 83158576 83217088 83274960 83342632 83427904 83536368 83671176 
2870.274 83833832 84024168 84240856 84481640 84743056 85020824 85310992 
2873.650 85609992 85914776 86224016 86535896 86848896 87160408 87467288 
2877.025 87765872 88053752 88330392 88598040 88861336 89127192 89403872 
2880.400 89698864 90020024 90373808 90765488 91199304 91677696 92201152 
2883.775 92767864 93373808 94013256 94678960 95363712 96060336 96762056 
2887.151 97462880 98157312 98840712 99509728 100162880 100800296 101424128 
2890.526 102037920 102645320 103249288 103852704 104457376 105065264 
2893.419 105679280 106302464 106938832 107592352 108266200 108963320 
2896.312 109685704 110435440 111214512 112025344 112869312 113746224 
2899.205 114653688 115586752 116538152 117499240 118461992 119418232 
2902.098 120360944 121284096 122181744 123048384 123879120 124670608 
2904.991 125421528 126132664 126807184 127449320 128063488 128654152 
2907.884 129225376 129782008 130329248 130873872 131422952 131984024 
2910.777 132563008 133163752 133786960 134429040 135081776 135731312 
2913.670 136359040 136940352 137447248 137852800 138132064 138268448 
2916.563 138255904 138100144 137816304 137425744 136952192 136415280 
2919.457 135828512 135197520 134520400 133789856 132996112 132130832 
2922.350 131190184 130177288 129103096 127986968 126854568 125733136 
2925.243 124650784 123631560 122692152 121843280 121088536 120426128 
2928.136 119850424 119353456 118926248 118558360 118239496 117959352 
2931.029 117708352 117479136 117266744 117068696 116884472 116714416 
2933.922 116558560 116415496 116281872 116152488 116020848 115879608 
2936.815 115721240 115539104 115327832 115083880 114806712 114498136 
2939.708 114162552 113805216 113432216 113047752 112654440 112252688 
2942.601 111841240 111417928 110980816 110528088 110058664 109571408 
2945.494 109065408 108539704 107994104 107429760 106850008 106261072 
2948.387 105671248 105091512 104534712 104013960 103543320 103136792 
2951.280 102806512 102564040 102418336 102374712 102435824 102599744 
2954.173 102860800 103207768 103625592 104093536 104584840 105071296 
2957.066 105522008 105907216 106204624 106399568 106488256 106478016 
2959.959 106385472 106233568 106046480 105848744 105660984 105497544 
2962.853 105367448 105272440 105208432 105164872 105127264 105079312 
2965.746 105003440 104885768 104716384 104491096 104210744 103881448 
2968.639 103512832 103116080 102703960 102288816 101881664 101491936 
2971.532 101126008 100786968 100474624 100185912 99916208 99659880 99411616 
2974.907 99167240 98922680 98674832 98420856 98158096 97884288 97597880 
2978.282 97298888 96988008 96667544 96340648 96011440 95684584 95366512 
2981.657 95063944 94784416 94535056 94321152 94145552 94007912 93904952 
2985.033 93831080 93779592 93744152 93718328 93696128 93671464 93637176 
2988.408 93585096 93506064 93390160 93228448 93013256 92738816 92402944 
2991.783 92006376 91554208 91054664 90519480 89962752 89397728 88836664 
2995.158 88288080 87756064 87240440 86738384 86245872 85759008 85276120 
2998.534 84796824 84322448 83855008 83396192 82947400 82509616 82083832 
3001.909 81671264 81273392 80892128 80528872 80184800 79859760 79552920 
3005.284 79262632 78986328 78721560 78465288 78214688 77966808 77719144 
3008.659 77469256 77214592 76952992 76682112 76399424 76103144 75791880 
3012.035 75465144 75124400 74771984 74411016 74045512 73679144 73315080 
3015.410 72956448 72605952 72265952 71938928 71626328 71328912 71045864 
3018.785 70775048 70513368 70257104 70002584 69746856 69486496 69218560 
3022.160 68939288 68644680 68330256 67992504 67628864 67238744 66823064 
3025.536 66384388 65925448 65448888 64957180 64451584 63933448 63404076 
3028.911 62864476 62315904 61759240 61194932 60622940 60042644 59453360 
3032.286 58854592 58246264 57628760 57003444 56371936 55736484 55099964 
3035.661 54465728 53837260 53218048 52610756 52017640 51440144 50878984 
3039.037 50334436 49806956 49296600 48802852 48325260 47862252 47412000 
3042.412 46972632 46542704 46121232 45708676 45305264 44911520 44527052 
3045.787 44151072 43781792 43417804 43058292 42703500 42355064 42014572 
3049.162 41683572 41363104 41052556 40750748 40456316 40168188 39885556 
3052.538 39608656 39337304 39071668 38810944 38554172 38299980 38047568 
3055.913 37796596 37547148 37300112 37056468 36817288 36583576 36356292 
3059.288 36136656 35925948 35725048 35534572 35353912 35181848 35016528 
3062.663 34856300 34699612 34545960 34395588 34249248 34107472 33970400 
3066.039 33837348 33707632 33580212 33454866 33331882 33212580 33098106 
3069.414 32989948 32888900 32795124 32708268 32627892 32553352 32484718 
3072.789 32422516 32367326 32320208 32281802 32252430 32231766 32218744 
3076.164 32211996 32210070 32211356 32214676 32219422 32225128 32231696 
3079.540 32239046 32246578 32253570 32258782 32261032 32259248 32252644 
3082.915 32240726 32223094 32199756 32170746 32136210 32096964 32053940 
3086.290 32008496 31962096 31915982 31870946 31827088 31784024 31740532 
3089.665 31695478 31647790 31596654 31541422 31481710 31417518 31349134 
3093.041 31277306 31203210 31128418 31054454 30982390 30912438 30844098 
3096.416 30776052 30706844 30635158 30560248 30482650 30402790 30322308 
3099.791 30242478 30164086 30088122 30015152 29945640 29879970 29818676 
3103.166 29761968 29709916 29662800 29620906 29584406 29554080 29530212 
3106.542 29513082 29502692 29498010 29498648 29504004 29514218 29530176 
3109.917 29553264 29584868 29625908 29676602 29735890 29802422 29874362 
3113.292 29950112 30028112 30106908 30185006 30260420 30330764 30393764 
3116.667 30447356 30490682 30523314 30545602 30558362 30561668 30555732 
3120.042 30540198 30514888 30480126 30437192 30387900 30334424 30278714 
3123.418 30222054 30165222 30108044 30050730 29993104 29935914 29879828 
3126.793 29826094 29775702 29729574 29688168 29651520 29619488 29590898 
3130.168 29564616 29538936 29512124 29482762 29449748 29413120 29373270 
3133.543 29331296 29288370 29244808 29200438 29154298 29105226 29051906 
3136.919 28993632 28930516 28862700 28790962 28715946 28638180 28558096 
3140.294 28476256 28393156 28309544 28226336 28144240 28063820 27985326 
3143.669 27908820 27834522 27762320 27692494 27625152 27560504 27498232 
3147.044 27438720 27382076 27328544 27279392 27235328 27197158 27165376 
3150.420 27139380 27117972 27099844 27083304 27067398 27051882 27036826 
3153.795 27022828 27010380 26999450 26989682 26980410 26970854 26960948 
3157.170 26951042 26942192 26935600 26932638 26933978 26939688 26949278 
3160.545 26961830 26976144 26991446 27007312 27023886 27041444 27060452 
3163.921 27080976 27103018 27125944 27149080 27171514 27192924 27213066 
3167.296 27232152 27250850 27269690 27289342 27309772 27331260 27353492 
3170.671 27376428 27399826 27424072 27448956 27474616 27500738 27526684 
3174.046 27551396 27573814 27592668 27607322 27617808 27624800 27629602 
3177.422 27633910 27639490 27647610 27658416 27671588 27686280 27701288 
3180.797 27715734 27729472 27743246 27757904 27774894 27794710 27817424 
3184.172 27842578 27869462 27897268 27925498 27954438 27984370 28015788 
3187.547 28048728 28082590 28116984 28151488 28185852 28220960 28257770 
3190.923 28297342 28340384 28386684 28435394 28485488 28535944 28586228 
3194.298 28636624 28687416 28739308 28792840 28848110 28904912 28963490 
3197.673 29024274 29087970 29155540 29227904 29304782 29386070 29470776 
3201.048 29557556 29645738 29734576 29824070 29914010 30004074 30093660 
3204.424 30181988 30268020 30350698 30429658 30504546 30575144 30641414 
3207.799 30703358 30761362 30816138 30868750 30920514 30972926 31026268 
3211.174 31080542 31134290 31186088 31234186 31277806 31316798 31352018 
3214.549 31384926 31416412 31447370 31477720 31507432 31536184 31564012 
3217.925 31591340 31618994 31647470 31677156 31707738 31739034 31770370 
3221.300 31801850 31833686 31866274 31900364 31936418 31974222 32013454 
3224.675 32053440 32093432 32132928 32171994 32210678 32249752 32289904 
3228.050 32332022 32377000 32425590 32478218 32535422 32597282 32663468 
3231.426 32733596 32807096 32882896 32960064 33037498 33114266 33189762 
3234.801 33263910 33337214 33410348 33484388 33559948 33637060 33715188 
3238.176 33793364 33870696 33946680 34021280 34095180 34168976 34242508 
3241.551 34315292 34385364 34450248 34508148 34557620 34598664 34632216 
3244.927 34660028 34683572 34704240 34722796 34739556 34755028 34769996 
3248.302 34785252 34801912 34820076 34839892 34860752 34881616 34902076 
3251.677 34922548 34943624 34966892 34993544 35024252 35059020 35097560 
3255.052 35138984 35182852 35228664 35276136 35324872 35374256 35423544 
3258.427 35471936 35519216 35565712 35612176 35659512 35707928 35756888 
3261.803 35805212 35851416 35894528 35934404 35971948 36008880 36047108 
3265.178 36087544 36130176 36173816 36217000 36257948 36295880 36330284 
3268.553 36362060 36391924 36420572 36448352 36475200 36500536 36523672 
3271.928 36543928 36560544 36573124 36581124 36584764 36584840 36582460 
3275.304 36578964 36575968 36574496 36574744 36576296 36578672 36580948 
3278.679 36582964 36584800 36586820 36589272 36592084 36594068 36594352 
3282.054 36591652 36585164 36574996 36561768 36546524 36530700 36515420 
3285.429 36501076 36488316 36477292 36467956 36460244 36453864 36448172 
3288.805 36442120 36435236 36426588 36416716 36405692 36394628 36384612 
3292.180 36376616 36370812 36367392 36365768 36365156 36364904 36363896 
3295.555 36361048 36355392 36345772 36331648 36313204 36291236 36267136 
3298.930 36242788 36220060 36199856 36182820 36168632 36156352 36145048 
3302.306 36134136 36122828 36111376 36099892 36089164 36079764 36072312 
3305.681 36067452 36065076 36064896 36066372 36068784 36071556 36074724 
3309.056 36078612 36083868 36091396 36101224 36113144 36126356 36140004 
3312.431 36153616 36167444 36182496 36199892 36220816 36245524 36273476 
3315.807 36303516 36334248 36365012 36396320 36428896 36464136 36503020 
3319.182 36545084 36589308 36633720 36676732 36716932 36754324 36789916 
3322.557 36825116 36861332 36899240 36939028 36980408 37022768 37065236 
3325.932 37107320 37148316 37187624 37224552 37258340 37288452 37314988 
3329.308 37337772 37357528 37374824 37390208 37404076 37416860 37428524 
3332.683 37438708 37447232 37452940 37453916 37448932 37436400 37415884 
3336.058 37388004 37354600 37318564 37282640 37248632 37216720 37186108 
3339.433 37154632 37119912 37079928 37033520 36980664 36922036 36858480 
3342.809 36790784 36719924 36646156 36570204 36492644 36413940 36334532 
3346.184 36254312 36173060 36090028 36005168 35917988 35829176 35739624 
3349.559 35650840 35564020 35480132 35399708 35322568 35247676 35173152 
3352.934 35097168 35017172 34931488 34839140 34740636 34637456 34532896 
3356.310 34430124 34332108 34240460 34155644 34076472 34001000 33927408 
3359.685 33854220 33780544 33706524 33632012 33556980 33480596 33401902 
3363.060 33320182 33234720 33145950 33055410 32964960 32876748 32792662 
3366.435 32713696 32639894 32570492 32504358 32439836 32375894 32312032 
3369.811 32248076 32184626 32122116 32060646 32000008 31938844 31875510 
3373.186 31808552 31736788 31660262 31580474 31499452 31419658 31343080 
3376.561 31270292 31200612 31132368 31063636 30992390 30918166 30841534 
3379.936 30763532 30685898 30609984 30536500 30465412 30396252 30328064 
3383.312 30260632 30193600 30126796 30060318 29994204 29928210 29862152 
3386.687 29795858 29728934 29661560 29593664 29524786 29455316 29384402 
3390.062 29311764 29237474 29161598 29084784 29008298 28933668 28862274 
3393.437 28795282 28732866 28674602 28618964 28564146 28508310 28450500 
3396.813 28390256 28328430 28266330 28205298 28146324 28089094 28032964 
3400.188 27976456 27918326 27857590 27794322 27728976 27662090 27594398 
3403.563 27525908 27456508 27385780 27313654 27240090 27165870 27091626 
3406.938 27017818 26944096 26870030 26794924 26718312 26640200 26561008 
3410.313 26481868 26403516 26326518 26251010 26176290 26101830 26027204 
3413.689 25952100 25876728 25801686 25727640 25655050 25584158 25515104 
3417.064 25447150 25379698 25311450 25241036 25167332 25089322 25006906 
3420.439 24920818 24832958 24745364 24660066 24578466 24500736 24426316 
3423.814 24354084 24282106 24210316 24138152 24066072 23995124 23925728 
3427.190 23858056 23791830 23726212 23660006 23592866 23523990 23453444 
3430.565 23381406 23308334 23234780 23161486 23089078 23018430 22950272 
3433.940 22884744 22821670 22760526 22699984 22638858 22576518 22512340 
3437.315 22446702 22380518 22314832 22250202 22186942 22124146 22060728 
3440.691 21995266 21926744 21854960 21780888 21706202 21632710 21562124 
3444.066 21494438 21428538 21361778 21291478 21215066 21131780 21042320 
3447.441 20949644 20857024 20767478 20682472 20602068 20524630 20447972 
3450.816 20370320 20290806 20210022 20128836 20048536 19969602 19891618 
3454.192 19813546 19734100 19652484 19568492 19483370 19398546 19315746 
3457.567 19236322 19160650 19088318 19018040 18948050 18876410 18801182 
3460.942 18721332 18636518 18547534 18455908 18363920 18273750 18187120 
3464.317 18104344 18024934 17947472 17870506 17792866 17714134 17634276 
3467.693 17554228 17474158 17393620 17312272 17228938 17142898 17054254 
3471.068 16964044 16873440 16784060 16697211 16613308 16531967 16452327 
3474.443 16373217 16294157 16214596 16134841 16055103 15976239 15898762 
3477.818 15823465 15750689 15680468 15612250 15544591 15476361 15406355 
3481.194 15333580 15258690 15183023 15108125 15035675 14966494 14900000 
3484.569 14834578 14768139 14698658 14624940 14546951 14465584 14381699 
3487.944 14296905 14212060 14127847 14045053 13964328 13886321 13811748 
3491.319 13741087 13673618 13608380 13543393 13477286 13408832 13337588 
3494.695 13264100 13189497 13114839 13041355 12969897 12901079 12835207 
3498.070 12772622 12712911 12655527 12599243 12542591 12484276 12423172 
3501.445 12359418 12294140 12229076 12166202 12107221 12053052 12003386 
3504.820 11957540 11914152 11871686 11828952 11784691 11737303 11685733 
3508.196 11629064 11566821 11499756 11429301 11357563 11287265 11220482 
3511.571 11158196 11100951 11048232 10998613 10950970 10904114 10857161 
3514.946 10809976 10762183 10713785 10665121 10616395 10568080 10520994 
3518.321 10475881 10433285 10393611 10356962 10322554 10289642 10256767 
3521.697 10222333 10185291 10144521 10100159 10052615 10002431 9950626 
3525.072 9897538 9843306 9787486 9729641 9669263 9605912 9540470 9473650 
3528.929 9406162 9339227 9273386 9209077 9147113 9088101 9032379 8980487 
3532.787 8931948 8885411 8839183 8791100 8739575 8684303 8626030 8566582 
3536.644 8508426 8453319 8402204 8354980 8310092 8266830 8224078 8181939 
3540.501 8140715 8101250 8063780 8028001 7993035 7957532 7920041 7879752 
3544.359 7835623 7787482 7735063 7678874 7619757 7559368 7499493 7442862 
3548.216 7391024 7344786 7303776 7266106 7229382 7191145 7149611 7104241 
3552.074 7055306 7004053 6951661 6899074 6847133 6796005 6746600 6699657 
3555.931 6655579 6614970 6577225 6541232 6505713 6469390 6431556 6392986 
3559.789 6354991 6319521 6288457 6263077 6243748 6230437 6222505 6218304 
3563.646 6215547 6210338 6197297 6170947 6125209 6056392 5965683 5858872 
3567.503 5746280 5639489 5548969 5480377 5434477 5407469 5392976 5384924 
3571.361 5377544 5367178 5352452 5333331 5310321 5284663 5256892 5227314 
3575.218 5196630 5165077 5133391 5102848 5073883 5047099 5022495 4999267 
3579.076 4976241 4952143 4926204 4898524 4870343 4843839 4821927 4807588 
3582.933 4802194 4805779 4815561 4826417 4831778 4824440 4797972 4749096 
3586.791 4678521 4591548 4497227 4406844 4329865 4273144 4239416 4227036 
3590.648 4231453 4246375 4265147 4281242 4289206 4285726 4269597 4242327 
3594.505 4206862 4167518 4128446 4092522 4061952 4036969 4016602 3999112 
3598.363 3982526 3964904 3945009 3922440 3897732 3872625 3848856 3828532 
3602.220 3812955 3803028 3798883 3800086 3805902 3814994 3825724 3835485 
3606.078 3840733 3837591 3823117 3795440 3755900 3708778 3659723 3615017 
3609.935 3577765 3547432 3520875 3492783 3457813 3414196 3363705 3311284 
3613.792 3264310 3229291 3209797 3205324 3211733 3222214 3229859 3227322 
3617.650 3209663 3174883 3124086 3062250 2997153 2937636 2891170 2862418 
3621.507 2852112 2857716 2874493 2897407 2922625 2949012 2977669 3010765 
3625.365 3049470 3091548 3130460 3154757 3150585 3106565 3019740 2900576 
3629.222 2770373 2655811 2575176 2533714 2525049 2536214 2552511 2562344 
3633.080 2559411 2543280 2518250 2490457 2465364 2446071 2432443 2421880 
3636.937 2411818 2400390 2387663 2374969 2363842 2355613 2350283 2346851 
3640.794 2344086 2341721 2340056 2341255 2348018 2362776 2386530 2419148 
3644.652 2457966 2499321 2538113 2569043 2586709 2586842 2565777 2522116 
3648.509 2456300 2372237 2277432 2182047 2098869 2039742 2012578 2019902 
3652.367 2058052 2118214 2187542 2252451 2299616 2317803 2302080 2254716 
3656.224 2185844 2109690 2040674 1988279 1955660 1940350 1936655 1938685 
3660.082 1941581 1943145 1943179 1943112 1944909 1950168 1959754 1973633 
3663.939 1991907 2014676 2042738 2076962 2117981 2165330 2216115 2264741 
3667.796 2303513 2324332 2321534 2295818 2257680 2226506 2223909 2268372 
3671.654 2367173 2516051 2700286 2897607 3083506 3229391 3310482 3311384 
3675.511 3233764 3096387 2927162 2752200 2586109 2433475 2293286 2164032 
3679.369 2046633 1944610 1861910 1800686 1759797 1735844 1723669 1720608 
3683.226 1726330 1743495 1775101 1822379 1882608 1948537 2009749 2054323 
3687.083 2072701 2060416 2020235 1961684 1897118 1837885 1789839 1753476 
3690.941 1725897 1704475 1687178 1674704 1668684 1670014 1678296 1691335 
3694.798 1705606 1717747 1725864 1730056 1732784 1737175 1745791 1759531 
3698.656 1776465 1792268 1801717 1800553 1786213 1760163 1727261 1694828 
3702.513 1670014 1658107 1661167 1678596 1706870 1741832 1779891 1817821 
3706.371 1854157 1888332 1920148 1949502 1975864 1997499 2010881 2012678 
3710.228 1998132 1964547 1911961 1844573 1770310 1699718 1643439 1608584 
3714.085 1598042 1610181 1639814 1679760 1722438 1761859 1793932 1817222 
3717.943 1832794 1843076 1850530 1856786 1862309 1866569 1868432 1867867 
3721.800 1865238 1862642 1861977 1864539 1870429 1877916 1884372 1887101 
3725.658 1884705 1877883 1870229 1867434 1874855 1896219 1931763 1978227 
3729.515 2029389 2077029 2114185 2135994 2142221 2136461 2125373 2114285 
3733.373 2104530 2092444 2070870 2032785 1975364 1902809 1825341 1756171 
3737.230 1705406 1677798 1672609 1686546 1716483 1761593 1822945 1901012 
3741.087 1992939 2090213 2176786 2231202 2232834 2168394 2045135 1892725 
3744.945 1756836 1676334 1666588 1719244 1811666 1917652 2012246 2077894 
3748.802 2106228 2097071 2058685 2002093 1937754 1872426 1810734 1756769 
3752.660 1715718 1692866 1691435 1710861 1746357 1790272 1835256 1874422 
3756.517 1904107 1923609 1933826 1935890 1930432 1917352 1896685 1871228 
3760.375 1846337 1828868 1824942 1837186 1863341 1897151 1930065 1954961 
3764.232 1968141 1970904 1968807 1969706 1979691 1999430 2025161 2048298 
3768.089 2060582 2055189 2030055 1988479 1938586 1890429 1852060 1829001 
3771.947 1822113 1829267 1846570 1869996 1895920 1922278 1948071 1973267 
3775.804 1998132 2022132 2043737 2060083 2068406 2066175 2053491 2033117 
3779.662 2011014 1994204 1987780 1993871 2010748 2033450 2055322 2070803 
3783.519 2076363 2071003 2056487 2035748 2012346 1988312 1965345 1944577 
3787.376 1926937 1913991 1906969 1906503 1911761 1920847 1931730 1942513 
3791.234 1953596 1966477 1983220 2005755 2033018 2061381 2085652 2100334 
3795.091 2101999 2092077 2076396 2064577 2065676 2084819 2120711 2165930 
3798.949 2207556 2230370 2221910 2175554 2095507 1997998 1907501 1847768 
3802.806 1831829 1859714 1919648 1994004 2062147 2106461 2115717 2087782 
3806.664 2031353 1963914 1905704 1870961 1864872 1883440 1918484 1961717 
3810.521 2006953 2052959 2100900 2152743 2208123 2263009 2309076 2336491 
3814.378 2336025 2304412 2247389 2181714 2128702 2106560 2124174 2177219 
3818.236 2251685 2327230 2382998 2401389 2372404 2298283 2195301 2089747 
3822.093 2005987 1960153 1954628 1980823 2024296 2069837 2106327 2127071 
3825.951 2132365 2127137 2119779 2117748 2125439 2142954 2167695 2195201 
3829.808 2221544 2244424 2263376 2279297 2294186 2309708 2327563 2348517 
3833.666 2373103 2400556 2429444 2455767 2474594 2479860 2466597 2433709 
3837.523 2384264 2326631 2271536 2227972 2201062 2190606 2192038 2198398 
3841.380 2204259 2205358 2200463 2190772 2178650 2166929 2158204 2154042 
3845.238 2155474 2163532 2178817 2201995 2234100 2275933 2328596 2392893 
3849.095 2469096 2555111 2646511 2734028 2803788 2838972 2821463 2739930 
3852.953 2597575 2417615 2236331 2089547 1998198 1963748 1974832 2014676 
3856.810 2068872 2126771 2182014 2231935 2275500 2311974 2340888 2362143 
3860.667 2375935 2383831 2388229 2390428 2391261 2388829 2380766 2366307 
3864.525 2348217 2333460 2331194 2349650 2390861 2450136 2515118 2569977 
3868.382 2598775 2591075 2546946 2478527 2406820 2350649 2321101 2317103 
3872.240 2329296 2343720 2349650 2342088 2323866 2304212 2293920 2301947 
3876.097 2331028 2378001 2434475 2490723 2536414 2563710 2568310 2550912 
3879.955 2517717 2478727 2445937 2429610 2434442 2458733 2494756 2530815 
3883.812 2553245 2550978 2519917 2464631 2399590 2343420 2313406 2318003 
3887.669 2355347 2414550 2480626 2537947 2572943 2577843 2552345 2503553 
3891.527 2444471 2388662 2347918 2328563 2331661 2354580 2393060 2442239 
3895.384 2497455 2555145 2611375 2662312 2704653 2735061 2751067 2752667 
3899.242 2741730 2722058 2698685 2675481 2654378 2634609 2613308 2586842 
3903.099 2553211 2513085 2469429 2428344 2395226 2374203 2365974 2369072 
3906.957 2380300 2396458 2415350 2435941 2458166 2481926 2506586 2530981 
3910.814 2553512 2573076 2590142 2605908 2622942 2643444 2667446 2693684 
3914.671 2718390 2737629 2747799 2747732 2737862 2721524 2702119 2682849 
3918.529 2665313 2650311 2638310 2630343 2627876 2632376 2644644 2663379 
3922.386 2685216 2705220 2719090 2723591 2718990 2708121 2695685 2686883 
3926.244 2685116 2690817 2702686 2717723 2732728 2745398 2754501 2759436 
3930.101 2759803 2755468 2745731 2730694 2711222 2689517 2668713 2651911 
3933.958 2641310 2637443 2639377 2644644 2651411 2657945 2664213 2671514 
3937.816 2681349 2695018 2713155 2734128 2755135 2773041 2784546 2787614 
3941.673 2781778 2768940 2752567 2737062 2726759 2724625 2731660 2746865 
3945.531 2766905 2787981 2805088 2815093 2816193 2808723 2794483 2777176 
3949.388 2760270 2746432 2737396 2733194 2733061 2735462 2738529 2740597 
3953.246 2740430 2737295 2731160 2722991 2714389 2707387 2704387 2706754 
3957.103 2714956 2728159 2744298 2760636 2774608 2784212 2788981 2789648 
3960.960 2787580 2784546 2782145 2781278 2782145 2784646 2788481 2793116 
3964.818 2798819 2805155 2812325 2820195 2827999 2835237 2840973 2844442 
3968.675 2845275 2843574 2839605 2834336 2828933 2824398 2821463 2820262 
3972.533 2820195 2820429 2819829 2817227 2812692 2806922 2801153 2797585 
3976.390 2797818 2802787 2812225 2824898 2838505 2850645 2859217 2863219 
3980.248 2862652 2858516 2852913 2847643 2844408 2843974 2846309 2850745 
3984.105 2855481 2859350 2861251 2860451 2857249 2852446 2847076 2842240 
3987.962 2838738 2836837 2836504 2837471 2839639 2842674 2847010 2852646 
3991.820 2859917 2868389 2877327 2886133 2893538 2898775 2902011 2903645 
3995.677 2904245 2905246 2907147 2910049 2913785 2917288 2919523 2919523 
3999.535 2917121 2912318 2906347 
##END=
