
##TITLE=Z382_1_d
##JCAMP-DX=5.01  $$ Nicolet v. 1
##DATATYPE=INFRARED SPECTRUM
##ORIGIN=UniL
##OWNER=Nicolet
##LONGDATE=2011/09/09
##TIME=09:59:48
##SPECTROMETER/DATA SYSTEM=Nicolet iS5
##DATA PROCESSING=
Ratio against background
%Transmittance->Absorbance
Truncated
ElementMultiply or ElementDivide
##COMMENTS=
Number of sample scans: 32
Collection length: 51.18 sec
Sample gain: 2.0
Background collected on: Ven Sep 09 09:51:57 2011 (GMT+02:00);
Number of background scans: 32
Background gain: 2.0
Sample spacing:  1.000
Number of scan points: 12415
Resolution points: 8192
Number of FFT points: 65536
Apodization: N-B fort;
Phase correction: Mertz;
Laser frequency: 15798.0 cm-1
Number of rejected sample scans: 0
Number of rejected background scans: 0
Bench serial number: ASB1000141;
##RESOLUTION=4.000
##XUNITS=1/CM
##YUNITS=ABSORBANCE
##FIRSTX=649.893372
##LASTX=4000.122314
##FIRSTY=0.078232
##MAXX=4000.122314
##MINX=649.893372
##MAXY=0.217072
##MINY=-0.000039
##XFACTOR=1.000000
##YFACTOR=1.000000E-009
##NPOINTS=6950
##DELTAX=0.482117
##ZPD=6100
##XYDATA=(X++(Y..Y))
649.893 78231992 78356696 78560496 78842760 79174472 79513680 79824368 
653.268 80097376 80353256 80632976 80974240 81393624 81879736 82401600 
656.643 82925264 83431280 83922576 84416960 84933464 85475920 86029840 
660.018 86567720 87065168 87511832 87916400 88300792 88689104 89098184 
663.393 89533064 89991648 90471904 90973112 91489536 91999784 92450856 
666.767 92748664 92785744 92482960 91846240 90971928 89999800 89044248 
670.142 88154640 87323120 86507304 85661088 84753888 83784040 82774048 
673.517 81756728 80756392 79778056 78811216 77842168 76868392 75905864 
676.892 74983632 74131296 73365128 72679896 72053976 71458688 70875912 
680.267 70304320 69760200 69264496 68834648 68472992 68167680 67898464 
683.642 67647456 67406464 67177392 66966692 66777616 66604964 66435932 
687.016 66256696 66059640 65848248 65635532 65438292 65266436 65119364 
690.391 64986312 64852720 64708524 64552484 64391932 64237060 64094400 
693.766 63962772 63834184 63699796 63556744 63411400 63276680 63165112 
697.141 63082732 63024388 62977844 62928276 62867804 62798308 62729740 
700.516 62673040 62633580 62607476 62584096 62552444 62508172 62456480 
703.890 62409044 62377372 62364252 62361228 62352700 62324008 62269820 
707.265 62198656 62128652 62081248 62070088 62096616 62152816 62228176 
710.640 62319420 62435324 62595808 62823692 63137756 63544504 64035916 
714.015 64591892 65184964 65781312 66339724 66816420 67165288 67351672 
717.390 67370128 67259552 67108896 67034276 67157320 67553416 68216184 
720.765 69040968 69840472 70398208 70506512 70040968 68983648 67422408 
724.139 65515996 63451396 61409644 59520236 57861516 56462748 55315860 
727.514 54392940 53656812 53071780 52602636 52217992 51893508 51610228 
730.889 51356448 51127080 50919292 50729776 50554040 50386340 50222496 
734.264 50062176 49908936 49768348 49644816 49538964 49446948 49362820 
737.639 49281344 49200992 49123628 49053252 48991456 48936564 48882832 
741.013 48824652 48758700 48687192 48616000 48551928 48498612 48454344 
744.388 48413412 48370960 48326704 48287264 48264568 48269604 48307592 
747.763 48373964 48455304 48534592 48599396 48645536 48679376 48711880 
751.138 48754140 48811120 48879900 48952736 49021464 49082708 49137656 
754.513 49190900 49245268 49299308 49346968 49381416 49399128 49403284 
757.888 49403844 49414272 49446204 49504984 49590288 49697832 49823640 
761.262 49966624 50129032 50313340 50520204 50746348 50987104 51241040 
764.637 51514376 51822828 52189596 52637348 53184528 53839960 54603940 
768.012 55475160 56458072 57571444 58856792 60380292 62234408 64545952 
771.387 67457968 71120400 75661152 81131704 87454848 94356728 101377640 
774.762 107841216 112943520 115957192 116327960 113865032 108782168 
777.654 101662160 93308736 84532712 76092920 68532808 62151436 57051468 
781.029 53161796 50313824 48289484 46883260 45922084 45268632 44832928 
784.404 44555100 44397152 44336672 44358468 44450040 44601436 44803028 
787.779 45048080 45333396 45659648 46030528 46451100 46925528 47456460 
791.154 48045188 48693904 49406812 50191068 51055856 52009644 53058300 
794.528 54205432 55453852 56810012 58287980 59909200 61703704 63707544 
797.903 65956884 68491880 71358824 74610416 78315664 82556496 87413920 
801.278 92960056 99229112 106197136 113751048 121679952 129680384 137332688 
804.653 144163600 149688784 153450240 155134672 154621072 152023232 
807.546 147664960 142036992 135729088 129294840 123240648 117965000 
810.438 113708464 110579976 108539608 107426072 106961640 106794064 
813.331 106562784 105907264 104550064 102335960 99233240 95336184 90826784 
816.706 85948176 80943984 76033664 71401704 67168344 63402696 60126664 
820.081 57324024 54954076 52961080 51289136 49883848 48698648 47699284 
823.455 46858752 46156532 45577644 45108180 44736728 44455508 44260608 
826.830 44153272 44138784 44224876 44418768 44724716 45142956 45668440 
830.205 46291056 46994784 47759344 48560156 49369760 50163692 50922012 
833.580 51631760 52286608 52879900 53397116 53811496 54077292 54137944 
836.955 53940600 53445752 52645316 51565976 50269444 48837184 47355244 
840.329 45906400 44552788 43335164 42275584 41378664 40638020 40039944 
843.704 39567716 39202456 38925520 38721608 38578292 38487952 38446356 
847.079 38450916 38498632 38585132 38704144 38849784 39017692 39205720 
850.454 39413744 39642164 39890748 40158268 40443512 40746456 41069964 
853.829 41419600 41801612 42221356 42680876 43179340 43714584 44286000 
857.204 44896416 45552844 46265732 47046288 47904904 48852832 49903620 
860.578 51076764 52402180 53920084 55678324 57732820 60139372 62946700 
863.953 66192864 69889472 74008344 78457080 83075040 87614352 91741824 
867.328 95104488 97351080 98208984 97554952 95429296 92040984 87702776 
870.703 82804640 77732104 72799496 68257200 64254724 60851628 58043148 
874.078 55776264 53975380 52552936 51429400 50537516 49822268 49246308 
877.452 48783092 48414336 48127024 47911160 47758160 47662156 47619820 
880.827 47630172 47693552 47810348 47979576 48198620 48464640 48775936 
884.202 49132868 49537812 49994288 50504348 51068004 51683152 52347528 
887.577 53061220 53829384 54663684 55584392 56618432 57800456 59171832 
890.952 60772044 62633044 64764864 67142656 69691576 72282152 74751672 
894.327 76907112 78568952 79609744 79963560 79643776 78724656 77327136 
897.701 75584216 73620688 71552128 69470552 67452040 65562888 63852952 
901.076 62358512 61098852 60074492 59271096 58664808 58231600 57950260 
904.451 57805716 57788004 57887864 58094960 58398684 58788120 59257124 
907.826 59804692 60434476 61152556 61963988 62872744 63882276 64998820 
911.201 66234932 67608240 69140504 70852864 72760672 74872800 77191672 
914.575 79715432 82439896 85356408 88449680 91691080 95035648 98427048 
917.950 101794496 105060112 108142752 110942488 113340240 115197352 
920.843 116350344 116650312 115997272 114376056 111884616 108733096 
923.736 105231864 101717520 98525528 95950056 94191776 93374624 93541448 
927.110 94667632 96672760 99427320 102770192 106492784 110358840 114133288 
930.485 117574560 120473128 122665736 124024760 124470384 123967008 
933.378 122524248 120206960 117142584 113536776 109649280 105791504 
936.271 102310336 99523232 97719776 97129664 97890104 100050768 103552320 
939.646 108231808 113789800 119797336 125746056 131028104 135045936 
942.538 137314560 137499136 135512656 131513808 125888960 119151880 
945.431 111849896 104512680 97541672 91210544 85672832 80967096 77059816 
948.806 73870736 71304824 69261968 67649080 66390448 65420264 64685292 
952.181 64146056 63769632 63531196 63412436 63397288 63472332 63625596 
955.555 63844964 64119444 64439936 64798556 65189780 65609596 66054544 
958.930 66521464 67006780 67506928 68018808 68540768 69072360 69614088 
962.305 70166864 70730984 71305640 71889344 72480760 73078712 73683064 
965.680 74294040 74911576 75534648 76162016 76792024 77424456 78060792 
969.055 78704640 79360432 80032672 80724104 81436824 82171856 82931200 
972.429 83719024 84540768 85403112 86311592 87268960 88275536 89329016 
975.804 90426768 91566736 92747928 93969160 95227832 96518088 97831496 
979.179 99157040 100484184 101803632 103107304 104387976 105636552 106841352 
982.554 107989512 109068728 110070784 110994000 111842904 112626272 
985.447 113352536 114027896 114654552 115232352 115760688 116241168 
988.339 116677616 117075632 117439792 117772712 118075184 118348528 
991.232 118596504 118827448 119053280 119287392 119542096 119825456 
994.125 120141408 120491712 120877344 121300224 121763056 122266872 
997.017 122809560 123383696 123979128 124584968 125193016 125800552 
999.910 126409408 127024200 127648264 128283056 128927784 129582184 
1002.803 130248784 130934920 131650848 132407736 133213640 134073224 
1005.695 134989232 135966112 137014464 138154016 139410576 140814896 
1008.588 142398704 144189600 146213344 148491360 151035904 153841040 
1011.481 156866128 160025952 163168272 166086176 168549488 170321904 
1014.374 171230784 171202848 170283984 168629616 166471504 164086016 
1017.266 161719792 159574336 157786176 156415312 155465888 154900352 
1020.159 154664176 154695920 154941296 155361536 155930096 156633072 
1023.052 157465088 158423760 159506016 160705424 162012576 163416944 
1025.945 164909696 166484736 168138848 169869392 171671424 173536272 
1028.838 175452144 177406272 179388752 181394224 183420864 185468640 
1031.731 187535616 189615488 191699920 193779536 195848000 197903360 
1034.624 199945488 201972672 203977040 205941456 207841728 209650896 
1037.517 211340144 212882496 214249808 215404928 216301280 216880048 
1040.410 217072464 216814176 216050624 214743488 212876704 210452336 
1043.303 207489952 204024400 200108720 195815648 191230272 186453424 
1046.196 181588224 176726080 171950160 167325152 162897360 158703408 
1049.089 154768400 151108448 147731728 144636016 141809712 139231968 
1051.982 136877760 134720608 132735384 130901424 129200432 127614288 
1054.875 126124696 124710608 123349448 122020968 120706344 119390536 
1057.768 118062176 116710952 115327656 113904480 112436152 110923368 
1060.661 109373328 107800952 106225528 104667472 103146328 101676640 
1063.554 100268424 98928088 97659784 96466120 95349352 94309504 93344848 
1066.930 92450656 91621064 90849048 90128792 89456512 88829992 88247768 
1070.305 87707768 87206664 86739552 86301160 85886832 85493392 85119616 
1073.680 84765448 84431928 84119992 83831496 83569752 83341232 83156248 
1077.055 83028264 82973792 83011296 83157768 83429032 83837648 84389960 
1080.431 85085592 85913528 86851608 87862000 88894152 89890320 90784848 
1083.806 91517400 92039760 92318880 92344496 92129296 91711128 91146448 
1087.181 90508096 89881480 89348760 88988128 88867032 89033760 89522600 
1090.556 90354752 91542432 93094824 95022744 97339272 100058696 103189784 
1093.932 106727384 110637720 114848528 119243312 123641424 127816152 
1096.825 131508600 134434096 136345792 137063488 136506464 134715952 
1099.718 131847728 128151384 123906584 119404968 114910432 110618912 
1102.611 106674088 103158648 100101840 97498288 95317944 93520328 92058800 
1105.986 90889568 89975176 89283360 88789384 88475144 88326088 88330760 
1109.361 88478920 88759952 89164176 89683592 90312864 91050128 91895408 
1112.737 92846232 93891088 94999576 96112096 97142264 97968360 98449536 
1116.112 98455272 97877440 96667744 94852176 92536464 89886656 87092744 
1119.487 84351296 81816416 79586504 77706664 76171568 74946584 73985160 
1122.862 73248472 72711704 72367352 72222632 72295336 72610456 73194032 
1126.238 74072352 75263824 76769960 78562712 80572984 82689952 84749984 
1129.613 86558048 87915584 88627056 88545344 87588888 85750208 83101720 
1132.988 79784264 75997592 71955312 67870608 63935092 60285644 57013044 
1136.363 54160988 51732188 49702920 48034160 46683948 45608780 44768608 
1139.739 44129028 43656104 43319128 43092064 42951216 42878684 42861644 
1143.114 42889880 42955092 43049440 43164448 43292916 43429740 43572652 
1146.489 43721872 43880056 44049112 44229976 44422108 44624496 44836752 
1149.864 45060028 45296876 45549680 45819676 46105244 46403236 46708596 
1153.240 47017600 47328380 47641004 47956448 48274636 48593508 48909156 
1156.615 49215988 49508476 49782396 50034548 50261444 50458904 50620344 
1159.990 50737596 50802660 50808620 50751264 50629096 50442048 50190624 
1163.365 49874260 49492432 49044496 48532104 47959448 47333328 46662068 
1166.740 45954680 45219320 44463476 43694612 42920636 42150300 41393536 
1170.116 40659084 39954208 39283548 38648912 38050456 37488192 36963164 
1173.491 36477760 36035552 35639296 35290512 34988660 34731952 34518228 
1176.866 34345988 34214504 34123420 34071384 34055360 34070840 34113316 
1180.241 34180592 34274592 34401680 34571788 34796740 35086644 35449788 
1183.617 35892080 36417472 37029876 37732548 38529152 39422488 40415660 
1186.992 41513612 42727044 44075368 45586808 47298488 49247048 51458044 
1190.367 53935688 56652560 59546460 62517008 65445184 68200400 70656040 
1193.742 72717816 74330088 75489744 76244904 76693576 76970088 77215976 
1197.118 77578096 78181528 79109752 80403328 82045808 83968040 86042840 
1200.493 88103424 89962704 91416656 92286344 92434504 91774608 90287896 
1203.868 88015768 85055288 81536120 77615376 73465656 69247392 65113516 
1207.243 61193828 57578520 54326436 51459316 48967572 46819332 44968844 
1210.619 43370020 41977928 40757304 39683508 38739212 37913944 37201340 
1213.994 36597600 36100972 35711632 35430772 35259140 35195824 35236896 
1217.369 35375120 35601532 35906512 36283164 36726776 37235344 37807728 
1220.744 38441612 39133124 39876984 40667564 41500012 42370992 43277032 
1224.120 44213580 45173692 46147948 47126796 48103928 49078108 50055480 
1227.495 51047620 52070832 53141204 54274548 55484796 56784216 58185116 
1230.870 59698880 61335228 63101044 64998856 67027620 69183856 71464856 
1234.245 73870064 76401720 79062760 81855136 84777168 87823712 90986552 
1237.621 94253720 97608544 101024096 104453032 107826352 111045464 113984088 
1240.996 116511504 118497936 119837848 120472736 120397400 119670392 
1243.889 118403320 116764752 114956584 113181288 111643536 110514496 
1246.782 109917552 109937952 110615104 111955528 113944240 116556392 
1249.675 119762360 123522904 127786440 132471528 137448576 142546208 
1252.568 147533520 152126112 156027504 158922016 160517168 160594560 
1255.461 159019568 155780288 150985760 144860384 137704512 129839424 
1258.354 121603232 113297656 105172216 97440400 90254400 83712000 77866144 
1261.729 72721144 68245024 64376988 61042636 58160036 55647852 53438256 
1265.105 51474088 49712616 48127360 46702840 45434408 44325740 43387924 
1268.480 42637556 42093928 41778520 41709284 41896036 42335412 43006416 
1271.855 43868476 44856520 45889312 46871448 47696252 48266120 48497764 
1275.230 48335368 47764228 46810920 45542800 44048016 42430284 40788672 
1278.606 39199844 37720984 36383712 35197764 34158980 33254608 32469220 
1281.981 31785414 31187084 30659690 30190086 29768676 29389932 29051234 
1285.356 28752374 28493520 28272978 28087928 27933626 27806474 27704396 
1288.731 27627836 27578158 27556198 27560258 27585536 27626000 27675542 
1292.107 27730602 27790648 27857768 27934192 28021018 28117444 28221280 
1295.482 28331154 28447456 28573028 28711980 28868470 29043936 29237580 
1298.857 29446876 29670146 29907516 30161528 30435344 30731418 31048974 
1302.232 31384536 31732906 32090112 32454972 32829646 33217694 33621704 
1305.608 34041280 34472628 34910336 35349096 35786644 36223660 36662380 
1308.983 37104104 37547512 37988400 38421632 38843660 39254860 39659660 
1312.358 40066180 40484356 40923656 41393792 41905088 42467040 43087748 
1315.733 43768048 44495960 45239696 45948276 46558564 47001136 47220612 
1319.109 47185892 46895736 46377320 45677756 44854680 43960564 43041024 
1322.484 42132336 41260452 40446716 39708196 39057424 38501996 38043480 
1325.859 37678560 37400244 37200440 37073212 37012952 37014108 37070040 
1329.234 37171276 37307552 37469808 37651384 37849088 38061348 38286196 
1332.610 38518328 38749572 38969556 39169820 39345540 39496908 39627168 
1335.985 39740076 39836924 39915232 39970300 39997840 39997620 39975020 
1339.360 39939784 39902224 39870880 39849124 39836232 39829660 39828568 
1342.735 39835036 39854356 39892528 39954824 40044232 40162300 40310792 
1346.111 40493848 40717996 40991596 41322432 41714612 42169284 42685004 
1349.486 43260740 43897136 44596112 45359252 46184064 47062208 47980760 
1352.861 48922696 49871916 50814804 51737304 52622832 53447288 54175632 
1356.236 54768352 55184988 55394108 55383080 55161320 54761248 54230320 
1359.612 53629372 53024944 52479344 52055924 51813456 51801732 52062724 
1362.987 52621412 53482928 54632760 56039160 57657668 59426956 61271960 
1366.362 63098744 64788520 66220768 67284576 67903264 68057832 67788992 
1369.737 67189272 66371104 65454624 64544724 63716328 63023084 62494780 
1373.113 62140848 61950920 61891688 61908884 61924668 61853556 61619116 
1376.488 61160600 60451576 59502224 58360556 57101764 55816316 54597324 
1379.863 53517444 52629492 51966436 51545568 51377596 51470172 51829472 
1383.238 52464204 53391308 54641064 56262768 58315948 60849072 63865772 
1386.614 67287288 70938568 74544200 77792424 80397424 82131352 82871800 
1389.989 82593000 81354784 79277504 76521408 73269216 69688040 65944612 
1393.364 62204580 58623356 55356092 52529264 50212304 48406152 47047140 
1396.739 46038376 45268780 44644288 44103720 43616940 43184208 42821232 
1400.115 42544728 42359960 42257692 42217304 42214780 42228696 42245020 
1403.490 42261160 42284684 42332200 42422612 42575056 42805436 43123972 
1406.865 43536756 44044088 44638412 45300260 45995016 46675904 47283636 
1410.240 47761196 48067836 48186368 48129468 47932284 47644740 47314856 
1413.615 46981344 46671664 46399476 46170280 45984668 45840260 45732236 
1416.991 45653312 45596820 45559764 45549348 45584968 45695168 45905368 
1420.366 46224784 46643920 47137616 47675356 48228540 48780832 49331044 
1423.741 49891728 50482056 51117464 51802068 52525376 53267076 54003708 
1427.116 54717840 55398816 56044176 56658712 57253440 57847092 58465628 
1430.492 59147304 59938296 60882276 62016576 63360900 64919360 66685624 
1433.867 68656864 70843224 73264552 75940400 78864848 81981008 85178712 
1437.242 88323816 91302976 94050744 96540728 98758016 100679664 102254648 
1440.617 103410568 104077960 104200760 103757976 102767136 101280352 
1443.510 99373792 97130912 94642080 91985496 89217192 86374728 83478664 
1446.886 80551520 77641840 74833512 72240120 69985456 68163496 66825880 
1450.261 65976628 65578496 65561196 65825224 66257820 66728236 67101240 
1453.636 67253936 67062884 66413188 65209956 63408904 61073148 58404256 
1457.011 55731020 53378380 51543812 50264200 49464172 49035412 48882200 
1460.387 48939864 49165148 49522324 49977520 50491060 51018368 51519488 
1463.762 51961732 52329364 52627660 52882560 53132100 53412888 53756888 
1467.137 54185164 54707092 55322632 56022652 56790864 57599252 58409824 
1470.512 59171380 59811804 60249636 60407632 60237264 59740396 58966800 
1473.888 57993120 56892040 55724388 54540220 53383400 52304396 51356600 
1477.263 50583596 50017072 49668296 49531608 49593560 49841072 50268512 
1480.638 50879692 51686432 52702548 53938464 55395768 57067904 58943080 
1484.013 61013428 63280896 65761416 68485088 71488064 74800568 78436400 
1487.389 82387144 86625400 91117928 95834408 100752784 105846800 111078928 
1490.764 116384352 121674784 126851632 131824344 136520304 140864016 
1493.657 144779024 148170816 150913344 152882688 153990512 154235728 
1496.550 153721952 152647312 151252560 149742512 148273088 146945584 
1499.443 145819648 144942960 144356512 144089024 144151904 144523568 
1502.336 145146832 145914176 146667376 147193424 147183232 146246416 
1505.229 143945776 139901536 134014624 126610888 118364248 109979608 
1508.122 101911376 94292544 87049496 80046936 73192976 66474116 59977212 
1511.498 53855676 48261084 43321400 39092080 35553092 32633926 30237258 
1514.873 28264030 26619414 25226322 24030806 22998724 22120170 21397488 
1518.248 20832342 20413832 20113394 19884368 19676648 19452114 19204632 
1521.623 18965874 18789212 18718220 18763436 18904372 19102896 19323782 
1524.999 19545268 19768288 20011236 20300666 20653874 21071362 21538760 
1528.374 22037268 22554356 23088694 23650000 24252184 24905308 25610622 
1531.749 26359296 27136172 27926736 28723486 29528864 30348424 31186264 
1535.124 32037176 32887504 33715904 34498852 35216344 35847308 36373692 
1538.500 36777800 37040988 37145572 37080648 36854728 36498228 36056540 
1541.875 35574520 35078952 34572616 34036656 33445024 32780010 32047126 
1545.250 31276594 30512932 29794190 29133252 28516660 27910800 27281368 
1548.625 26607754 25896916 25181026 24505364 23904756 23388890 22942690 
1552.000 22537500 22147784 21762702 21391676 21058352 20787568 20591018 
1555.376 20460996 20371466 20286674 20161774 19945352 19587452 19052936 
1558.751 18353414 17561852 16787504 16121740 15602839 15225093 14956514 
1562.126 14757820 14591563 14428863 14255200 14072021 13896071 13751074 
1565.501 13657444 13621885 13635630 13679088 13730998 13775151 13805865 
1568.877 13828680 13857516 13908695 13993243 14117783 14284750 14495423 
1572.252 14751136 15051865 15395129 15773058 16175285 16592309 17020070 
1575.627 17465604 17944882 18478622 19078522 19745542 20474056 21257448 
1579.002 22092836 22981710 23926986 24925976 25965010 27020006 28054172 
1582.378 29025230 29893246 30620934 31178148 31544522 31707774 31666536 
1585.753 31429738 31017798 30459654 29790924 29053536 28286732 27523190 
1589.128 26784280 26076496 25394206 24725054 24057386 23384308 22704628 
1592.503 22021058 21337658 20658634 19989134 19339302 18726486 18172126 
1595.879 17699396 17323410 17046812 16859488 16744113 16684713 16672490 
1599.254 16709264 16804344 16968144 17206152 17517106 17896230 18341316 
1602.629 18858240 19462684 20175068 21016514 22001398 23135836 24419482 
1606.004 25848560 27419556 29124572 30947270 32858592 34811388 36746464 
1609.380 38603748 40327444 41881588 43253860 44455840 45515828 46468136 
1612.755 47340792 48145164 48871888 49490020 49955624 50216660 50226552 
1616.130 49958896 49415836 48624116 47620596 46434396 45080280 43561588 
1619.505 41876952 40026068 38011004 35844684 33551034 31171028 28774004 
1622.881 26448342 24288940 22376192 20753506 19422904 18351892 17491164 
1626.256 16786608 16191518 15676208 15226260 14841299 14528072 14293207 
1629.631 14137466 14054568 14033212 14059598 14120590 14203021 14293413 
1633.006 14376630 14432940 14440030 14378308 14239312 14034889 13798648 
1636.382 13574056 13394446 13273529 13205106 13171531 13152030 13129354 
1639.757 13094623 13047535 12995195 12947298 12912583 12894389 12889986 
1643.132 12891523 12888314 12868927 12822000 12738056 12610977 12441584 
1646.507 12240425 12028764 11835762 11687877 11603097 11586932 11632058 
1649.883 11720895 11825888 11913096 11938570 11857554 11642847 11311921 
1653.258 10936563 10604171 10371994 10244418 10194314 10186919 10194789 
1656.633 10201268 10198350 10184715 10163005 10137296 10110334 10083033 
1660.008 10053361 10016943 9967442 9898758 9807515 9696164 9574375 9457090 
1663.866 9360725 9297657 9272404 9281307 9313838 9356358 9393228 9410395 
1667.723 9397969 9351077 9271490 9167011 9051290 8939153 8844662 8778421 
1671.581 8745085 8741434 8757594 8777745 8782106 8752523 8679604 8569792 
1675.438 8445514 8335120 8261832 8233061 8241266 8270308 8304519 8335086 
1679.295 8362817 8397238 8450346 8530187 8634345 8747959 8844492 8893562 
1683.153 8869077 8763815 8599971 8423859 8283142 8202468 8181736 8204662 
1687.010 8251903 8305837 8354170 8390144 8411190 8419197 8420447 8424873 
1690.868 8444265 8488592 8563574 8666826 8788666 8911114 9013536 9076902 
1694.725 9092161 9068004 9032109 9021012 9059038 9149888 9274875 9403623 
1698.583 9498440 9525296 9466911 9335910 9177333 9046182 8981231 8988267 
1702.440 9049599 9136623 9221802 9283507 9307981 9292680 9246341 9185590 
1706.297 9126912 9081741 9053524 9039450 9034138 9032954 9034476 9040837 
1710.155 9055587 9082079 9121565 9172595 9231821 9295659 9361538 9429018 
1714.012 9499049 9572105 9645480 9712462 9761969 9783047 9769356 9724694 
1717.870 9663639 9607538 9574680 9574646 9607368 9665401 9738891 9818734 
1721.727 9898758 9976358 10051496 10126409 10203879 10286860 10377356 
1725.102 10476967 10586007 10702884 10823461 10941388 11048810 11139227 
1728.478 11209738 11262918 11307194 11352393 11406236 11468660 11529800 
1731.853 11568896 11558586 11474410 11306310 11072568 10818603 10602337 
1735.228 10464612 10415094 10437629 10503037 10581253 10644407 10673509 
1738.603 10659858 10606073 10525238 10435288 10352924 10286928 10238108 
1741.979 10201369 10170502 10140077 10107993 10075776 10046545 10023962 
1745.354 10010094 10004703 10005517 10009212 10012196 10011484 10005245 
1748.729 9991243 9967510 9931370 9881709 9820157 9753022 9691285 9646191 
1752.586 9626677 9634910 9666214 9709311 9748685 9769966 9762002 9722254 
1756.444 9657337 9581997 9512765 9460782 9429052 9411851 9398375 9375555 
1760.301 9333438 9267733 9181258 9083432 8986846 8904993 8846690 8815378 
1764.159 8809089 8821769 8844120 8865120 8875299 8868298 8844289 8809663 
1768.016 8775987 8754585 8750528 8760062 8769969 8762835 8720879 8634581 
1771.874 8507750 8358628 8212698 8091223 8004780 7951256 7920919 7902259 
1775.731 7887715 7874388 7863456 7856709 7854077 7852390 7846317 7830528 
1779.588 7802865 7765623 7724911 7687979 7659178 7638675 7622219 7604111 
1783.446 7579059 7545140 7504786 7463457 7427492 7402180 7390586 7393248 
1787.303 7409561 7438143 7476738 7521237 7565235 7600065 7615576 7602796 
1791.161 7557446 7482503 7388698 7290703 7203172 7135430 7089287 7060997 
1795.018 7044092 7032339 7021327 7008565 6993379 6975533 6954658 6929777 
1798.875 6899713 6863391 6821181 6774196 6725264 6677685 6634921 6599596 
1802.733 6573525 6557042 6549170 6547859 6550213 6553375 6555494 6555494 
1806.590 6553779 6551021 6547657 6542981 6535278 6522228 6502114 6474905 
1810.448 6442250 6408050 6376174 6350049 6330918 6318209 6310107 6304123 
1814.305 6298811 6293534 6288625 6285398 6285028 6288693 6297534 6312192 
1818.163 6332969 6359563 6390935 6425402 6460847 6495825 6529527 6561246 
1822.020 6590815 6616955 6637410 6648883 6649186 6638353 6620656 6603431 
1825.877 6594348 6598486 6615610 6639732 6660289 6665874 6648244 6605449 
1829.735 6543620 6474131 6409900 6359698 6325404 6302879 6285297 6266102 
1833.592 6241463 6211212 6177232 6143154 6111397 6083037 6057971 6036434 
1837.450 6019165 6008582 6007944 6019938 6046043 6085725 6135962 6192120 
1841.307 6248925 6299618 6337541 6357378 6357210 6339895 6314041 6291954 
1845.165 6285163 6299955 6336533 6389758 6451296 6513348 6571776 6626409 
1849.022 6680881 6739802 6806338 6880155 6957553 7033080 7102220 7163388 
1852.879 7218399 7271025 7324601 7381082 7439323 7496998 7551917 7604010 
1856.737 7655334 7709935 7771189 7841189 7919433 8004409 8094836 8190279 
1860.594 8292192 8402069 8519915 8643200 8766791 8884092 8989383 9078594 
1864.452 9150362 9204441 9240046 9254329 9242347 9197638 9115847 8997535 
1868.309 8850376 8687649 8526403 8381565 8261326 8166745 8092507 8030634 
1872.167 7972414 7911065 7841560 7761508 7670341 7569517 7461907 7351728 
1876.024 7243363 7139910 7042441 6948900 6855278 6757234 6652012 6540357 
1879.881 6426982 6317773 6219245 6135021 6065195 6006836 5956109 5910024 
1883.739 5867705 5830965 5802556 5784557 5777573 5779857 5788889 5801884 
1887.596 5816693 5831637 5845674 5857663 5866731 5873045 5878284 5885808 
1891.454 5899175 5921411 5953086 5992054 6033108 6070437 6099602 6117748 
1895.311 6125511 6125343 6120033 6111700 6102190 6092412 6084986 6083507 
1899.168 6092008 6113682 6149203 6195751 6247816 6298341 6342383 6377821 
1903.026 6406302 6431489 6458022 6489333 6526701 6569858 6617426 6667961 
1906.883 6720150 6772345 6822224 6867262 6904898 6934053 6954994 6970516 
1910.741 6983176 6995062 7006477 7016108 7022539 7025469 7027187 7031834 
1914.598 7043283 7062715 7087973 7112358 7128626 7130546 7117747 7095618 
1918.456 7073424 7059583 7057831 7065443 7075276 7078745 7069922 7048806 
1922.313 7020890 6995096 6979136 6977149 6987722 7006376 7028130 7050625 
1926.170 7074502 7103331 7140112 7186429 7240466 7299497 7360120 7421054 
1930.028 7482739 7546657 7613013 7680290 7743799 7798007 7838929 7864300 
1933.885 7875232 7874219 7864907 7849995 7831136 7811028 7792879 7781781 
1937.743 7783232 7801144 7835555 7881912 7932155 7978017 8013691 8038025 
1941.600 8055746 8074109 8099596 8136089 8181330 8230731 8277569 8317320 
1945.458 8348157 8372275 8393860 8418251 8451156 8497580 8561411 8645397 
1949.315 8749176 8870058 9000410 9130735 9251520 9356392 9442969 9514899 
1953.172 9577965 9638332 9699349 9760376 9817276 9864998 9900623 9924183 
1957.030 9939675 9953949 9973477 10003211 10044578 10098192 10161174 
1960.405 10231561 10306234 10382175 10455890 10523404 10582272 10631810 
1963.780 10673169 10708895 10740480 10768433 10790817 10805118 10809976 
1967.156 10807665 10804710 10809160 10829270 10868338 10924432 10990694 
1970.531 11058020 11119510 11173087 11220721 11268087 11321580 11385351 
1973.906 11461788 11552529 11660716 11791228 11949196 12136830 12349566 
1977.281 12574958 12793096 12983758 13132153 13231716 13285588 13302875 
1980.656 13295393 13273460 13243194 13208078 13169722 13129354 13089295 
1984.032 13053613 13025376 13007758 13003013 13012880 13038862 13083900 
1987.407 13149980 13237796 13345173 13466828 13594842 13723064 13846707 
1990.782 13966245 14085164 14209218 14343375 14489873 14647832 14813700 
1994.157 14983300 15152315 15317414 15476326 15626539 15766220 15894912 
1997.533 16013984 16125282 16232241 16336368 16437013 16530486 16610725 
2000.908 16673384 16716151 16743043 16760366 16779032 16808548 16855528 
2004.283 16922564 17007630 17107568 17218112 17336548 17461154 17591870 
2007.658 17727730 17867572 18011014 18158098 18309934 18468596 18634684 
2011.034 18806718 18982212 19156634 19327732 19496264 19665726 19842644 
2014.409 20031846 20235572 20451132 20672082 20889842 21097936 21292348 
2017.784 21470800 21633198 21779006 21905836 22011508 22094824 22156152 
2021.159 22198102 22223034 22231788 22222512 22190986 22132896 22045984 
2024.535 21931798 21795694 21644030 21481870 21311452 21131780 20940812 
2027.910 20737868 20526020 20312436 20105828 19916490 19750118 19608770 
2031.285 19490580 19392588 19310550 19243284 19190260 19151440 19125332 
2034.660 19108366 19095346 19082744 19069242 19057574 19052520 19059686 
2038.036 19082364 19120208 19168756 19220876 19269052 19306740 19328840 
2041.411 19333726 19320354 19290252 19246158 19193410 19136690 19081844 
2044.786 19031886 18987198 18945902 18904198 18859072 18809106 18755270 
2048.161 18698224 18636900 18565828 18476306 18357940 18202602 18009048 
2051.537 17783924 17540046 17292100 17054908 16835860 16634893 16445272 
2054.912 16257316 16062599 15858002 15645294 15430902 15222725 15025899 
2058.287 14842018 14669594 14506351 14350397 14201789 14062678 13935142 
2061.662 13819478 13713626 13613782 13516525 13420042 13325288 13236327 
2065.038 13156163 13087042 13028005 12974779 12922037 12865002 12800501 
2068.413 12727855 12647715 12560496 12466578 12365759 12257670 12143236 
2071.788 12024028 11903220 11783159 11664936 11547663 11429538 11308044 
2075.163 11181858 11051835 10920015 10789798 10663491 10542958 10428126 
2078.539 10318924 10215074 10117320 10026471 9943371 9867032 9795993 9727201 
2082.396 9658014 9587112 9514899 9442936 9373286 9307609 9246274 9188805 
2086.253 9134119 9081132 9029774 8979268 8928228 8874285 8814363 8745288 
2090.111 8665812 8577126 8482950 8388794 8300669 8222693 8157291 8104760 
2093.968 8063780 8032726 8010045 7994014 7982100 7970693 7955777 7933741 
2097.826 7902461 7862613 7818079 7773381 7732871 7699345 7672769 7651220 
2101.683 7632167 7613755 7594974 7575889 7556604 7536543 7514461 7489548 
2105.541 7462041 7434199 7409527 7392102 7384890 7387889 7398809 7413470 
2109.398 7427997 7439963 7449502 7458435 7468648 7481323 7495953 7510618 
2113.255 7523428 7533205 7540184 7545815 7551310 7557042 7562335 7565302 
2117.113 7564021 7557177 7544297 7525721 7501718 7472390 7437502 7397495 
2120.970 7353481 7308831 7267251 7232683 7207484 7191650 7182353 7175649 
2124.828 7168137 7157459 7143480 7127447 7110337 7092756 7073828 7052309 
2128.685 7026951 6998564 6969338 6942099 6920553 6907154 6903551 6910587 
2132.542 6929003 6960617 7005905 7063994 7132129 7204081 7272238 7330599 
2136.400 7375892 7408954 7434132 7456446 7479031 7501819 7521878 7535296 
2140.257 7539240 7534756 7524137 7511393 7497673 7482065 7460322 7427964 
2144.115 7383373 7329757 7274428 7225238 7189326 7167598 7157190 7150520 
2147.972 7141156 7126302 7107239 7088108 7072582 7061469 7051601 7036144 
2151.830 7008397 6964119 6902676 6826802 6740105 6646696 6550146 6455567 
2155.687 6373080 6319151 6313738 6378493 6526667 6757504 7051366 7376195 
2159.544 7695163 7975317 8197774 8356230 8456225 8508899 8528024 8526233 
2163.402 8513596 8497884 8484233 8474536 8467880 8460954 8449365 8429163 
2167.259 8399772 8363154 8322792 8282770 8244407 8206486 8166475 8121876 
2171.117 8072657 8022263 7976532 7941233 7920817 7915215 7921965 7936947 
2174.974 7956587 7979535 8005928 8035899 8067763 8097907 8121910 8137237 
2178.832 8146555 8156886 8178596 8220769 8288477 8377612 8479165 8579525 
2182.689 8667334 8736734 8788125 8827077 8859946 8892175 8924271 8954137 
2186.546 8978186 8993577 8999633 8997400 8988841 8975852 8958771 8937394 
2190.404 8912399 8884667 8855686 8826368 8796679 8763782 8724700 8676156 
2194.261 8617715 8552794 8487477 8428217 8381328 8349812 8332890 8327925 
2198.119 8331776 8341639 8356602 8376024 8399536 8425616 8451900 8476394 
2201.976 8498323 8518394 8539074 8562425 8588920 8617005 8643909 8666353 
2205.833 8683322 8696033 8707763 8722502 8743091 8770915 8804625 8843140 
2209.691 8885174 8931069 8981366 9035694 9091586 9143898 9185184 9210025 
2213.548 9216117 9205591 9185217 9163626 9147824 9141191 9142444 9146267 
2217.406 9146098 9137401 9118182 9090910 9059985 9030924 9007311 8990533 
2221.263 8979471 8971049 8961747 8947575 8925861 8895556 8856903 8812943 
2225.121 8767636 8725950 8692077 8668990 8656653 8653543 8656112 8661520 
2228.978 8667841 8675176 8684539 8697249 8713678 8732204 8750393 8765134 
2232.835 8774601 8779367 8780754 8781937 8785555 8793501 8806180 8823967 
2236.693 8846284 8873371 8905128 8941825 8982246 9025072 9067869 9108606 
2240.550 9146132 9180581 9212022 9241501 9269426 9295185 9318002 9337298 
2244.408 9352837 9365364 9375724 9384730 9392619 9398849 9402776 9404233 
2248.265 9404030 9403521 9404774 9408872 9415610 9423567 9430542 9434470 
2252.123 9435215 9433488 9432201 9434605 9443375 9459833 9483065 9510361 
2255.980 9537422 9560013 9573765 9575629 9563909 9538776 9502606 9459054 
2259.837 9412901 9368072 9327751 9292714 9262419 9234834 9208401 9182273 
2263.695 9157468 9135811 9119670 9110906 9109654 9114967 9124746 9136589 
2267.552 9148872 9160480 9171004 9180210 9188264 9195236 9201868 9209111 
2271.410 9218791 9231821 9249218 9269933 9292274 9313499 9331102 9343662 
2275.267 9351178 9354970 9356426 9357441 9358863 9361301 9365465 9371797 
2279.125 9381345 9394718 9411749 9431016 9450081 9466267 9477578 9483200 
2282.982 9483911 9481473 9477646 9472905 9466979 9458309 9445577 9428307 
2286.839 9407178 9384019 9361437 9341293 9324433 9310790 9299620 9290311 
2290.697 9282694 9277144 9274029 9273420 9274537 9276060 9276568 9275417 
2294.554 9272438 9268884 9265905 9264586 9265872 9269832 9276533 9285877 
2298.412 9297927 9312687 9330053 9349282 9368987 9387912 9405181 9421298 
2302.269 9437619 9456481 9480016 9509108 9543587 9581793 9621800 9662046 
2306.126 9701891 9741806 9782911 9826190 9872184 9920420 9969916 10019486 
2309.984 10068079 10114980 10159547 10201233 10239228 10273018 10302637 
2313.359 10328967 10353840 10379698 10408815 10442924 10482535 10527308 
2316.734 10576025 10627531 10681115 10736948 10795369 10857229 10923006 
2320.110 10992971 11066416 11141504 11215178 11282811 11338483 11375930 
2323.485 11390522 11380046 11346475 11296210 11239047 11186006 11147760 
2326.860 11132258 11142660 11178731 11236021 11308928 11391372 11478356 
2330.235 11566583 11653432 11736962 11815061 11885682 11946982 11997357 
2333.611 12036257 12063954 12081021 12088551 12087767 12079727 12065964 
2336.986 12047738 12026549 12003557 11979236 11953590 11926071 11895932 
2340.361 11862390 11825139 11783840 11737813 11685937 11626102 11555116 
2343.736 11469885 11367766 11248296 11114207 10971766 10831309 10704922 
2347.112 10605088 10543603 10528225 10562954 10646852 10774886 10937854 
2350.487 11123692 11320185 11515373 11700029 11869133 12020520 12155060 
2353.862 12274200 12379328 12471830 12552243 12621893 12682716 12736658 
2357.237 12785554 12830157 12869951 12903503 12929240 12946205 12954569 
2360.613 12954705 12947332 12932176 12909374 12878245 12839474 12794665 
2363.988 12746996 12699502 12654674 12613364 12574139 12535020 12493448 
2367.363 12448302 12399715 12349498 12299218 12250104 12201880 12153219 
2370.738 12102520 12048385 11990340 11929034 11865625 11801033 11736145 
2374.114 11671028 11605513 11539565 11473627 11407971 11343380 11279852 
2377.489 11217354 11155646 11094492 11034230 10975572 10919642 10867421 
2380.864 10819554 10776212 10737049 10702170 10671471 10645698 10625562 
2384.239 10611403 10603084 10600029 10601115 10605529 10612897 10623117 
2387.615 10636665 10653541 10673475 10695242 10717555 10739529 10760960 
2390.990 10782631 10806137 10832803 10863480 10898066 10935578 10974892 
2394.365 11014756 11054656 11094797 11135453 11176690 11218647 11260708 
2397.740 11302297 11343040 11382461 11420149 11455392 11486726 11512447 
2401.115 11530855 11540825 11542356 11536707 11526057 11512311 11497545 
2404.491 11482473 11467334 11452093 11436988 11422564 11410081 11400454 
2407.866 11394671 11393141 11395624 11401882 11412020 11425932 11444404 
2411.241 11467470 11495333 11527316 11562942 11601940 11644345 11691042 
2414.616 11742511 11799263 11860790 11925492 11991635 12057412 12121702 
2417.992 12184126 12245264 12305524 12365520 12424774 12482809 12538669 
2421.367 12591910 12641984 12689028 12732767 12772860 12808452 12838484 
2424.742 12862238 12879610 12891283 12898144 12901455 12902308 12901386 
2428.117 12899338 12896677 12894629 12894492 12897530 12904561 12916030 
2431.493 12931528 12950200 12971433 12994102 13018103 13042994 13068398 
2434.868 13093770 13118801 13142945 13166682 13190966 13217062 13245926 
2438.243 13277936 13312578 13348692 13385424 13422194 13459446 13498170 
2441.618 13539325 13583047 13628860 13675191 13720055 13762975 13803778 
2444.994 13844038 13885602 13929737 13976749 14025238 14072569 14116003 
2448.369 14153383 14183576 14206547 14223084 14234279 14241093 14244585 
2451.744 14246058 14246914 14249173 14254481 14264033 14277627 14293960 
2455.119 14310877 14326390 14338924 14348547 14356492 14365055 14376391 
2458.495 14392557 14414785 14443285 14477849 14517863 14562506 14610890 
2461.870 14662260 14716139 14772527 14831767 14895062 14963579 15038351 
2465.245 15119893 15207901 15301247 15398596 15498920 15601706 15706955 
2468.620 15815699 15928939 16047470 16171880 16302345 16439145 16582428 
2471.996 16732162 16888940 17052634 17223526 17402036 17589142 17786858 
2475.371 17998100 18226166 18473852 18743508 19036144 19351498 19688712 
2478.746 20047146 20426126 20826222 21248016 21692060 22157930 22643466 
2482.121 23144850 23656332 24171080 24680302 25174952 25646016 26084060 
2485.497 26480954 26829498 27123156 27357020 27526578 27628826 27662372 
2488.872 27628154 27530144 27374948 27171796 26932002 26665954 26383658 
2492.247 26093138 25800244 25509728 25225444 24951348 24691980 24452080 
2495.622 24235820 24047160 23888512 23761942 23668860 23610676 23589404 
2498.998 23607350 23667600 23772932 23925866 24129082 24384468 24693908 
2502.373 25058888 25480740 25959840 26495710 27086584 27728836 28417600 
2505.748 29145404 29902296 30676012 31450004 32204610 32918348 33566284 
2509.123 34124032 34568488 34877768 35034808 35028380 34853856 34515320 
2512.499 34025260 33404980 32679866 31879146 31032354 30164654 29297798 
2515.874 28448058 27626142 26839224 26091062 25382650 24713478 24081132 
2519.249 23482822 22915130 22374970 21860882 21372568 20910944 20477668 
2522.624 20074700 19702998 19362514 19052208 18771152 18517556 18290234 
2526.000 18088074 17910076 17754758 17620058 17504204 17405004 17321202 
2529.375 17251588 17195430 17151616 17118978 17095884 17080720 17072106 
2532.750 17069486 17072658 17081410 17095988 17115048 17137588 17161924 
2536.125 17186296 17210220 17233558 17256656 17279998 17303686 17327236 
2539.500 17350410 17373308 17397034 17423110 17453186 17488336 17528282 
2542.876 17571752 17616678 17661124 17704540 17747682 17792522 17841678 
2546.251 17897266 17959940 18029354 18103932 18182354 18263416 18346984 
2549.626 18433298 18522914 18615906 18712132 18810940 18911502 19013296 
2553.001 19115740 19218588 19321566 19424012 19525480 19626242 19727198 
2556.377 19830192 19938066 20053602 20179304 20316082 20463636 20620446 
2559.752 20784580 20954408 21129032 21308912 21495308 21689794 21893916 
2563.127 22108594 22333772 22568526 22811124 23059796 23312598 23567644 
2566.502 23823858 24079906 24334634 24586250 24832538 25070156 25295786 
2569.878 25505686 25697266 25868536 26018902 26148666 26258298 26348558 
2573.253 26419326 26470564 26502226 26514798 26509798 26489792 26458310 
2576.628 26419504 26377532 26335636 26296596 26262064 26232742 26209160 
2580.003 26191810 26181534 26180372 26191070 26216764 26260936 26326342 
2583.379 26414608 26525928 26659330 26813144 26985028 27173736 27378830 
2586.754 27600612 27840280 28099026 28377698 28676620 28995368 29332502 
2590.129 29686074 30053216 30430190 30812758 31195308 31572420 31938736 
2593.504 32288868 32618464 32923068 33198238 33439406 33641428 33799204 
2596.880 33908740 33967320 33974164 33930560 33839104 33703512 33527016 
2600.255 33313456 33066388 32789480 32487218 32164790 31827912 31482636 
2603.630 31134896 30789746 30452014 30125730 29814312 29521096 29249134 
2607.005 29001214 28780342 28588564 28428318 28301410 28208974 28151804 
2610.381 28129958 28142756 28188502 28265020 28369846 28499818 28651772 
2613.756 28822544 29008368 29205150 29408546 29613776 29816512 30013130 
2617.131 30201096 30379124 30547058 30705740 30856334 31000610 31140592 
2620.506 31278338 31416200 31556100 31699472 31846736 31997048 32148660 
2623.882 32298684 32443654 32579568 32701910 32805846 32885824 32935400 
2627.257 32948126 32917634 32838508 32707482 32523212 32286834 32001756 
2630.632 31673022 31307076 30910766 30491358 30056232 29612002 29165284 
2634.007 28721788 28286662 27864162 27457640 27069162 26699706 26349930 
2637.383 26019184 25706442 25410648 25130924 24866080 24615492 24378546 
2640.758 24154860 23943862 23744828 23556766 23378608 23209230 23047602 
2644.133 22893020 22744990 22603324 22467742 22338238 22214944 22098030 
2647.508 21987528 21883916 21787612 21699060 21618746 21546908 21483644 
2650.884 21428920 21382626 21344586 21314586 21292174 21276968 21268372 
2654.259 21265728 21268616 21276514 21289180 21306720 21328716 21355200 
2657.634 21385688 21419662 21456318 21495378 21536078 21578664 21623378 
2661.009 21670708 21721282 21775662 21834508 21898342 21967312 22041380 
2664.385 22120310 22203716 22290940 22381600 22475384 22572086 22671568 
2667.760 22774110 22879540 22987894 23098898 23212446 23328050 23445716 
2671.135 23565338 23686810 23809998 23934724 24060924 24188490 24317532 
2674.510 24448224 24581200 24716672 24854746 24995462 25138718 25284582 
2677.885 25433414 25585914 25743004 25905744 26074948 26251010 26434048 
2681.261 26623748 26820086 27023074 27233386 27451638 27678722 27915146 
2684.636 28161704 28418624 28686176 28964766 29254980 29557520 29873014 
2688.011 30202446 30546348 30905998 31282290 31676446 32090008 32524176 
2691.386 32979690 33456438 33953884 34470192 35003132 35549244 36105112 
2694.762 36665624 37224660 37775124 38308232 38814348 39283440 39704712 
2698.137 40067708 40362856 40581264 40716216 40763924 40723964 40599196 
2701.512 40396896 40127012 39801152 39432428 39033716 38616928 38193384 
2704.887 37773248 37364604 36974420 36607260 36265336 35948980 35656992 
2708.263 35387164 35137224 34905776 34691572 34494116 34312820 34147256 
2711.638 33996376 33858984 33734024 33620196 33516746 33423052 33338390 
2715.013 33262156 33193518 33132326 33078544 33033278 32997992 32974112 
2718.388 32962710 32964352 32977722 33000994 33031494 33066638 33104040 
2721.764 33141874 33179284 33215836 33251640 33287484 33324152 33362794 
2725.139 33404622 33450678 33501570 33558016 33620236 33688760 33764424 
2728.514 33848704 33943136 34048840 34166756 34296576 34437548 34588152 
2731.889 34747240 34913928 35087900 35269240 35458092 35654404 35857532 
2735.265 36066372 36279996 36497468 36718192 36941948 37168312 37397068 
2738.640 37627356 37858272 38088508 38316992 38542080 38762180 38974992 
2742.015 39177832 39367268 39540024 39693020 39823888 39931320 40014876 
2745.390 40074392 40110804 40125088 40118580 40093396 40052556 39999508 
2748.766 39938696 39874620 39811320 39752748 39702024 39661328 39632468 
2752.141 39616500 39614028 39625100 39649132 39685436 39732488 39788988 
2755.516 39853124 39922968 39996600 40071344 40144636 40214132 40277272 
2758.891 40332424 40378712 40415876 40444352 40464792 40478212 40486032 
2762.267 40489816 40491452 40493632 40498652 40509056 40526624 40552304 
2765.642 40586392 40628884 40680152 40740780 40811968 40895840 40994548 
2769.017 41109956 41243728 41396852 41569688 41762468 41975156 42207076 
2772.392 42457648 42725656 43009744 43308328 43619944 43943512 44277816 
2775.768 44621924 44974796 45335420 45702528 46074992 46451468 46830996 
2779.143 47212300 47594272 47974948 48352480 48723892 49086792 49438220 
2782.518 49775668 50096980 50400332 50684348 50948464 51192760 51418696 
2785.893 51628628 51826260 52015732 52201068 52386180 52574288 52767792 
2789.269 52968568 53178648 53399472 53632144 53876796 54132164 54395196 
2792.644 54661392 54924444 55177724 55415000 55631016 55821816 55986276 
2796.019 56125084 56241872 56341640 56432300 56522112 56619792 56734108 
2799.394 56872552 57041376 57245464 57488600 57772788 58099504 58468316 
2802.770 58878080 59326324 59809828 60325120 60868476 61436516 62026092 
2806.145 62633732 63255564 63887036 64522312 65155396 65779500 66387944 
2809.520 66974736 67533400 68057992 68542704 68981664 69369664 69702664 
2812.895 69977208 70191168 70342688 70430712 70454368 70413176 70307712 
2816.271 70139952 69913640 69634160 69307824 68941928 68543984 68121168 
2819.646 67681144 67232040 66782064 66339648 65913148 65508984 65132492 
2823.021 64786636 64472304 64189344 63936396 63712148 63515476 63345648 
2826.396 63202748 63086792 62998564 62938920 62909396 62910812 62943636 
2829.771 63007564 63101204 63222176 63367688 63534684 63720556 63922964 
2833.147 64140604 64372568 64618268 64877808 65151820 65441720 65749392 
2836.522 66077500 66428596 66805520 67210848 67647104 68117256 68625392 
2839.897 69176008 69774792 70428456 71143280 71925936 72782960 73721232 
2843.272 74748768 75875328 77111368 78468032 79954632 81575576 83326776 
2846.648 85192208 87142960 89131752 91098672 92973896 94678672 96141072 
2850.023 97299848 98111704 98559576 98651880 98422232 97920160 97208656 
2853.398 96356904 95428592 94484960 93578768 92749856 92029312 91436904 
2856.773 90981072 90661824 90472184 90400776 90433296 90555680 90754960 
2860.149 91017928 91332624 91686984 92067648 92461112 92853616 93231312 
2863.524 93582384 93896472 94165968 94386992 94559032 94686296 94775920 
2866.899 94838656 94887096 94933352 94989392 95064312 95165288 95296896 
2870.274 95461824 95660504 95892248 96154184 96442536 96752408 97078864 
2873.650 97417720 97765792 98120760 98480624 98842664 99203256 99557272 
2877.025 99899568 100226184 100535800 100831016 101117728 101405672 
2879.918 101705704 102028536 102384312 102780984 103224112 103717256 
2882.811 104261416 104855312 105495688 106177080 106893016 107636336 
2885.704 108399800 109176848 109960776 110745928 111525936 112295176 
2888.597 113049048 113784848 114501928 115202584 115890728 116571392 
2891.490 117248904 117927088 118608904 119296464 119992576 120700784 
2894.383 121425056 122170240 122940584 123739616 124570000 125433456 
2897.276 126331448 127264872 128234312 129239112 130276784 131342992 
2900.169 132431568 133534584 134643568 135749296 136842720 137914992 
2903.063 138957424 139962272 140923872 141838432 142705344 143526064 
2905.956 144304096 145043248 145747440 146419936 147064336 147684800 
2908.849 148287392 148879664 149470128 150067536 150678608 151307584 
2911.742 151955008 152617376 153286192 153947152 154581728 155164832 
2914.635 155667888 156063344 156326176 156439632 156398544 156209696 
2917.528 155889280 155459728 154945088 154365280 153733328 153055168 
2920.421 152329312 151549824 150708896 149800720 148824080 147784336 
2923.314 146694224 145574224 144450832 143350736 142301296 141325072 
2926.207 140436736 139644720 138949760 138347936 137831504 137390832 
2929.100 137015968 136695888 136419856 136177728 135960448 135761328 
2931.993 135576448 135403840 135243536 135095584 134959120 134832144 
2934.886 134710752 134589872 134464080 134327856 134175880 134003472 
2937.779 133805632 133578744 133320824 133032024 132715048 132374344 
2940.672 132015776 131644536 131263640 130874144 130475016 130063504 
2943.565 129636256 129190296 128722608 128230256 127710688 127161560 
2946.458 126581984 125973272 125339928 124690528 124036000 123390912 
2949.352 122770912 122191536 121668776 121217864 120852312 120585208 
2952.245 120427128 120386032 120466000 120666664 120982320 121400648 
2955.138 121903640 122467136 123059776 123648520 124197696 124673216 
2958.031 125049160 125308184 125445904 125469728 125398624 125258880 
2960.924 125078008 124884400 124701472 124545104 124424848 124342024 
2963.817 124291200 124260592 124234440 124195184 124124624 124008008 
2966.710 123834880 123599760 123302752 122949384 122549152 122114056 
2969.603 121658472 121197896 120745936 120315128 119914352 119547896 
2972.496 119215840 118914712 118638256 118379552 118131632 117888448 
2975.389 117644448 117394248 117132904 116855328 116557912 116238784 
2978.282 115898648 115540744 115170520 114794752 114420296 114053784 
2981.175 113701752 113369792 113063960 112789832 112551808 112353144 
2984.068 112194552 112074496 111988896 111931608 111895936 111873728 
2986.961 111856672 111836264 111802616 111746128 111657040 111524872 
2989.854 111340760 111096688 110786128 110405664 109955144 109439320 
2992.748 108867096 108252512 107612600 106964264 106322480 105697704 
2995.641 105094088 104510440 103941968 103383032 102828464 102276240 
2998.534 101726896 101182800 100647328 100123032 99611824 99114664 98632288 
3001.909 98165496 97715504 97283800 96871624 96479608 96107424 95753600 
3005.284 95416536 95093640 94782272 94479408 94182176 93887216 93591712 
3008.659 93292968 92988424 92676144 92354048 92020184 91672784 91310456 
3012.035 90932952 90541072 90137200 89724368 89306352 88887072 88469904 
3015.410 88057720 87654040 87261832 86884424 86524768 86184416 85862848 
3018.785 85557624 85263936 84975984 84687640 84394104 84091360 83776560 
3022.160 83447464 83101520 82735488 82346288 81930192 81485392 81010544 
3025.536 80506768 79976344 79422168 78847768 78256072 77649528 77030256 
3028.911 76399384 75757832 75105920 74444056 73771920 73089616 72397216 
3032.286 71695144 70984208 70265128 69539104 68807664 68072568 67336464 
3035.661 66602336 65873660 65154164 64446776 63754244 63078060 62419180 
3039.037 61777688 61153432 60546028 59954576 59378136 58815776 58266120 
3042.412 57728204 57201652 56686044 56181532 55687816 55204172 54729116 
3045.787 54260996 53798216 53339752 52885552 52436648 51994372 51559816 
3049.162 51133192 50713800 50300096 49890576 49484228 49081076 48682044 
3052.538 48288192 47900652 47519668 47145112 46776120 46412012 46052780 
3055.913 45698772 45350724 45009708 44676460 44351280 44034260 43725940 
3059.288 43426736 43137400 42858864 42591544 42335488 42090536 41855864 
3062.663 41631676 41418140 41216076 41026228 40848844 40683172 40527716 
3066.039 40379948 40237684 40099284 39964016 39832240 39705004 39583904 
3069.414 39470164 39364912 39268896 39182328 39105208 39037304 38978328 
3072.789 38927876 38885476 38851268 38825616 38809056 38802284 38805144 
3076.164 38817100 38836196 38859676 38885004 38909288 38930924 38948828 
3079.540 38962708 38972564 38978508 38980356 38977892 38971620 38961800 
3082.915 38949404 38935200 38919760 38902944 38883848 38861708 38835580 
3086.290 38805328 38771416 38734392 38695196 38654016 38611136 38566160 
3089.665 38519124 38470428 38420904 38371316 38322380 38273456 38223632 
3093.041 38170984 38113904 38051616 37984312 37913656 37841672 37770612 
3096.416 37701576 37635232 37570704 37506544 37441024 37372908 37301488 
3099.791 37226540 37149184 37070580 36992820 36917780 36847044 36781548 
3103.166 36721872 36667792 36618868 36574964 36535928 36502588 36475632 
3106.542 36455884 36443920 36439704 36442372 36451668 36467056 36488932 
3109.917 36517800 36554488 36599548 36652716 36713508 36780724 36853104 
3113.292 36929252 37008048 37087796 37166616 37242096 37311308 37371756 
3116.667 37421516 37459332 37485084 37498960 37501016 37490900 37467824 
3120.042 37430836 37379664 37315100 37239208 37154632 37064552 36971500 
3123.418 36877016 36781732 36685960 36589560 36493144 36397692 36304704 
3126.793 36215412 36130784 36051068 35975832 35904064 35834572 35766352 
3130.168 35698140 35628612 35557048 35482360 35404024 35322068 35237072 
3133.543 35149656 35060420 34969732 34877160 34781736 34682456 34577964 
3136.919 34467680 34351332 34229312 34102200 33970976 33836416 33699396 
3140.294 33561020 33421800 33282618 33143804 33005680 32868526 32732632 
3143.669 32598708 32467290 32339376 32215602 32096106 31980320 31867274 
3147.044 31755968 31645510 31535934 31428202 31324026 31225178 31133330 
3150.420 31048830 30971182 30898526 30828552 30758908 30688068 30615140 
3153.795 30540162 30464026 30388292 30314314 30242976 30175168 30110742 
3157.170 30049736 29991790 29936694 29884620 29835924 29790818 29749444 
3160.545 29711336 29675856 29641304 29606822 29571426 29534752 29497584 
3163.921 29460776 29425674 29393018 29363132 29335692 29309708 29283868 
3167.296 29256860 29227726 29195866 29161104 29124076 29085738 29047832 
3170.671 29011840 28979288 28950952 28926726 28905690 28885646 28864964 
3174.046 28841842 28815358 28785086 28751522 28715238 28676796 28636764 
3177.422 28595394 28553354 28511600 28471126 28433164 28398426 28367052 
3180.797 28338190 28310816 28284010 28257170 28230474 28204908 28181644 
3184.172 28161598 28145264 28132468 28122252 28114156 28107192 28100900 
3187.547 28095172 28089446 28083934 28078382 28073294 28069228 28067532 
3190.923 28069334 28075662 28087080 28102880 28122428 28144204 28167220 
3194.298 28190766 28215092 28240622 28267920 28297838 28330586 28366450 
3197.673 28405468 28447846 28493662 28542950 28594934 28649260 28704620 
3201.048 28760126 28815180 28869110 28922228 28974612 29026612 29078300 
3204.424 29129956 29181478 29232972 29284258 29334912 29384332 29431132 
3207.799 29474322 29512728 29546136 29575008 29600510 29623992 29646270 
3211.174 29667378 29686502 29702360 29713890 29720488 29723222 29723010 
3214.549 29722334 29721908 29722762 29724216 29725562 29725706 29724002 
3217.925 29720524 29715770 29710520 29705658 29702004 29699946 29699768 
3221.300 29701720 29705516 29710698 29716198 29720774 29723362 29723292 
3224.675 29720986 29717652 29715132 29715274 29719320 29727762 29740396 
3228.050 29756434 29775418 29796994 29821516 29849092 29880042 29914082 
3231.426 29950504 29988596 30027544 30067312 30107830 30149416 30192146 
3234.801 30235872 30280136 30324440 30368500 30412350 30456420 30501274 
3238.176 30547202 30594056 30641414 30688494 30734512 30778470 30819588 
3241.551 30856548 30888032 30911974 30927310 30933394 30930620 30920870 
3244.927 30906602 30890132 30873482 30857436 30841500 30824568 30805360 
3248.302 30782880 30756988 30727968 30696674 30664528 30632882 30603372 
3251.677 30577882 30558044 30545176 30539238 30539914 30544926 30551930 
3255.052 30558682 30563696 30566896 30569028 30571268 30574858 30580370 
3258.427 30587444 30595406 30603834 30612508 30621752 30632314 30644686 
3261.803 30658978 30674910 30691444 30707982 30723912 30739064 30753538 
3265.178 30767266 30780284 30792092 30802338 30811620 30820298 30829476 
3268.553 30840362 30853346 30867540 30881378 30892514 30899060 30899808 
3271.928 30894684 30884722 30871526 30856618 30840682 30823536 30804400 
3275.304 30782382 30757024 30728394 30697526 30666164 30636152 30609130 
3278.679 30586448 30568602 30555094 30544820 30536254 30527258 30515742 
3282.054 30500316 30480268 30455674 30427490 30397070 30366048 30335596 
3285.429 30306426 30278964 30253348 30229406 30207064 30186072 30166360 
3288.805 30147572 30129458 30111276 30092630 30072994 30052078 30029746 
3292.180 30006206 29982170 29958276 29935770 29915466 29898534 29884904 
3295.555 29874362 29865880 29857610 29848062 29835854 29820452 29801714 
3298.930 29780102 29756256 29730530 29703352 29674828 29645384 29615798 
3302.306 29586924 29560286 29537092 29517764 29502408 29490172 29479960 
3305.681 29470456 29460918 29451026 29441026 29431594 29423190 29416594 
3309.056 29411844 29409186 29408584 29410000 29413580 29419858 29428828 
3312.431 29440636 29455386 29472548 29491272 29510636 29529396 29546774 
3315.807 29562098 29575858 29588520 29601184 29615160 29630874 29648506 
3319.182 29667734 29688026 29708924 29730602 29753772 29779144 29807496 
3322.557 29839226 29873546 29909432 29945072 29979294 30010536 30038408 
3325.932 30063016 30084322 30103178 30120224 30136134 30151904 30168134 
3329.308 30185716 30204542 30224080 30243012 30259886 30272924 30281274 
3332.683 30284576 30282978 30276866 30266672 30252462 30234024 30210934 
3336.058 30183336 30151798 30117206 30081054 30044728 30009116 29974572 
3339.433 29941130 29907904 29874468 29839758 29802850 29762928 29718822 
3342.809 29670004 29616082 29557662 29495564 29430884 29365258 29299216 
3346.184 29233504 29168048 29102816 29037770 28972842 28908382 28844676 
3349.559 28781616 28718530 28654710 28589448 28522004 28452586 28381130 
3352.934 28308482 28235352 28162130 28089128 28016318 27944192 27872852 
3356.310 27802658 27734276 27667632 27602802 27539428 27476910 27415038 
3359.685 27353492 27292554 27232400 27173206 27114692 27056680 26998638 
3363.060 26940076 26880712 26820228 26758870 26696994 26634880 26573092 
3366.435 26511806 26451336 26391474 26331518 26271074 26209338 26146026 
3369.811 26081456 26016896 25953474 25892378 25834108 25778058 25722296 
3373.186 25664576 25603522 25538470 25470478 25401934 25335370 25272994 
3376.561 25215364 25161364 25108770 25055448 24999604 24940786 24879798 
3379.936 24818012 24756902 24696644 24637200 24577798 24517600 24456322 
3383.312 24394388 24332284 24270438 24209020 24147330 24084422 24019776 
3386.687 23953422 23885886 23818956 23753964 23692198 23633976 23578524 
3390.062 23524548 23470266 23413928 23354344 23291272 23224888 23156384 
3393.437 23087156 23018534 22951738 22887466 22825930 22766916 22709900 
3396.813 22654950 22601822 22550936 22502392 22455878 22410416 22364332 
3400.188 22315600 22262618 22204448 22141718 22075926 22009242 21943752 
3403.563 21880606 21819840 21760718 21701882 21642392 21581450 21519018 
3406.938 21455378 21390318 21323738 21255324 21184518 21112022 21038600 
3410.313 20966056 20896272 20830532 20769008 20711176 20655054 20598558 
3413.689 20540020 20478502 20414352 20348408 20282438 20218492 20157748 
3417.064 20100728 20047044 19995102 19942716 19887316 19827000 19760626 
3420.439 19689026 19614142 19539030 19466842 19400174 19339858 19285228 
3423.814 19234208 19184270 19132672 19078244 19020498 18959990 18897900 
3427.190 18835508 18773710 18712788 18652740 18593458 18534810 18476410 
3430.565 18417984 18359324 18299876 18239710 18178830 18117748 18057366 
3433.940 17998480 17941878 17887702 17835880 17786098 17737568 17689906 
3437.315 17642800 17596250 17549948 17503860 17457292 17409382 17358996 
3440.691 17305444 17248520 17188432 17126354 17063732 17001842 16941410 
3444.066 16882190 16823186 16762294 16698005 16628765 16554752 16477725 
3447.441 16400365 16325669 16256491 16193718 16136492 16082678 16029043 
3450.816 15972663 15911721 15845768 15775668 15702797 15628908 15554757 
3454.192 15480652 15406183 15330869 15254709 15177979 15101881 15027408 
3457.567 14955554 14886970 14821276 14757512 14694374 14630594 14564871 
3460.942 14496313 14425233 14352451 14279168 14207027 14137739 14072090 
3464.317 14010113 13950505 13892171 13833161 13772209 13708701 13642263 
3467.693 13573646 13502955 13430328 13355868 13279712 13202476 13125289 
3471.068 13049413 12976315 12906848 12840873 12777262 12714514 12650717 
3474.443 12584167 12514796 12442709 12368725 12294242 12220317 12148108 
3477.818 12078399 12011732 11948583 11888474 11830621 11773694 11716537 
3481.194 11657891 11597686 11536434 11475464 11416271 11359535 11305017 
3484.569 11251085 11195594 11136133 11071038 10999870 10923175 10842315 
3487.944 10759160 10676055 10594834 10517871 10446692 10382785 10326558 
3491.319 10277089 10232138 10188140 10141468 10089036 10029388 9962695 
3494.695 9891335 9818124 9745635 9676208 9610587 9549073 9491429 9437958 
3498.552 9388488 9343391 9302327 9264348 9227726 9190294 9150159 9106542 
3502.409 9059478 9010187 8960293 8911081 8863869 8818759 8775514 8733658 
3506.267 8692145 8650062 8605616 8557626 8504608 8446089 8383050 8317455 
3510.124 8252579 8191831 8137811 8091393 8052067 8017268 7984226 7950479 
3513.982 7914338 7875906 7836297 7796995 7759416 7724236 7691015 7658807 
3517.839 7626872 7594602 7562436 7531486 7502999 7478053 7456581 7437401 
3521.697 7418324 7396551 7369354 7334879 7293162 7245385 7193840 7141459 
3525.554 7090297 7041263 6994153 6947082 6897828 6844372 6785437 6720857 
3529.411 6651878 6580387 6509043 6440434 6376779 6319554 6269430 6225732 
3533.269 6186945 6150379 6113346 6073124 6028169 5977911 5923392 5866362 
3537.126 5808566 5751652 5696423 5642947 5591156 5541216 5494001 5450984 
3540.984 5413575 5382811 5358658 5339604 5323168 5305491 5282616 5251728 
3544.841 5210144 5157130 5094132 5023936 4951171 4880597 4817237 4764539 
3548.698 4723169 4691784 4666731 4643087 4615993 4581837 4539647 4490498 
3552.556 4437773 4385456 4337128 4294560 4257986 4226066 4196691 4167685 
3556.413 4137244 4104128 4067905 4028240 3985435 3939626 3891748 3843073 
3560.271 3795674 3752191 3715930 3689663 3675929 3675428 3686890 3706606 
3564.128 3728161 3742966 3742632 3719505 3669581 3594470 3500900 3400237 
3567.986 3303838 3221614 3158462 3114642 3086443 3068556 3056277 3045666 
3571.843 3034588 3022643 3009931 2996819 2982940 2967761 2950013 2928796 
3575.700 2903178 2872925 2838638 2800953 2761437 2721824 2683682 2648244 
3579.558 2616209 2588075 2563544 2542779 2525949 2514118 2508919 2511685 
3583.415 2523183 2542680 2567277 2592175 2610508 2615975 2602608 2567877 
3587.273 2512951 2443105 2366707 2292620 2228105 2178051 2143453 2122909 
3591.130 2112920 2109557 2108358 2106094 2100201 2089980 2075531 2057686 
3594.988 2036946 2013943 1988512 1960353 1929766 1897351 1864173 1831896 
3598.845 1801684 1774069 1748885 1725398 1702712 1680492 1658971 1639481 
3602.702 1623351 1612442 1608152 1611178 1621122 1637120 1656743 1676534 
3606.560 1692533 1700483 1696957 1680226 1651388 1614338 1574198 1535724 
3610.417 1501643 1472152 1444558 1415238 1381266 1342111 1300368 1260922 
3614.275 1230517 1214335 1215066 1231115 1257698 1287341 1310438 1318115 
3618.132 1303625 1264178 1202374 1125130 1043251 966800 903543 857261 828212 
3622.472 814469 813141 822867 843848 877579 925258 986127 1055640 1124865 
3626.811 1180279 1206527 1191509 1130180 1030896 913172 801854 715621 662125 
3631.151 637834 633288 637834 642281 642048 636706 628842 621641 617859 
3635.490 617991 620447 622603 622106 618157 610957 601268 590020 577346 
3639.830 562416 544136 521411 494840 466180 439778 419646 410990 417523 
3644.170 440906 481008 535046 598083 663120 721396 764113 782800 771349 
3648.509 727669 654658 560260 455832 355342 271850 214529 187579 190131 
3652.849 216319 257328 302652 341680 365688 369203 352291 320391 282327 
3657.188 246819 219999 203291 194208 188142 180949 169314 151979 130070 
3661.528 105743 82213 62627 50167 47516 56961 80490 119232 173491 241647 
3666.350 320657 405650 489599 564672 623002 658740 671383 668164 664282 
3670.689 677921 726175 818651 954778 1125230 1312897 1496523 1649359 1744926 
3675.029 1765053 1705107 1578953 1411249 1227394 1043384 865926 695841 
3678.886 533918 383165 250234 141637 61965 11033 -16036 -26572 -27268 -21536 
3683.708 -9409 11762 44335 88410 140378 193247 238100 266645 274337 261705 
3688.530 234221 200043 166663 138257 115023 96165 80092 67466 59844 58883 
3693.352 65312 77805 93481 108726 120359 127187 130402 132821 137693 147272 
3698.174 161624 178032 191987 198087 192054 171601 137793 94740 49041 7985 
3702.995 -22663 -38731 -38831 -23458 5467 45594 94442 149460 208993 270292 
3707.817 330803 387343 435267 469365 484225 475070 440110 380644 303812 
3712.157 220065 141273 78402 37807 21007 25016 43937 71542 101832 131363 
3716.979 158343 183767 209092 235845 264125 292373 317772 336971 347947 
3721.318 349638 343603 331964 317573 302287 286107 267805 245692 219270 
3725.658 190396 163646 146112 145118 166066 210717 275563 354181 436594 
3729.997 512521 573896 615801 638597 647059 649249 651638 655853 657976 
3734.337 649382 620812 567127 491058 402864 318137 250532 208695 194672 
3738.677 205943 238265 287963 352589 429861 515507 601401 674005 715920 
3743.016 709747 645466 530302 390991 268402 197192 191324 244100 335843 
3747.356 443327 544501 624097 673009 690100 680111 650377 607373 555316 
3751.695 497394 437689 382800 340254 316180 312831 327719 354878 387443 
3756.035 418154 442166 457258 462333 457756 443692 420442 389665 355275 
3760.375 324138 303348 299303 313726 343735 382336 420873 452448 473677 
3764.714 485851 494575 506749 527449 556610 589689 618854 636208 635511 
3769.054 615469 578906 532956 485287 442399 408071 383065 365887 354148 
3773.393 345725 339325 334550 332428 334185 341116 353551 370265 387808 
3777.733 401803 407574 402466 386780 364992 343304 328051 322911 327753 
3782.073 338828 350666 357928 357763 350003 337236 323077 310875 302154 
3786.412 296551 293169 291246 291080 293865 300961 312466 327189 343238 
3790.752 357597 369203 377792 384657 391423 398354 404025 405650 400244 
3795.091 387178 369270 354015 351362 369999 414306 481704 563677 645732 
3799.431 711473 746023 739817 693020 617693 535676 470194 436826 439911 
3803.771 472549 521113 568521 599145 603060 576948 527449 468204 416164 
3808.110 382468 371259 379318 399581 425682 453875 484822 521810 568554 
3812.450 625855 690067 752894 803614 831167 829407 800858 758105 720301 
3816.789 705067 723255 774203 848064 928413 997485 1038767 1040527 1001370 
3821.129 931302 850056 778253 731220 713265 719438 738024 756080 763183 
3825.469 753292 726640 689702 652402 624561 612052 615602 631496 653430 
3829.808 674967 692324 704868 715887 730092 753093 788543 837375 897334 
3834.148 963811 1030331 1089520 1134000 1157853 1157189 1132406 1087793 
3838.005 1031925 975002 925591 888868 865428 851783 842719 832760 817523 
3842.345 794352 763283 726043 686350 648585 617361 596888 589954 598182 
3846.684 621044 657678 706229 765573 835681 916725 1008610 1109119 1211744 
3851.024 1304655 1371826 1393332 1353511 1248859 1095267 924395 771946 
3854.881 663452 605714 592144 609331 644338 686582 729826 771216 809589 
3859.221 844479 875355 901285 921506 935685 944020 946477 942857 931767 
3863.561 912010 884585 853708 827415 815099 824726 859053 913836 978190 
3867.900 1038634 1081249 1096629 1084205 1053547 1021297 1002234 1004891 
3871.758 1026412 1057168 1083541 1093705 1081714 1049296 1004957 960689 
3875.615 928114 913537 917356 934888 958564 980481 993068 992138 977526 
3879.955 953284 927616 909686 908059 926055 962250 1009540 1057134 1093008 
3884.294 1106893 1094038 1058197 1011300 969655 948469 955708 990245 1042985 
3888.634 1101246 1151408 1181807 1186093 1164099 1122041 1070055 1019537 
3892.491 979087 953317 942990 946477 961652 986426 1019404 1059327 1104302 
3896.831 1151807 1199051 1242247 1278534 1306383 1325560 1337525 1343740 
3900.688 1345302 1341878 1331243 1310737 1278368 1233940 1180080 1122074 
3904.546 1066634 1019769 985430 964774 956605 958099 966534 979552 995492 
3908.885 1013426 1032490 1051853 1070786 1088823 1105930 1123170 1141575 
3912.743 1161774 1183801 1205896 1225466 1239356 1245237 1242346 1232012 
3916.600 1217558 1202872 1191177 1184332 1182439 1184764 1190379 1199450 
3920.458 1212441 1230218 1252681 1278401 1303957 1324995 1337259 1338389 
3924.315 1328019 1308809 1285181 1262184 1243509 1231148 1225167 1224237 
3928.172 1226629 1230716 1235103 1238957 1241482 1241881 1239389 1233574 
3932.030 1224536 1213671 1202340 1192506 1185595 1181774 1180844 1181874 
3935.887 1184100 1187123 1191708 1198952 1210082 1226197 1246965 1271057 
3939.745 1295815 1318381 1335397 1344903 1346166 1340383 1329814 1318082 
3943.602 1308411 1303326 1303459 1308012 1314858 1321139 1324430 1322868 
3947.459 1316254 1305586 1292691 1280262 1270359 1264245 1262251 1263846 
3951.317 1268100 1273483 1278867 1282888 1284948 1284416 1281259 1275842 
3955.174 1269063 1262151 1256702 1254309 1255871 1261719 1271622 1284682 
3959.032 1299504 1314360 1328219 1339785 1348659 1354608 1357633 1358098 
3962.889 1356536 1353079 1348493 1342942 1336893 1330944 1325659 1321804 
3966.747 1319644 1319677 1321970 1326025 1331110 1336095 1340150 1342610 
3970.604 1343141 1341945 1339718 1337525 1336195 1336527 1338721 1342776 
3974.461 1348227 1354043 1359361 1363150 1364380 1362452 1357699 1350254 
3978.319 1341812 1333603 1327321 1323931 1323898 1326723 1331210 1336527 
3982.176 1341413 1345402 1348592 1351318 1353877 1356303 1358198 1358730 
3986.034 1357367 1353611 1347728 1340848 1334201 1328983 1326324 1326490 
3989.891 1329348 1334733 1342178 1351484 1362319 1374319 1386684 1398285 
3993.749 1407459 1412944 1413742 1410252 1403404 1395226 1387781 1383227 
3997.606 1382562 1386119 1393498 1403470 1414872 1426507 1437511 
##END=
