
##TITLE=Z382_3_a
##JCAMP-DX=5.01  $$ Nicolet v. 1
##DATATYPE=INFRARED SPECTRUM
##ORIGIN=UniL
##OWNER=Nicolet
##LONGDATE=2011/09/09
##TIME=10:37:23
##SPECTROMETER/DATA SYSTEM=Nicolet iS5
##DATA PROCESSING=
Ratio against background
%Transmittance->Absorbance
Truncated
ElementMultiply or ElementDivide
##COMMENTS=
Number of sample scans: 32
Collection length: 51.19 sec
Sample gain: 2.0
Background collected on: Ven Sep 09 10:32:29 2011 (GMT+02:00);
Number of background scans: 32
Background gain: 2.0
Sample spacing:  1.000
Number of scan points: 12415
Resolution points: 8192
Number of FFT points: 65536
Apodization: N-B fort;
Phase correction: Mertz;
Laser frequency: 15798.0 cm-1
Number of rejected sample scans: 0
Number of rejected background scans: 0
Bench serial number: ASB1000141;
##RESOLUTION=4.000
##XUNITS=1/CM
##YUNITS=ABSORBANCE
##FIRSTX=649.893372
##LASTX=4000.122314
##FIRSTY=0.091430
##MAXX=4000.122314
##MINX=649.893372
##MAXY=0.232839
##MINY=0.000237
##XFACTOR=1.000000
##YFACTOR=1.000000E-009
##NPOINTS=6950
##DELTAX=0.482117
##ZPD=6100
##XYDATA=(X++(Y..Y))
649.893 91429984 91442256 91555360 91796960 92156456 92592104 93055624 
653.268 93516376 93973680 94450744 94975080 95559624 96191680 96839280 
656.643 97468600 98061248 98624144 99182736 99765680 100386312 101035096 
660.018 101686280 102310752 102889816 103423352 103922904 104402176 
662.911 104865568 105303896 105698088 106028928 106280120 106434832 
665.803 106472680 106362096 106064760 105558384 104864760 104064144 
668.696 103261392 102536088 101907480 101339728 100763400 100104880 99314608 
672.071 98375272 97309496 96164600 94996440 93843008 92715888 91606544 
675.446 90502592 89403184 88327432 87304808 86364064 85516704 84753328 
678.820 84048376 83373544 82712432 82066536 81451536 80885704 80379888 
682.195 79930176 79521080 79134120 78757032 78389992 78042384 77726360 
685.570 77447464 77202480 76980608 76772176 76573408 76390536 76233336 
688.945 76109904 76017920 75944472 75869176 75776016 75659304 75527472 
692.320 75396632 75282896 75193136 75121832 75055312 74980208 74893344 
695.694 74803088 74725904 74675720 74655616 74654160 74649360 74618040 
699.069 74546672 74437448 74304808 74167848 74040560 73927256 73822776 
702.444 73719384 73613456 73508976 73415824 73342456 73290048 73249448 
705.819 73204936 73142744 73057744 72957464 72857408 72774272 72718320 
709.194 72690088 72683928 72696472 72732736 72808784 72947232 73168112 
712.569 73480760 73879296 74344008 74845672 75354416 75837928 76260584 
715.943 76585424 76771584 76787440 76628904 76333728 75989064 75708608 
719.318 75612648 75776568 76198624 76782696 77356544 77721088 77687200 
722.693 77142360 76071208 74551672 72723536 70749384 68786040 66945472 
726.068 65297128 63870028 62662556 61655700 60821668 60131152 59554248 
729.443 59063628 58638672 58265248 57936172 57648928 57401160 57186760 
732.817 56996416 56817940 56641120 56461056 56278984 56099824 55927896 
736.192 55764020 55604616 55443272 55275144 55100040 54923164 54753208 
739.567 54597664 54460024 54338904 54229160 54125220 54024048 53925596 
742.942 53831108 53741516 53654564 53566696 53474796 53379428 53285508 
746.317 53201684 53136184 53093756 53073280 53069232 53074064 53082940 
749.692 53095328 53114052 53142028 53178760 53218536 53252692 53272700 
753.066 53275356 53263784 53246740 53233632 53229512 53232692 53236476 
756.441 53232356 53215616 53187864 53156332 53130264 53116712 53117796 
759.816 53131764 53156404 53192244 53244604 53321884 53431812 53577300 
763.191 53756104 53961804 54189668 54441652 54728176 55066076 55472676 
766.566 55961664 56539132 57205244 57960708 58812324 59781004 60907588 
769.940 62254636 63907148 65980524 68603272 71909048 76008168 80938320 
773.315 86616624 92779720 98997416 104650992 109018296 111460448 111506584 
776.690 109017960 104214488 97639120 90021368 82086792 74506512 67754760 
780.065 62084728 57573524 54145112 51640568 49860284 48621040 47770772 
783.440 47191392 46806416 46565352 46435684 46397816 46438044 46545396 
786.815 46711324 46928036 47189252 47491652 47833580 48215876 48639756 
790.189 49106380 49616144 50169872 50769436 51419700 52128136 52905352 
793.564 53762028 54707844 55751400 56900276 58163936 59555768 61093056 
796.939 62798188 64697944 66820704 69200608 71880272 74909888 78354480 
800.314 82288456 86782520 91895128 97647752 104007856 110861608 118006304 
803.689 125157520 131926656 137880160 142581680 145627552 146754512 
806.581 145881168 143143056 138861520 133502456 127610520 121687016 
809.474 116179984 111432312 107640784 104880328 103093352 102117848 
812.367 101692056 101495456 101207232 100514384 99182232 97086448 94211776 
815.742 90651736 86572048 82189512 77718392 73350184 69244640 65505556 
819.116 62191200 59317552 56866964 54799664 53062832 51604856 50375996 
822.491 49334904 48451304 47701464 47067004 46534260 46090944 45728296 
825.866 45441432 45230684 45100204 45057344 45109616 45262532 45518108 
829.241 45874656 46326924 46866096 47479304 48150052 48857356 49576996 
832.616 50286852 50968064 51608812 52202972 52744444 53219700 53602568 
835.990 53849748 53907668 53727116 53271948 52536220 51546424 50360888 
839.365 49055108 47707160 46391476 45162588 44056376 43092284 42275188 
842.740 41600720 41058092 40633288 40309740 40070176 39900008 39787060 
846.115 39722900 39702024 39719816 39770684 39847964 39944360 40054444 
849.490 40176220 40312068 40467156 40647224 40856412 41095972 41364560 
852.865 41660596 41984020 42336764 42722108 43142892 43599652 44090224 
856.239 44611572 45161856 45742764 46360544 47024876 47747432 48539296 
859.614 49412380 50380276 51461252 52682268 54079320 55694932 57580180 
862.989 59786212 62359544 65337180 68732312 72521128 76619856 80880072 
866.364 85071728 88885288 91992784 94068312 94859880 94255040 92293880 
869.739 89173120 85186288 80698208 76068720 71590104 67493344 63913524 
873.113 60901332 58446176 56493844 54969456 53788840 52876756 52170164 
876.488 51618328 51186720 50851604 50597188 50413468 50293364 50231684 
879.863 50225512 50273160 50374544 50529472 50737596 50996792 51304464 
883.238 51657620 52054468 52495236 52981592 53515344 54097596 54727988 
886.613 55405100 56128216 56899408 57724572 58614632 59586672 60662336 
889.987 61869528 63242264 64813720 66611336 68643168 70886368 73272160 
893.362 75682488 77968792 79955432 81479712 82427000 82739056 82429280 
896.737 81566504 80261720 78637760 76810096 74886968 72955272 71086560 
900.112 69342344 67767416 66392764 65233088 64286732 63539328 62968880 
903.487 62553896 62275172 62118368 62072956 62129032 62276164 62505184 
906.862 62808372 63183168 63631348 64158620 64770400 65470652 66261096 
910.236 67143784 68124000 69213896 70430904 71795712 73328328 75042392 
913.611 76945200 79038120 81318784 83783312 86423728 89225656 92161864 
916.986 95189216 98253688 101287008 104214152 106957224 109421672 111497888 
920.361 113061376 113970168 114100712 113377272 111803304 109481656 
923.254 106612248 103479104 100382560 97617384 95437096 94011496 93441016 
926.628 93755584 94926632 96876672 99484320 102600496 106032480 109563136 
930.003 112977816 116057904 118615920 120509424 121630544 121916976 
932.896 121347312 119942392 117771320 114957064 111690544 108207104 
935.789 104785128 101733016 99331440 97835112 97445088 98278320 100372704 
939.163 103666352 108004176 113108880 118588880 123986096 128759056 
942.056 132380696 134428640 134615344 132871736 129343752 124377192 
944.949 118429824 111989192 105528640 99407448 93870640 89054376 84991408 
948.324 81649232 78953664 76818440 75153784 73876584 72919408 72223456 
951.698 71740088 71433456 71273976 71239888 71315984 71489816 71750800 
955.073 72089336 72494584 72956528 73466088 74015536 74598528 75210040 
958.448 75844552 76496504 77160640 77832336 78509640 79193440 79886800 
961.823 80593648 81316736 82056376 82810096 83573968 84344048 85118160 
965.198 85896120 86679232 87468712 88264776 89066664 89873128 90684848 
968.573 91504504 92337152 93189176 94065880 94970832 95905928 96872320 
971.947 97872760 98912896 100000128 101142736 102347072 103616128 104949048 
975.322 106342968 107795264 109305224 110873456 112500456 114182888 
978.215 115912272 117674856 119452080 121225616 122978584 124695336 
981.108 126361936 127962840 129479616 130893904 132189632 133357480 
984.000 134397696 135319360 136137200 136865824 137517504 138101328 
986.893 138623872 139093280 139520976 139920016 140303760 140680880 
989.786 141054352 141421664 141779312 142126240 142467504 142813504 
992.678 143177152 143570192 143999504 144467152 144972016 145512944 
995.571 146090352 146705504 147358304 148043088 148748144 149458080 
998.464 150156256 150831024 151478640 152102320 152709440 153307456 
1001.356 153900576 154490960 155080448 155674704 156284096 156922384 
1004.249 157603776 158338176 159130608 159983136 160899408 161889504 
1007.142 162973296 164176960 165531552 167068496 168813936 170792400 
1010.035 173023808 175519504 178272752 181242512 184341840 187416832 
1012.927 190260320 192644320 194340192 195187552 195127712 194221536 
1015.820 192633728 190598432 188385248 186229680 184318640 182775264 
1018.713 181650288 180942400 180612576 180606000 180861744 181324832 
1021.605 181955968 182727856 183626640 184647600 185787952 187042960 
1024.498 188403696 189855776 191384208 192976704 194625088 196325520 
1027.391 198075232 199867904 201693088 203536048 205380752 207215264 
1030.284 209032896 210831664 212610016 214363248 216080848 217749264 
1033.177 219355072 220890336 222354304 223751632 225087264 226360976 
1036.070 227565104 228685584 229706800 230613760 231394224 232034864 
1038.963 232513520 232796976 232839088 232583392 231977680 230979408 
1041.856 229562320 227718416 225454624 222789280 219749680 216375392 
1044.750 212721680 208854272 204853888 200804736 196781360 192850848 
1047.643 189063840 185454480 182049072 178864688 175912144 173195712 
1050.536 170710112 168440576 166363168 164450256 162674192 161010480 
1053.429 159441632 157953168 156531376 155160624 153821296 152490688 
1056.322 151147968 149773808 148353376 146875824 145331072 143709808 
1059.215 142004416 140210448 138330176 136374864 134364832 132325592 
1062.108 130283760 128264936 126289176 124371232 122523544 120755128 
1065.001 119073024 117482696 115985624 114580048 113260536 112020408 
1067.894 110853136 109753696 108719808 107749440 106840640 105990024 
1070.787 105191504 104438800 103725960 103048824 102405032 101793696 
1073.680 101213176 100660744 100132584 99625408 99138728 98676784 98249616 
1077.055 97871176 97559096 97332304 97207200 97199616 97321944 97581824 
1080.431 97981144 98512472 99157624 99883800 100645664 101391032 102060888 
1083.806 102601136 102969056 103135832 103092680 102851432 102446016 
1086.699 101927376 101361608 100826416 100396288 100141432 100121280 
1089.592 100376960 100936600 101817240 103028488 104580120 106483600 
1092.485 108752928 111401568 114435696 117845592 121593496 125605152 
1095.378 129766864 133908032 137819408 141266128 143993936 145786464 
1098.271 146490656 146044768 144496448 141993568 138765328 135062576 
1101.164 131143480 127238256 123515912 120098632 117056200 114412536 
1104.057 112162424 110279048 108727008 107465400 106455904 105666600 
1106.950 105069440 104643568 104371920 104238664 104228600 104325952 
1109.844 104513472 104775680 105099488 105475752 105900152 106371456 
1112.737 106886952 107437816 107999368 108523320 108938536 109144336 
1115.630 109023664 108469600 107396328 105772480 103632568 101082344 
1118.523 98278864 95396480 92610768 90054224 87806432 85896160 84308032 
1121.898 83001512 81927472 81046392 80332760 79777184 79384056 79168232 
1125.273 79151736 79359120 79816320 80542632 81541480 82789048 84223192 
1128.648 85744560 87206824 88437936 89264920 89520192 89080576 87881024 
1132.024 85921848 83272392 80060440 76464424 72673712 68875952 65238752 
1135.399 61880460 58879068 56270576 54055492 52212312 50706240 49500604 
1138.774 48557380 47841384 47321988 46968940 46754868 46656720 46653920 
1142.149 46730772 46875436 47077680 47327860 47616308 47932324 48266712 
1145.525 48612740 48966200 49325956 49692220 50064964 50443576 50826720 
1148.900 51213896 51606312 52007368 52421884 52853888 53305360 53774776 
1152.275 54258028 54750088 55246392 55744620 56243796 56743700 57242516 
1155.650 57736380 58219552 58685588 59127980 59541556 59921068 60260100 
1159.026 60550524 60781648 60940832 61017396 61002064 60888792 60674796 
1162.401 60358092 59937272 59410812 58778028 58040836 57204600 56279064 
1165.776 55276908 54211968 53098404 51948808 50774652 49587544 48398964 
1169.151 47221092 46066632 44946244 43868620 42839408 41861228 40935708 
1172.527 40063964 39247968 38490592 37794608 37161996 36592480 36083584 
1175.902 35631852 35232796 34883264 34580868 34323576 34108796 33933496 
1179.277 33793184 33684572 33606484 33561772 33556404 33599468 33700648 
1182.652 33867724 34106824 34421948 34816236 35292812 35855300 36507492 
1186.028 37252892 38095020 39039040 40094884 41280200 42619356 44144360 
1189.403 45885628 47863324 50077904 52502416 55080216 57722072 60324016 
1192.778 62773264 64961144 66807716 68265920 69334456 70056080 70516560 
1196.153 70833512 71130472 71535056 72154672 73060048 74282752 75803832 
1199.529 77558248 79430568 81270912 82913472 84178024 84907640 84982384 
1202.904 84328320 82931320 80830976 78116432 74905480 71339336 67572120 
1206.279 63745572 59993304 56427544 53125288 50136548 47480080 45148732 
1209.654 43116800 41348016 39805220 38452400 37260980 36211128 35288604 
1213.030 34484864 33794904 33215478 32744888 32382320 32127182 31978286 
1216.405 31932674 31984634 32126896 32350618 32647430 33011616 33439726 
1219.780 33930164 34482424 35094364 35762288 36481400 37246068 38051724 
1223.155 38894716 39771412 40676768 41603708 42542896 43485220 44424460 
1226.531 45359292 46294668 47240632 48211208 49220440 50282052 51409112 
1229.906 52613108 53905828 55298548 56799660 58414184 60141620 61977784 
1233.281 63915172 65947352 68071016 70286128 72595104 75000056 77500496 
1236.656 80092592 82769160 85519008 88326416 91166880 93998864 96763624 
1240.031 99378504 101739296 103739680 105275560 106264840 106665368 
1242.925 106480048 105764912 104619112 103188184 101643480 100154576 
1245.818 98890720 97990576 97551792 97638368 98275496 99461232 101176072 
1249.193 103392872 106081888 109205432 112716072 116542096 120571960 
1252.086 124661512 128619448 132214296 135208432 137353008 138421536 
1254.979 138249312 136739104 133891296 129799512 124647128 118675576 
1257.872 112141144 105313864 98434992 91705160 85297288 79335928 73902704 
1261.247 69042528 64760632 61032076 57807536 55026092 52620256 50522812 
1264.623 48677704 47037540 45567196 44244832 43057856 42003148 41084352 
1267.998 40312136 39702100 39272520 39043684 39033096 39250432 39693712 
1271.373 40344352 41165944 42099404 43070952 43994148 44772464 45318684 
1274.748 45559064 45445184 44966016 44147588 43051708 41757800 40357660 
1278.124 38937876 37563840 36282696 35118612 34076864 33151458 32329988 
1281.499 31599466 30946738 30360966 29832872 29354976 28921980 28530636 
1284.874 28180018 27869850 27599800 27368384 27172678 27009286 26875248 
1288.249 26769408 26692096 26643828 26624416 26630582 26656264 26694986 
1291.625 26740090 26788298 26839718 26897280 26965002 27046064 27141816 
1295.000 27252438 27378194 27519870 27680206 27862326 28068664 28299854 
1298.375 28554062 28828672 29121772 29433260 29765446 30121538 30503514 
1301.750 30910942 31340942 31788942 32251396 32726880 33216692 33723352 
1305.125 34248168 34790100 35344744 35906728 36470660 37033412 37594800 
1308.501 38155756 38716352 39274732 39826356 40365948 40889104 41394268 
1311.876 41882792 42358940 42828036 43295480 43767608 44251876 44755792 
1315.251 45286100 45842764 46415036 46975108 47479008 47873460 48100780 
1318.626 48116220 47896584 47445076 46788816 45972364 45049440 44068988 
1322.002 43073768 42098272 41167004 40299816 39512692 38816812 38219540 
1325.377 37723332 37325536 37021036 36803444 36666816 36605568 36613712 
1328.752 36684264 36807660 36973556 37172176 37395012 37635920 37889648 
1332.127 38149896 38408236 38654052 38875620 39063260 39211232 39318008 
1335.503 39385772 39418028 39417444 39384756 39319568 39222180 39095452 
1338.878 38946252 38784352 38618632 38456780 38301432 38151956 38006192 
1342.253 37862788 37723080 37591260 37473456 37375148 37302136 37258704 
1345.628 37249752 37281592 37361208 37496608 37694096 37957408 38287424 
1349.004 38683532 39144976 39672400 40267020 40928680 41652972 42430172 
1352.379 43246100 44083220 44925224 45758116 46568008 47339460 48051628 
1355.754 48674556 49175020 49519580 49681852 49651540 49436328 49063788 
1359.129 48574308 48020468 47460120 46947860 46539200 46285524 46229648 
1362.505 46407992 46842328 47538044 48484052 49654588 51011548 52501144 
1365.880 54056132 55591472 57000080 58174504 59016828 59460772 59491964 
1369.255 59147836 58510852 57679312 56757104 55834248 54974196 54221912 
1372.630 53602120 53121804 52771384 52521708 52326636 52119840 51829732 
1376.006 51392248 50758004 49906784 48850128 47633056 46322940 45000376 
1379.381 43746388 42623192 41674200 40925440 40389328 40073956 39985524 
1382.756 40130028 40515784 41158152 42083636 43335424 44965500 47016568 
1386.131 49492916 52326860 55366708 58373440 61077532 63232908 64645456 
1389.507 65212996 64916088 63807852 61991544 59603276 56798528 53720028 
1392.882 50511940 47319328 44278588 41524732 39165428 37256464 35793772 
1396.257 34719280 33949404 33391848 32971002 32638856 32371216 32165930 
1399.632 32030720 31972866 31992018 32079018 32218386 32393814 32592210 
1403.008 32805846 33035460 33288878 33580172 33924684 34337128 34829052 
1406.383 35406828 36073464 36827320 37661140 38557576 39486860 40408240 
1409.758 41269048 42018148 42618076 43052476 43331800 43486796 43560564 
1413.133 43592324 43611960 43636576 43672264 43719712 43778932 43852344 
1416.509 43944028 44059124 44203308 44384308 44614548 44910088 45288712 
1419.884 45762056 46327476 46969416 47662528 48381148 49102368 49814948 
1423.259 50520056 51228888 51955980 52710664 53490496 54280292 55057612 
1426.634 55797780 56483620 57105392 57662552 58162004 58618084 59052924 
1430.010 59494132 59979608 60552964 61254716 62118940 63163660 64391628 
1433.385 65795308 67368304 69114384 71045512 73175216 75498344 77971328 
1436.760 80508176 83003432 85366736 87544416 89512824 91257304 92756832 
1440.135 93968544 94833056 95294216 95306760 94854608 93952944 92645832 
1443.510 90996928 89076304 86959384 84711280 82378288 79991760 77569584 
1446.886 75132944 72725656 70421712 68318736 66521192 65106584 64115720 
1450.261 63548460 63369952 63516780 63899168 64415804 64948836 65377504 
1453.636 65593564 65489680 64968460 63950800 62404260 60391864 58098516 
1457.011 55819820 53843148 52338560 51332248 50751676 50496944 50481236 
1460.387 50645884 50951444 51363832 51849596 52368312 52873536 53323756 
1463.762 53685572 53946456 54118764 54239068 54356064 54513324 54745540 
1467.137 55071864 55498540 56021824 56630852 57308828 58028944 58755120 
1470.512 59437176 60003840 60373628 60468752 60239924 59688384 58863052 
1473.888 57839748 56690576 55476328 54248156 53051752 51939212 50963780 
1477.263 50166296 49572652 49186708 48995760 48980032 49122924 49417464 
1480.638 49867572 50485892 51285784 52276552 53457856 54821316 56354092 
1484.013 58048412 59905964 61941900 64183428 66662252 69404192 72420392 
1487.389 75702328 79225528 82959872 86876776 90952272 95156792 99449776 
1490.764 103768368 108032976 112158776 116070240 119708720 123013416 
1493.657 125923928 128366888 130249232 131486312 132030368 131909328 
1496.550 131231816 130174744 128936664 127677336 126511696 125508888 
1499.443 124706464 124132872 123811080 123754112 123958856 124395144 
1502.336 125005184 125691088 126315624 126700088 126590624 125672328 
1505.229 123598040 120077840 115055336 108820048 101934128 94969384 88280128 
1508.604 81953520 75913128 70038952 64255340 58557868 53030224 47813604 
1511.980 43045668 38841088 35248464 32248966 29779500 27753878 26086770 
1515.355 24697872 23523710 22520958 21662420 20939560 20352992 19901192 
1518.730 19572928 19342490 19170902 19018664 18856994 18685876 18534292 
1522.105 18447266 18458258 18571880 18767518 19011116 19273694 19538858 
1525.481 19810286 20106662 20452104 20861992 21336094 21861162 22420080 
1528.856 23001100 23602034 24230320 24897236 25611008 26373484 27178356 
1532.231 28013138 28865710 29727196 30594944 31467992 32343872 33213332 
1535.606 34060880 34863912 35597036 36237348 36761536 37151856 37395876 
1538.982 37488768 37430508 37227224 36895452 36462332 35962692 35429436 
1542.357 34881828 34319988 33726432 33078614 32361794 31583716 30773456 
1545.732 29973720 29219752 28522004 27865364 27217160 26543784 25827004 
1549.107 25076614 24326538 23623480 23001940 22470186 22011194 21594648 
1552.483 21194332 20799596 20420152 20079488 19801546 19594696 19447022 
1555.858 19327248 19195144 19003328 18702652 18252014 17633862 16880638 
1559.233 16077898 15330663 14712094 14241846 13900416 13650810 13454866 
1562.608 13278653 13098652 12904629 12702061 12509340 12350316 12243594 
1565.984 12193770 12190022 12211626 12237698 12253546 12256511 12255590 
1569.359 12268236 12311456 12395146 12521139 12686777 12888280 13123206 
1572.734 13389764 13685004 14002173 14332657 14669525 15012179 15370619 
1576.109 15763780 16213426 16730510 17313824 17954170 18642018 19372042 
1579.485 20144836 20963830 21829526 22733572 23658012 24572854 25441740 
1582.860 26228942 26899642 27425166 27785066 27965676 27963662 27784996 
1586.235 27446662 26974204 26399890 25762342 25097642 24435710 23795542 
1589.610 23181756 22588246 22002862 21414824 20818332 20213736 19604956 
1592.986 18996994 18394270 17801358 17226696 16685057 16195370 15778279 
1596.361 15447897 15207352 15048469 14956480 14917900 14924930 14979630 
1599.736 15089085 15261401 15499538 15800511 16158329 16570311 17041814 
1603.111 17587556 18226822 18978890 19856378 20863836 21999414 23259004 
1606.487 24638884 26132758 27727070 29397344 31102220 32789230 34404480 
1609.862 35897696 37237044 38412216 39434900 40331408 41133124 41865280 
1613.237 42537416 43141096 43649364 44024728 44224144 44210128 43963352 
1616.612 43487492 42806720 41951432 40944372 39796068 38507464 37076028 
1619.988 35500196 33780580 31928074 29963176 27922954 25869976 23883786 
1623.363 22048456 20433872 19075162 17971266 17090646 16388701 15818242 
1626.738 15339725 14928737 14573985 14275881 14039817 13870995 13769268 
1630.113 13729118 13740095 13789516 13864461 13951052 14035402 14102859 
1633.489 14136610 14120659 14044266 13908148 13730075 13540829 13374934 
1636.864 13253988 13182051 13148410 13136217 13127099 13107838 13071710 
1640.239 13019776 12959212 12899065 12847630 12808145 12778218 12749896 
1643.614 12712228 12653275 12561349 12427946 12250546 12035441 11799092 
1646.990 11566549 11365624 11217354 11132258 11108327 11133856 11189304 
1650.365 11247684 11277302 11239150 11096021 10830867 10471435 10093614 
1653.740 9780234 9577322 9479170 9452892 9461289 9476935 9484487 9477274 
1657.597 9455566 9423397 9385069 9343561 9298469 9246713 9183255 9102380 
1661.455 9000174 8876212 8736261 8591725 8456833 8345084 8264432 8215704 
1665.312 8192203 8182580 8173362 8150741 8104153 8028068 7923551 7798479 
1669.170 7665215 7538465 7429885 7347078 7292017 7261827 7249125 7242656 
1673.027 7228910 7193065 7123102 7016074 6881434 6741889 6622203 6540324 
1676.885 6499894 6491620 6499625 6509345 6512742 6510119 6508874 6518629 
1680.742 6545033 6584895 6625198 6644106 6618536 6532621 6389489 6216253 
1684.599 6055115 5942169 5888864 5885774 5912308 5949626 5982849 6003711 
1688.457 6009456 6000788 5982009 5959469 5941699 5937500 5953691 5993330 
1692.314 6052898 6123024 6187919 6230135 6234875 6197196 6128401 6054846 
1696.172 6008146 6006802 6049403 6115732 6178139 6205262 6173266 6075645 
1700.029 5932327 5785967 5679537 5636536 5651910 5704178 5767063 5817969 
1703.886 5841544 5829857 5784490 5715962 5639960 5571018 5518464 5484471 
1707.744 5465714 5456487 5451387 5447193 5443401 5441489 5443133 5449508 
1711.601 5460178 5473465 5487155 5500141 5511920 5523363 5534974 5544942 
1715.459 5548499 5538867 5509906 5460547 5397538 5335445 5291572 5277619 
1719.316 5296267 5342053 5404852 5473801 5540646 5602030 5657952 5711732 
1723.174 5767366 5827976 5895145 5968471 6046850 6129073 6213632 6298442 
1727.031 6379906 6453381 6513684 6557580 6585467 6601917 6613187 6624626 
1730.888 6636805 6642928 6628730 6575240 6466766 6299450 6091471 5879393 
1734.746 5705555 5596123 5552828 5559104 5590686 5625593 5645700 5640396 
1738.603 5607300 5551385 5483062 5413843 5352686 5303177 5264438 5233048 
1742.461 5205248 5178523 5152201 5126719 5104223 5086488 5074956 5069961 
1746.318 5070430 5074252 5078074 5078376 5072274 5057021 5031143 4994373 
1750.176 4948189 4896480 4845180 4802060 4773617 4763802 4771574 4791909 
1754.033 4815696 4832079 4831978 4809933 4767118 4711479 4655746 4612209 
1757.890 4587128 4579661 4581837 4583143 4572729 4543866 4495587 4433087 
1761.748 4366110 4305503 4260395 4235334 4230282 4241758 4264210 4290845 
1765.605 4314036 4327556 4326920 4312095 4287165 4259994 4238245 4225564 
1769.463 4219676 4212716 4193747 4153201 4087939 4003627 3914984 3838861 
1773.320 3786884 3761549 3756736 3763420 3772912 3781302 3788488 3797613 
1777.177 3810983 3828432 3846516 3860256 3865037 3859888 3847486 3834014 
1781.035 3825423 3824755 3830738 3838794 3843107 3839664 3827730 3810248 
1784.892 3792833 3780968 3778461 3786683 3805434 3833747 3870452 3914683 
1788.750 3963801 4013024 4055865 4084026 4090615 4072588 4032655 3980052 
1792.607 3926920 3884594 3859654 3852601 3859721 3875433 3894657 3913814 
1796.465 3930397 3943304 3951629 3954338 3950693 3940662 3924981 3905823 
1800.322 3886031 3868212 3854673 3846550 3843943 3846784 3854740 3867009 
1804.179 3883056 3901778 3921838 3942033 3961527 3979517 3995969 4010349 
1808.037 4022287 4030481 4034059 4032487 4026434 4017940 4009914 4005299 
1811.894 4005533 4010850 4019545 4028909 4036801 4041751 4043724 4044226 
1815.752 4045564 4050346 4060513 4077605 4102021 4132895 4169191 4209237 
1819.609 4251060 4293623 4336157 4378728 4421170 4462779 4501714 4535027 
1823.467 4559302 4572829 4576078 4573600 4571993 4577651 4594026 4619878 
1827.324 4649550 4674367 4685655 4678319 4652531 4614252 4572528 4536768 
1831.181 4511758 4497495 4489728 4483200 4473860 4459967 4442359 4423246 
1835.039 4404903 4388502 4374277 4362094 4352322 4346766 4348339 4360053 
1838.896 4384083 4420668 4468236 4523074 4580129 4633944 4678487 4708062 
1842.754 4718915 4711378 4690578 4667133 4654205 4662210 4696004 4752848 
1846.611 4825144 4902478 4975503 5039255 5093293 5141539 5189387 5241331 
1850.469 5299152 5361173 5424378 5485947 5545109 5603172 5662148 5723214 
1854.326 5785766 5846950 5904046 5955303 6001998 6047992 6098662 6158042 
1858.183 6227648 6306477 6391439 6479580 6569320 6660895 6755586 6853797 
1862.041 6954052 7052813 7145535 7228371 7298756 7356311 7401270 7433323 
1865.898 7449704 7445390 7414010 7350818 7254852 7131657 6992402 6850903 
1869.756 6720722 6609957 6521151 6451431 6395138 6345913 6297937 6246505 
1873.613 6188424 6121344 6044867 5960073 5869351 5775794 5682424 5590921 
1877.470 5501148 5411327 5319545 5224765 5128027 5032484 4941754 4859018 
1881.328 4785878 4721461 4663549 4610435 4562014 4519726 4486447 4464821 
1885.185 4455649 4457691 4467667 4481761 4497027 4511691 4524949 4536567 
1889.043 4547148 4556322 4564860 4574069 4585521 4600589 4619242 4639871 
1892.900 4658994 4672592 4677650 4674267 4665324 4655578 4649885 4651325 
1896.758 4659463 4672056 4685621 4698483 4711211 4726820 4748459 4778441 
1900.615 4816299 4858683 4901071 4939810 4973224 5002685 5030774 5060441 
1904.472 5093931 5131681 5173124 5217219 5262963 5309583 5355672 5399082 
1908.330 5436657 5465647 5484203 5493027 5494739 5493195 5491585 5491685 
1912.187 5493195 5494806 5495712 5496014 5497591 5502222 5510275 5519605 
1916.045 5525980 5524538 5512155 5490075 5463365 5439342 5424344 5420016 
1919.902 5423640 5429343 5431155 5425921 5414917 5403510 5398578 5405254 
1923.760 5424814 5455010 5490746 5527692 5563098 5596694 5629420 5662048 
1927.617 5694610 5726034 5755815 5785061 5816458 5852995 5897093 5947577 
1931.474 6000755 6050545 6091068 6119328 6135458 6142146 6142650 6139121 
1935.332 6131392 6118824 6101417 6081995 6066472 6062406 6075947 6108843 
1939.189 6157033 6212287 6264691 6306745 6334885 6351091 6360942 6369819 
1943.047 6381957 6398635 6418878 6441712 6467237 6496733 6532419 6575207 
1946.904 6624357 6677954 6733947 6790688 6848546 6908298 6970213 7033315 
1950.761 7095248 7153350 7206406 7255964 7305663 7360659 7423784 7494807 
1954.619 7570461 7645048 7713679 7773854 7826547 7874186 7919096 7961447 
1958.476 7998908 8028237 8047139 8056422 8060370 8064387 8073738 8091291 
1962.334 8116609 8147939 8184133 8225192 8272638 8327892 8389571 8453014 
1966.191 8510892 8555430 8582634 8593888 8596017 8598519 8609131 8632418 
1970.049 8668348 8714288 8766621 8824203 8887068 8956064 9030959 9109586 
1973.906 9189583 9270271 9355613 9454043 9575697 9727675 9907810 10105416 
1977.763 10300194 10469704 10598060 10677550 10710423 10705668 10674629 
1981.139 10625902 10566180 10499031 10428126 10358556 10296530 10248591 
1984.514 10218467 10207068 10212122 10230068 10259312 10300126 10355876 
1987.889 10429721 10521775 10628245 10741397 10852370 10955421 11049116 
1991.264 11136949 11226603 11324912 11435695 11558314 11689613 11824799 
1994.640 11960436 12094411 12226077 12354543 12478854 12596241 12704859 
1998.015 12803572 12893194 12975564 13052691 13124230 13188883 13244116 
2001.390 13287262 13318693 13341004 13359523 13380675 13409004 13447654 
2004.765 13497487 13557647 13627561 13707060 13795878 13894019 13999641 
2008.141 14110903 14225138 14342109 14462502 14588959 14724570 14869208 
2011.516 15021817 15178323 15335605 15493152 15653709 15821747 16002880 
2014.891 16197776 16403325 16611792 16814782 17004942 17179710 17340480 
2018.266 17490820 17632964 17767010 17889876 17998512 18090216 18165562 
2021.642 18225924 18273266 18305026 18317158 18301812 18251460 18163178 
2025.017 18038266 17883316 17706850 17518416 17323754 17126766 16929246 
2028.392 16732611 16539985 16355567 16184501 16030589 15895704 15780272 
2031.767 15683353 15606067 15550567 15519901 15515505 15534736 15570315 
2035.143 15610876 15645361 15666349 15673151 15669852 15665352 15667276 
2038.518 15679780 15702935 15732961 15764399 15793569 15818242 15837383 
2041.893 15850544 15856285 15850786 15830716 15793743 15740314 15674284 
2045.268 15601224 15527490 15459090 15399592 15350022 15309417 15275300 
2048.644 15242492 15203474 15149810 15072344 14964574 14824430 14655852 
2052.019 14467674 14271224 14077635 13894156 13722483 13558502 13395676 
2055.394 13227821 13052247 12871657 12692031 12520355 12361430 12216330 
2058.769 12082010 11953930 11828237 11703398 11580773 11464000 11356747 
2062.145 11260844 11176554 11102616 11037730 10980908 10931942 10890388 
2065.520 10854172 10820064 10783480 10739631 10685734 10622133 10550426 
2068.895 10474185 10396699 10319229 10242349 10165007 10086086 10005143 
2072.270 9922217 9837238 9749803 9658421 9561402 9457632 9347285 9232431 
2076.128 9116421 9003455 8896876 8798810 8710129 8630525 8559012 8494606 
2079.985 8435717 8380010 8325156 8268418 8208816 8146623 8084067 8025098 
2083.843 7972684 7927904 7889639 7854347 7817708 7777024 7731791 7683089 
2087.700 7633718 7584959 7535936 7483312 7422807 7351324 7268970 7178984 
2091.557 7087401 7001123 6925198 6862112 6811286 6771235 6739600 6714967 
2095.415 6696292 6682395 6671325 6660054 6645855 6627452 6605416 6582305 
2099.272 6561684 6545470 6533361 6522766 6509379 6490309 6465051 6435760 
2103.130 6406806 6382663 6365481 6354924 6349006 6344803 6341004 6338012 
2106.987 6337743 6341744 6350452 6362422 6374929 6386328 6396315 6406873 
2110.844 6421098 6441039 6466363 6494244 6519470 6537498 6546479 6547320 
2114.702 6544024 6541535 6543149 6549742 6559127 6567032 6569488 6563702 
2118.559 6548464 6524683 6493908 6457888 6418408 6377418 6337507 6301165 
2122.417 6270808 6247110 6228690 6212522 6194541 6172023 6144599 6114355 
2126.274 6085254 6061197 6044330 6033914 6027397 6021080 6013084 6002905 
2130.132 5992491 5984730 5982278 5986443 5998101 6017284 6044531 6081222 
2133.989 6128805 6187012 6253160 6322042 6387236 6443192 6486441 6516812 
2137.846 6537094 6550348 6559362 6565788 6570161 6572448 6572852 6571338 
2141.704 6567267 6558723 6540963 6510186 6463571 6402065 6331490 6261295 
2145.561 6200355 6155118 6127460 6113380 6106424 6101552 6097116 6095637 
2149.419 6101753 6117950 6142818 6169872 6188961 6190272 6167519 6118925 
2153.276 6047421 5957285 5852895 5738188 5618343 5502591 5407569 5354732 
2157.134 5368620 5466653 5652145 5908949 6205565 6503728 6766523 6970819 
2160.991 7108316 7182959 7208056 7199668 7175380 7148735 7131691 7130613 
2164.848 7148061 7179490 7216276 7247238 7261523 7252797 7220589 7169720 
2168.706 7108653 7043788 6980449 6918364 6855481 6790317 6723717 6661231 
2172.563 6611034 6580623 6575812 6596535 6637814 6692422 6751749 6809199 
2176.421 6860933 6905706 6943817 6976880 7007083 7037020 7070427 7111179 
2180.278 7161569 7222273 7290804 7362984 7433997 7500032 7558694 7609979 
2184.135 7653715 7689396 7715770 7731488 7736379 7733343 7727137 7723663 
2187.993 7727912 7740831 7759349 7777227 7786976 7783198 7764375 7732635 
2191.850 7692465 7648926 7604516 7560515 7516922 7473064 7429548 7388395 
2195.708 7351054 7318198 7289253 7261726 7233559 7204115 7174639 7148634 
2199.565 7128862 7116669 7110573 7107340 7103028 7094912 7084269 7074199 
2203.423 7069383 7073357 7086727 7107575 7132264 7157055 7181073 7205328 
2207.280 7232313 7264657 7302765 7344921 7387755 7428368 7464131 7495481 
2211.137 7523833 7551007 7577879 7604415 7628930 7649432 7664709 7673983 
2214.995 7677491 7675973 7669802 7659516 7645689 7628659 7609540 7588702 
2218.852 7565774 7539611 7508157 7469727 7424357 7374341 7323489 7277056 
2222.710 7239354 7212436 7195558 7185385 7177401 7168508 7156752 7142066 
2226.567 7126268 7110539 7096124 7083797 7074131 7068507 7069518 7078947 
2230.425 7097909 7125460 7158739 7192930 7223621 7247811 7264286 7274023 
2234.282 7278235 7278067 7274159 7266274 7255156 7243161 7233897 7232279 
2238.139 7242622 7266578 7302597 7346842 7393451 7437267 7475120 7506370 
2241.997 7532464 7555659 7578384 7601717 7625658 7649027 7670341 7687743 
2245.854 7699918 7705753 7705146 7698536 7687574 7674691 7662652 7653479 
2249.712 7648353 7646465 7646195 7646363 7646060 7646161 7649095 7657054 
2253.569 7671791 7693173 7719244 7746329 7770615 7788291 7796894 7794836 
2257.427 7781241 7756347 7720931 7677423 7629840 7583105 7542342 7510955 
2261.284 7490458 7478896 7472626 7467705 7461266 7453176 7445558 7441244 
2265.141 7442221 7448356 7456749 7463558 7464671 7458165 7444850 7427964 
2268.999 7411111 7397765 7389440 7385834 7385564 7387485 7391192 7396821 
2272.856 7405449 7417481 7433019 7451255 7471581 7493695 7517731 7543724 
2276.714 7571742 7600503 7628086 7651861 7670274 7682414 7689632 7693713 
2280.571 7697355 7702718 7710576 7720459 7731285 7741202 7748555 7751658 
2284.428 7749095 7739414 7721943 7696310 7663630 7626266 7587319 7550400 
2288.286 7518270 7492515 7473064 7458704 7447952 7439188 7431638 7424728 
2292.143 7418358 7412392 7406258 7399450 7391496 7382227 7371544 7359749 
2296.001 7346943 7332958 7318097 7302698 7288074 7275944 7268262 7266240 
2299.858 7269913 7277898 7287636 7296431 7301856 7303338 7301384 7297576 
2303.716 7293566 7290635 7289287 7289354 7290635 7293061 7296902 7302765 
2307.573 7310617 7320085 7329992 7338990 7345932 7350448 7352638 7353514 
2311.430 7353615 7353279 7352537 7350650 7347313 7342461 7336597 7330363 
2315.288 7324197 7318232 7311762 7304248 7295184 7284637 7273518 7263208 
2319.145 7254819 7249933 7249058 7252359 7259502 7268936 7278573 7284839 
2323.003 7283559 7270721 7243498 7201656 7147792 7088007 7029409 6979742 
2326.860 6945365 6929205 6931427 6949237 6979068 7016815 7059650 7105723 
2330.718 7153350 7201453 7247642 7289658 7325208 7352638 7371544 7382227 
2334.575 7385699 7382700 7373499 7358199 7336867 7310010 7278909 7245048 
2338.432 7210111 7175077 7140381 7106194 7072414 7039444 7007824 6978126 
2342.290 6950281 6923616 6896818 6869315 6842117 6818522 6803713 6803510 
2346.147 6823268 6864939 6927016 7004120 7089320 7174235 7250809 7313043 
2350.005 7356716 7380104 7383474 7369960 7344550 7312537 7280122 7251584 
2353.862 7229652 7214491 7204250 7196535 7187878 7175986 7160356 7141425 
2357.719 7120475 7099828 7081002 7065409 7053386 7044664 7038838 7035134 
2361.577 7032844 7031463 7031261 7033046 7037963 7047560 7062950 7084639 
2365.434 7111819 7143143 7176357 7210246 7243464 7276315 7309774 7344955 
2369.292 7383003 7424627 7469693 7517596 7568202 7620971 7675669 7732297 
2373.149 7790484 7849860 7909513 7968837 8026887 8083426 8137709 8189434 
2377.007 8238328 8284121 8327047 8367682 8406495 8444400 8481462 8517110 
2380.864 8550327 8579559 8603892 8623258 8638738 8652394 8666590 8683120 
2384.721 8702895 8725376 8749615 8774263 8798607 8822546 8846758 8871850 
2388.579 8897924 8924440 8950416 8974770 8996791 9016952 9036540 9057313 
2392.436 9081132 9109045 9141631 9178517 9218791 9261336 9304799 9347894 
2396.294 9389233 9427461 9461695 9491734 9517914 9541283 9562791 9583487 
2400.151 9603439 9621630 9636942 9647817 9652764 9651578 9644294 9632098 
2404.009 9616380 9598968 9581861 9566788 9555339 9548531 9546364 9547481 
2407.866 9549920 9551749 9551546 9549818 9548294 9550157 9558490 9575290 
2411.723 9600661 9632674 9668551 9705075 9740653 9775355 9810871 9849678 
2415.581 9894081 9945337 10003211 10066586 10133803 10202862 10272271 
2418.956 10340436 10405761 10466785 10522081 10570796 10613203 10650078 
2422.331 10682949 10713547 10742653 10769995 10794825 10815920 10832259 
2425.707 10843708 10850978 10855190 10857331 10858452 10858860 10859029 
2429.082 10859233 10860219 10863004 10868372 10877001 10888960 10903876 
2432.457 10921238 10940708 10962149 10985699 11011663 11039905 11069849 
2435.832 11100679 11131340 11161188 11189916 11217796 11245644 11273902 
2439.208 11303317 11334299 11367189 11401917 11438451 11476043 11513740 
2442.583 11549671 11582509 11611060 11635359 11656733 11677394 11700029 
2445.958 11726886 11759124 11796777 11838452 11882140 11925867 11967213 
2449.333 12004681 12036394 12060888 12077138 12084599 12084360 12078296 
2452.708 12069745 12062319 12058809 12060683 12067940 12078876 12091140 
2456.084 12102826 12113184 12122622 12132707 12145450 12162862 12186103 
2459.459 12215375 12250172 12289232 12330987 12373804 12416796 12459349 
2462.834 12501803 12545183 12591228 12641779 12698069 12760576 12829167 
2466.209 12902684 12980241 13061330 13146429 13236464 13333043 13436684 
2469.585 13547289 13663633 13783735 13905924 14029071 14153691 14281496 
2472.960 14414785 14556202 14707672 14870614 15045348 15232059 15431005 
2476.335 15642682 15867831 16108193 16364994 16639953 16934760 17250486 
2479.710 17588004 17947472 18327662 18726592 19141330 19567660 20001382 
2483.086 20437448 20870476 21294436 21702614 22086804 22438782 22749806 
2486.461 23011336 23215904 23358294 23435574 23447848 23398158 23292810 
2489.836 23139434 22947476 22726520 22485154 22230882 21970170 21708012 
2493.211 21449076 21197914 20958406 20734878 20530606 20348442 20190270 
2496.587 20057280 19950314 19870356 19819268 19799188 19813094 19864148 
2499.962 19955446 20089934 20270010 20497850 20775090 21103290 21482984 
2503.337 21913466 22392798 22917610 23482928 24083164 24711762 25360940 
2506.712 26022138 26683570 27330694 27946276 28508770 28994874 29381708 
2510.088 29646732 29772260 29746994 29567416 29239138 28776092 28200560 
2513.463 27537382 26814448 26058834 25292484 24534076 23797256 23090266 
2516.838 22418058 21782664 21184032 20620828 20091010 19591958 19121038 
2520.213 18675982 18254674 17855730 17478470 17122734 16788778 16477484 
2523.589 16189454 15925469 15686238 15471759 15281616 15115123 14970610 
2526.964 14846236 14740098 14650266 14575150 14513547 14464249 14426089 
2530.339 14397386 14376288 14360773 14349164 14340362 14334232 14331458 
2533.714 14332965 14339848 14352588 14371048 14394166 14421088 14450032 
2537.090 14479527 14508647 14536056 14561479 14584504 14605407 14624974 
2540.465 14644302 14664796 14687348 14712745 14741092 14772046 14805162 
2543.840 14840270 14876992 14915500 14955829 14997739 15041129 15085517 
2547.215 15130940 15177431 15225848 15277257 15332997 15393584 15459673 
2550.591 15531130 15607235 15687132 15769724 15854325 15940249 16026568 
2553.966 16113281 16200356 16288275 16377863 16469946 16565457 16664468 
2557.341 16767150 16873130 16982340 17095264 17213114 17337548 17470606 
2560.716 17613538 17767010 17930516 18103032 18283184 18470222 18663254 
2564.092 18862670 19067960 19278612 19493560 19711318 19930192 20148378 
2567.467 20364346 20576566 20782912 20981322 21169212 21343854 21503352 
2570.842 21646016 21771098 21878306 21966928 22036604 22086944 22117868 
2574.217 22130456 22126758 22110234 22084330 22052606 22017782 21981532 
2577.593 21944796 21908414 21873812 21842590 21817330 21800048 21792732 
2580.968 21796670 21812628 21841372 21884160 21942392 22018060 22112220 
2584.343 22225406 22356656 22503894 22665178 22838468 23023146 23219576 
2587.718 23429350 23654270 23895724 24154406 24430454 24722704 25029334 
2591.094 25347312 25672872 26001242 26326376 26642420 26943108 27222944 
2594.469 27477474 27702878 27896068 28054312 28175034 28255932 28295292 
2597.844 28291932 28246208 28159230 28033424 27871334 27676568 27452944 
2601.219 27204566 26936094 26652460 26358204 26058376 25757384 25459166 
2604.594 25167752 24886710 24619492 24369712 24140078 23933324 23751200 
2607.970 23594722 23464636 23361302 23285294 23236948 23216780 23224924 
2611.345 23260718 23323052 23410116 23519652 23649090 23795960 23956992 
2614.720 24128626 24307020 24487380 24665500 24837590 25000868 25154166 
2618.095 25297542 25432042 25559206 25680606 25797924 25912672 26026432 
2621.471 26140748 26257100 26376230 26498138 26621880 26745304 26865342 
2624.846 26978612 27080872 27167846 27234904 27277134 27289412 27267326 
2628.221 27206400 27103548 26957104 26766660 26533288 26259704 25949816 
2631.596 25608970 25243318 24860256 24467222 24071606 23680230 23298474 
2634.972 22930256 22577810 22242356 21924234 21623274 21339608 21072962 
2638.347 20823582 20590636 20373446 20170798 19981120 19802620 19633730 
2641.722 19473252 19320008 19173394 19032684 18897622 18767968 18643366 
2645.097 18524090 18410206 18301916 18199836 18104138 18015436 17934074 
2648.473 17860150 17793728 17734462 17681866 17635450 17594698 17559300 
2651.848 17529284 17504860 17485990 17473056 17465776 17463776 17466398 
2655.223 17473192 17483714 17497822 17515554 17536872 17561680 17589592 
2658.598 17620128 17652876 17687454 17723692 17761902 17802358 17845682 
2661.974 17892294 17942672 17996960 18055536 18118302 18185220 18256022 
2665.349 18330152 18406784 18485434 18565654 18647068 18730086 18814954 
2668.724 18902192 18992216 19085238 19180806 19278648 19378416 19479386 
2672.099 19581212 19683822 19787120 19891412 19997114 20104684 20214744 
2675.475 20327818 20444360 20564408 20688206 20815724 20947348 21083188 
2678.850 21223904 21369748 21520828 21676838 21837120 22001016 22167868 
2682.225 22337890 22511850 22691082 22877408 23072200 23276520 23490798 
2685.600 23714838 23948204 24190592 24442054 24703588 24976230 25261368 
2688.976 25560786 25875850 26207824 26557592 26925976 27313122 27718876 
2692.351 28142154 28581592 29034972 29499180 29970772 30445294 30917988 
2695.726 31382896 31833724 32262992 32662682 33023484 33336460 33592164 
2699.101 33782048 33899248 33939480 33901468 33787492 33603944 33359718 
2702.477 33065636 32734242 32377892 32008034 31635210 31268474 30914608 
2705.852 30578698 30264434 29973080 29704878 29459004 29233894 29027604 
2709.227 28838762 28665540 28506540 28360508 28226124 28102244 27988082 
2712.602 27882922 27786516 27698604 27619292 27548360 27485630 27430778 
2715.978 27383592 27344210 27312806 27289978 27275758 27270536 27273678 
2719.353 27284756 27302220 27325190 27352292 27382182 27413766 27446026 
2722.728 27477794 27508398 27537698 27565836 27593798 27622610 27653614 
2726.103 27687868 27726470 27770160 27820002 27877270 27943378 28019960 
2729.479 28108146 28208550 28320576 28442964 28573808 28711096 28853528 
2732.854 29000292 29151466 29307298 29468224 29634670 29806362 29983022 
2736.229 30164156 30348922 30536750 30726794 30918272 31109980 31300810 
2739.604 31489476 31674628 31854830 32028470 32193798 32348942 32492000 
2742.979 32621034 32734778 32832254 32912630 32975256 33019588 33045080 
2746.355 33051658 33039716 33011078 32968178 32914668 32854516 32792088 
2749.730 32730702 32673400 32622888 32581136 32549530 32529816 32522354 
2753.105 32527640 32544564 32571922 32607782 32650218 32697442 32747888 
2756.480 32800126 32852766 32904088 32952342 32995850 33033066 33063278 
2759.856 33086232 33102110 33111480 33115088 33113622 33107936 33099282 
2763.231 33089306 33079974 33073466 33071396 33075578 33087056 33106756 
2766.606 33135578 33174812 33225920 33290740 33370412 33465852 33577524 
2769.981 33704912 33847520 34004724 34176040 34361120 34559484 34770608 
2773.357 34993724 35227840 35472476 35727104 35991780 36266880 36552472 
2776.732 36848164 37153080 37465548 37782932 38102724 38422460 38739644 
2780.107 39052312 39358456 39656172 39944036 40220492 40484140 40734228 
2783.482 40969496 41189368 41393136 41580480 41751564 41907604 42050636 
2786.858 42184000 42311596 42437592 42566252 42700760 42843796 42996832 
2790.233 43160420 43334288 43517344 43707364 43901280 44094952 44283724 
2793.608 44462188 44625416 44769012 44890280 44988320 45065028 45124540 
2796.983 45172552 45216420 45264184 45323320 45400820 45502988 45634544 
2800.359 45799536 46001168 46241408 46521312 46840668 47197780 47590128 
2803.734 48013988 48465456 48940680 49436476 49949936 50478256 51018704 
2807.109 51567768 52121148 52674300 53221568 53757488 54276688 54773240 
2810.484 55241688 55676924 56073660 56427244 56733920 56990712 57195192 
2813.860 57345916 57442004 57482664 57468140 57399420 57278808 57109660 
2817.235 56897104 56646028 56362540 56052284 55721036 55374876 55020076 
2820.610 54663120 54311232 53971140 53648828 53349304 53076084 52831212 
2823.985 52615652 52429284 52271584 52141436 52038032 51960012 51906464 
2827.361 51877076 51871324 51889808 51932604 51999976 52091560 52206560 
2830.736 52343564 52500992 52676920 52869648 53077996 53300528 53536332 
2834.111 53784452 54044688 54317500 54604052 54906924 55228928 55573544 
2837.486 55943612 56342016 56770468 57231212 57726576 58259412 58834104 
2840.862 59455676 60130012 60863900 61664748 62540388 63499860 64553604 
2844.237 65711812 66985092 68381760 69905272 71551392 73305536 75140584 
2847.612 77013208 78867712 80638888 82252536 83640408 84743656 85519976 
2850.987 85951448 86044096 85828208 85349032 84665536 83842992 82941664 
2854.363 82020752 81131744 80313824 79598520 79005440 78544136 78214808 
2857.738 78010856 77921008 77931048 78026560 78194496 78421712 78696624 
2861.113 79007992 79343488 79691544 80040000 80377216 80693064 80978640 
2864.488 81227648 81436424 81604880 81736088 81836376 81914792 81981856 
2867.864 82047328 82120896 82210056 82319976 82454480 82615480 82803640 
2871.239 83018200 83256936 83516376 83791792 84078608 84372696 84670928 
2874.614 84971464 85273128 85574488 85873472 86167040 86452272 86726816 
2877.989 86990512 87245992 87498296 87755128 88025096 88316504 88637296 
2881.365 88993784 89390768 89831640 90317304 90846928 91416976 92022224 
2884.740 92656296 93311896 93983144 94664376 95350832 96038512 96723016 
2888.115 97399928 98064944 98714720 99347344 99963128 100564296 101154656 
2891.490 101738128 102319064 102901192 103487896 104082720 104689064 
2894.383 105310064 105948784 106607376 107287760 107991384 108719808 
2897.276 109475560 110260632 111076704 111923200 112797568 113694176 
2900.169 114605288 115522024 116436456 117341584 118231104 119100920 
2903.063 119946016 120761912 121544536 122290144 122997368 123666792 
2905.956 124301128 124904240 125480264 126033592 126567784 127086848 
2908.849 127595592 128099752 128606440 129122808 129655016 130206840 
2911.742 130778848 131366984 131962296 132550064 133111384 133621600 
2914.635 134053472 134381536 134583040 134643984 134561360 134343520 
2917.528 134007944 133577120 133074968 132520528 131925296 131292480 
2920.421 130617320 129890040 129098536 128233640 127291072 126274320 
2923.314 125195400 124074840 122939752 121818144 120738632 119725040 
2926.207 118793160 117952344 117204424 116546032 115970568 115469464 
2929.100 115034224 114655672 114324792 114033280 113772968 113537632 
2931.993 113322736 113125688 112945152 112780296 112629272 112489384 
2934.886 112355504 112221800 112081440 111927960 111755128 111557984 
2937.779 111332368 111075848 110787448 110468296 110121936 109752464 
2940.672 109365240 108964680 108553696 108133408 107703200 107261416 
2943.565 106806312 106336328 105850312 105347696 104828064 104291448 
2946.458 103738080 103169944 102590472 102005488 101423336 100854000 
2949.352 100309792 99802784 99346472 98953800 98636784 98406224 98270560 
2952.727 98234536 98299768 98463088 98717424 99050312 99445608 99882640 
2956.102 100335592 100777488 101179544 101514112 101760608 101905848 
2958.995 101947576 101894032 101763000 101578424 101364792 101146504 
2961.888 100942992 100766992 100625360 100518264 100440592 100381720 
2964.781 100328456 100265672 100177776 100052024 99879128 99654376 99378168 
2968.156 99055224 98693920 98303920 97896912 97484568 97077416 96685088 
2971.532 96314672 95970232 95652536 95359088 95085600 94826008 94574432 
2974.907 94326008 94076464 93822688 93562288 93292840 93012640 92720520 
2978.282 92416544 92101896 91779232 91452528 91126344 90805960 90497080 
2981.657 90205216 89936176 89695320 89486928 89313312 89174792 89069224 
2985.033 88992640 88939040 88902280 88875688 88852392 88825888 88788808 
2988.408 88733488 88651960 88535432 88376120 88167064 87903168 87581952 
2991.783 87203952 86773704 86298816 85790416 85261680 84725456 84193352 
2995.158 83673624 83170128 82683096 82209656 81746008 81288496 80835208 
2998.534 80385424 79940536 79502144 79072064 78651704 78242504 77845616 
3001.909 77462720 77095624 76746240 76415704 76104328 75811448 75535048 
3005.284 75272528 75021400 74779032 74543216 74311848 74082608 73853608 
3008.659 73621984 73385216 73140624 72885704 72618680 72338232 72043888 
3012.035 71736456 71417208 71088320 70752632 70412712 70071768 69732504 
3015.410 69397656 69070536 68753776 68450136 68161640 67888696 67630264 
3018.785 67383744 67145288 66910684 66676004 66438132 66194408 65942688 
3022.160 65680816 65406128 65115436 64805448 64473228 64116948 63736052 
3025.536 63331076 62903844 62456328 61991120 61510380 61016404 60511520 
3028.911 59997676 59476388 58948816 58414792 57873816 57324932 56767224 
3032.286 56200048 55623668 55038916 54447176 53850312 53250148 52648944 
3035.661 52049388 51454392 50867436 50292024 49731416 49188304 48664180 
3039.037 48159716 47674248 47206760 46755268 46317708 45892184 45476792 
3042.412 45070320 44672380 44282772 43902052 43530892 43169532 42817904 
3045.787 42475148 42140112 41811720 41489040 41171884 40860672 40556016 
3049.162 40258808 39969356 39687868 39414288 39148208 38889496 38637936 
3052.538 38393468 38155320 37922548 37693916 37468184 37244372 37022300 
3055.913 36802104 36584980 36371748 36163304 35960284 35763332 35572688 
3059.288 35389248 35213504 35046268 34887252 34735792 34590304 34448636 
3062.663 34309160 34170916 34033860 33899356 33769192 33645044 33527986 
3066.039 33417862 33313706 33213832 33116412 33020016 32923714 32827322 
3069.414 32731418 32637070 32545746 32459150 32379072 32307252 32244756 
3072.789 32192406 32150194 32117870 32094896 32081160 32076094 32079484 
3076.164 32090184 32106702 32126538 32147054 32165288 32179132 32187588 
3079.540 32190728 32189588 32185770 32180880 32175812 32170638 32164860 
3082.915 32157474 32147340 32133032 32113768 32089152 32059078 32024440 
3086.290 31986420 31946618 31906248 31866274 31826984 31787694 31747450 
3089.665 31705066 31659838 31611298 31559806 31505902 31450398 31393476 
3093.041 31335636 31276844 31217630 31158178 31099052 31040682 30982890 
3096.416 30925176 30866366 30805288 30740878 30672812 30601310 30527330 
3099.791 30452226 30377562 30304650 30234486 30167708 30104812 30045758 
3103.166 29990548 29938928 29891080 29846820 29807002 29772756 29745540 
3106.542 29726806 29717438 29717794 29726912 29743270 29765374 29792168 
3109.917 29823502 29860342 29904106 29956716 30019022 30091388 30172362 
3113.292 30259852 30351372 30443802 30534688 30621716 30703038 30777120 
3116.667 30842710 30898776 30944994 30980576 31005450 31019258 31021820 
3120.042 31012816 30992602 30961896 30922506 30876790 30827806 30778684 
3123.418 30731738 30688386 30648882 30612508 30578164 30544748 30511974 
3126.793 30480340 30450874 30424824 30403502 30387332 30376210 30368820 
3130.168 30364022 30359828 30354782 30347536 30337728 30324688 30308132 
3133.543 30287846 30263368 30234522 30201132 30163446 30122036 30077966 
3136.919 30031982 29985044 29937082 29887530 29835534 29780350 29721164 
3140.294 29658260 29592458 29524964 29457584 29391990 29328958 29269832 
3143.669 29214896 29164646 29119114 29077946 29040746 29006704 28974824 
3147.044 28944470 28915076 28887310 28861990 28840568 28824458 28814366 
3150.420 28810118 28810612 28814012 28818650 28822864 28826262 28828672 
3153.795 28830794 28833556 28837488 28843048 28850236 28859230 28869888 
3157.170 28882990 28899104 28918934 28942594 28970042 29000468 29032386 
3160.545 29064766 29096582 29127512 29158126 29189346 29222588 29258952 
3163.921 29298828 29341860 29387134 29433330 29479144 29523900 29567276 
3167.296 29609590 29651236 29692780 29734682 29776980 29819598 29862578 
3170.671 29906024 29950396 29996086 30043452 30092276 30141712 30190796 
3174.046 30238038 30281842 30321384 30355956 30385556 30410894 30433070 
3177.422 30453576 30473942 30495730 30519758 30546988 30577312 30610624 
3180.797 30646322 30683658 30722278 30761540 30801020 30840504 30879530 
3184.172 30918060 30955846 30993494 31031892 31072428 31116244 31164228 
3187.547 31216562 31272746 31331218 31390588 31449330 31506896 31563192 
3190.923 31618640 31674270 31731230 31790476 31852618 31918232 31988166 
3194.298 32062288 32140668 32223060 32308538 32395922 32484214 32572672 
3197.673 32661434 32750602 32841154 32933970 33029276 33127140 33227068 
3201.048 33328372 33430350 33532530 33634624 33736672 33838352 33939768 
3204.424 34040524 34140484 34239316 34336772 34432564 34525976 34615924 
3207.799 34701624 34782240 34857520 34928112 34995156 35060132 35124220 
3211.174 35188352 35252528 35316212 35378932 35439828 35498828 35555896 
3214.549 35611676 35666524 35720808 35774700 35828312 35881752 35934872 
3217.925 35987964 36040632 36092940 36144144 36193984 36242424 36289396 
3221.300 36335688 36381660 36428208 36475632 36524608 36575468 36628600 
3224.675 36684372 36743328 36805464 36870744 36938920 37009272 37081296 
3228.050 37154996 37230544 37308200 37388404 37470964 37555708 37641448 
3231.426 37727600 37813984 37900460 37988000 38077584 38169900 38265132 
3234.801 38362920 38462500 38562972 38663760 38764424 38865040 38965568 
3238.176 39066052 39166480 39266464 39365892 39464288 39561144 39655628 
3241.551 39746536 39832276 39911708 39983780 40049032 40108336 40163756 
3244.927 40216932 40269420 40321480 40372784 40422276 40469156 40513128 
3248.302 40554380 40594320 40634052 40674800 40717196 40761960 40809240 
3251.677 40859508 40912952 40969784 41029832 41092404 41156728 41222120 
3255.052 41288180 41355012 41423244 41493052 41564912 41638024 41711660 
3258.427 41784684 41856376 41926800 41996284 42065600 42135732 42206492 
3261.803 42277812 42349400 42420932 42492544 42564680 42637488 42710852 
3265.178 42783460 42853816 42920016 42980992 43036448 43087380 43135316 
3268.553 43182012 43228824 43275932 43322644 43367820 43410296 43449112 
3271.928 43483832 43514192 43539980 43560928 43576792 43587888 43594704 
3275.304 43598148 43599652 43600492 43602068 43605328 43611044 43620092 
3278.679 43632800 43649728 43670612 43694284 43719348 43743164 43763724 
3282.054 43779300 43789304 43793848 43794252 43791612 43786812 43780508 
3285.429 43773140 43764932 43756468 43748480 43741772 43736788 43733236 
3288.805 43730488 43727628 43723816 43718688 43712788 43706520 43700620 
3292.180 43695712 43691608 43688092 43684720 43681168 43677392 43673212 
3295.555 43668416 43662368 43653980 43642840 43628624 43612032 43594336 
3298.930 43577048 43561332 43547852 43536132 43525252 43514376 43502876 
3302.306 43491048 43479584 43469584 43461856 43456768 43453840 43452264 
3305.681 43450980 43449296 43446956 43443948 43440656 43438016 43436992 
3309.056 43438456 43443656 43453068 43466764 43483756 43502728 43522104 
3312.431 43540744 43558216 43575436 43594080 43616392 43644016 43677796 
3315.807 43717184 43760904 43807228 43854472 43902124 43950336 43999720 
3319.182 44051240 44105520 44162848 44222712 44284348 44346620 44408788 
3322.557 44469788 44529368 44587264 44643592 44698784 44753440 44807620 
3325.932 44861404 44914532 44966088 45015480 45062232 45106012 45147148 
3329.308 45186048 45223220 45258484 45291472 45321296 45347004 45367752 
3332.683 45382792 45391808 45394196 45389676 45377904 45358996 45333216 
3336.058 45301732 45266096 45227780 45187848 45147148 45105388 45061424 
3339.433 45014452 44963368 44907920 44847920 44783340 44714652 44642012 
3342.809 44565712 44485900 44403464 44318584 44231700 44142196 44049516 
3346.184 43952276 43849888 43742248 43630640 43517416 43405136 43295844 
3349.559 43190500 43088552 42988196 42887208 42783720 42676744 42566944 
3352.934 42455092 42342756 42231144 42120764 42011796 41903884 41796544 
3356.310 41689588 41582960 41476500 41370648 41265404 41161208 41058460 
3359.685 40957516 40858488 40761304 40665380 40569440 40472792 40374712 
3363.060 40274948 40174080 40072940 39972296 39872732 39774424 39677412 
3366.435 39581760 39487764 39395640 39305676 39217612 39130696 39044192 
3369.811 38956724 38867576 38776596 38684076 38590820 38497184 38403352 
3373.186 38309392 38215056 38120124 38025288 37931520 37839436 37749464 
3376.561 37660816 37572112 37481260 37386848 37288488 37187156 37084800 
3379.936 36983728 36885712 36791612 36700492 36611264 36522088 36431740 
3383.312 36339792 36246752 36153544 36061364 35971300 35883548 35798700 
3386.687 35716452 35636812 35559096 35482972 35407400 35331628 35254932 
3390.062 35176600 35096448 35014408 34931200 34847576 34764220 34681844 
3393.437 34601068 34521992 34444472 34367648 34290764 34212532 34132348 
3396.813 34050448 33967892 33886420 33807908 33733700 33664020 33597896 
3400.188 33533104 33466782 33396964 33322364 33242590 33158574 33071466 
3403.563 32982334 32891900 32800664 32708946 32616890 32524784 32433086 
3406.938 32341804 32250360 32158044 32064072 31967588 31868912 31768836 
3410.313 31668496 31569142 31471628 31376452 31283252 31191498 31100474 
3413.689 31009932 30919554 30829406 30739240 30648952 30558114 30466158 
3417.064 30372798 30277614 30180174 30080094 29977520 29872802 29766724 
3420.439 29660956 29557414 29458258 29364548 29276566 29193528 29113446 
3423.814 29034156 28953608 28870772 28785050 28697080 28607144 28516022 
3427.190 28423826 28330940 28237192 28143144 28049116 27956170 27864658 
3430.565 27774824 27686492 27599342 27513164 27427884 27343894 27261258 
3433.940 27180614 27101538 27023814 26946916 26870314 26794008 26718242 
3437.315 26643404 26569674 26496976 26424150 26349788 26272130 26189910 
3440.691 26102322 26010108 25914256 25817086 25720470 25625700 25533130 
3444.066 25441950 25350158 25255292 25155710 25050744 24941346 24830504 
3447.441 24721406 24617422 24520404 24429926 24343990 24259330 24172620 
3450.816 24081410 23984968 23884030 23780142 23674878 23568904 23462466 
3454.192 23355008 23246280 23136708 23027302 22919916 22815732 22715520 
3457.567 22618856 22524344 22430338 22335168 22237648 22137394 22034408 
3460.942 21929080 21821930 21713446 21604434 21495902 21388926 21284450 
3464.317 21182780 21083396 20985390 20887686 20789274 20690012 20590288 
3467.693 20491492 20394176 20299070 20206066 20114540 20023692 19932862 
3471.068 19841498 19749460 19656228 19561178 19463550 19362652 19258142 
3474.443 19150644 19041442 18932648 18826268 18724170 18627386 18536468 
3477.818 18451000 18370316 18292272 18214866 18135332 18051426 17961424 
3481.194 17865604 17765974 17666162 17570476 17481850 17401416 17327790 
3484.569 17256896 17183916 17104294 17015624 16917534 16811820 16701894 
3487.944 16591311 16482852 16378138 16278367 16183848 16094575 16010134 
3491.319 15929800 15852125 15774913 15696304 15614825 15530031 15442816 
3494.695 15354588 15266961 15180930 15096460 15012522 14928599 14844247 
3498.070 14760186 14678265 14599787 14525640 14455445 14387282 14318547 
3501.445 14247119 14171765 14092968 14012782 13934595 13860904 13794167 
3504.820 13734761 13681551 13632450 13584210 13533752 13478004 13414402 
3508.196 13342132 13261504 13174435 13084140 12994307 12908145 12827768 
3511.571 12753683 12685344 12621040 12559098 12498257 12437254 12376054 
3514.946 12314557 12252932 12191282 12129948 12069404 12010335 11953454 
3518.321 11899440 11848088 11798786 11750239 11700880 11649449 11594759 
3521.697 11537047 11476179 11413278 11349128 11284885 11221197 11158468 
3525.072 11096497 11034230 10970577 10903638 10832123 10754915 10672218 
3528.447 10585532 10496825 10409155 10325099 10246216 10173148 10105280 
3531.822 10041391 9979512 9918047 9855372 9790536 9723373 9653780 9582945 
3535.680 9512494 9443782 9378432 9317257 9260355 9206709 9155234 9104444 
3539.537 9053287 9001628 8949875 8898431 8848110 8798472 8748703 8697047 
3543.395 8641814 8581181 8514711 8442507 8365891 8287802 8211381 8140241 
3547.252 8076776 8022533 7976768 7937217 7899930 7860622 7815515 7761879 
3551.109 7699615 7630144 7557008 7483885 7414044 7349369 7290500 7236895 
3554.967 7187540 7141459 7098178 7056989 7017320 6978260 6938968 6898266 
3558.824 6855649 6810982 6764840 6718804 6674522 6633743 6598183 6569219 
3562.682 6546513 6528618 6512742 6494076 6466027 6423284 6361177 6278406 
3566.539 6178576 6069597 5962223 5865992 5787982 5730029 5690078 5663222 
3570.396 5643988 5627506 5610388 5590820 5567830 5541116 5510511 5475948 
3574.254 5437630 5395962 5352082 5307067 5261923 5217488 5174365 5132486 
3578.111 5092288 5053937 5017769 4983547 4950937 4918966 4886729 4854126 
3581.969 4822028 4792244 4767420 4749029 4737237 4729801 4721594 4705952 
3585.826 4676243 4627547 4559068 4474563 4381908 4290879 4210006 4144737 
3589.684 4096937 4064326 4043022 4028173 4015331 4000784 3982158 3958216 
3593.541 3928491 3893687 3855108 3814459 3773414 3733642 3696180 3661661 
3597.398 3629851 3600149 3571485 3542688 3513225 3483464 3454607 3428623 
3601.256 3407350 3392790 3385310 3384542 3388883 3396063 3403810 3409154 
3605.113 3409421 3401139 3381136 3346142 3294790 3228156 3150652 3069558 
3608.971 2993416 2929063 2879829 2843875 2816360 2789982 2758569 2719390 
3612.828 2673547 2625876 2582709 2549512 2528682 2519050 2516351 2514751 
3616.686 2508519 2492590 2463931 2421747 2368040 2306844 2244358 2187475 
3620.543 2141955 2111322 2096139 2094275 2101899 2114884 2130467 2147915 
3624.400 2167795 2191605 2218480 2244524 2261710 2258513 2223342 2148748 
3628.258 2037612 1905571 1776032 1673008 1609249 1584241 1586768 1602265 
3632.115 1617697 1624648 1620490 1607487 1590593 1574663 1562359 1553281 
3635.973 1545367 1535791 1522889 1507395 1491037 1476508 1465304 1457491 
3639.830 1451640 1445589 1437743 1427438 1415803 1405166 1398118 1396922 
3643.688 1402938 1415869 1434286 1455197 1475111 1489607 1493863 1483489 
3647.545 1454898 1406096 1337757 1253910 1162073 1072048 994994 940633 
3651.402 914600 917655 945647 990046 1039863 1083740 1111212 1114367 1091181 
3655.742 1045476 987256 928679 880202 847400 830137 824262 823863 824228 
3660.082 822502 818054 812178 806634 802983 801821 803248 806601 812278 
3664.421 820776 833192 850521 872931 899227 926720 950495 965504 966999 
3668.761 953782 929675 905203 896006 917123 978456 1080817 1216694 1371626 
3673.100 1527345 1664992 1764521 1810568 1795495 1724667 1614571 1485152 
3676.958 1352880 1225068 1102176 983005 867553 759267 664547 589523 537567 
3681.297 507711 495835 495835 503033 515606 534117 560359 594765 634682 
3685.637 674137 705134 718708 708220 672180 615005 546624 477624 417921 
3689.977 372155 340121 318833 305669 298540 296617 299800 307824 319794 
3694.316 333920 348146 361244 372354 382104 391655 402300 414903 428700 
3698.656 442034 451851 454803 448037 430359 402732 369435 335976 309250 
3702.995 294296 294329 309416 337203 373912 415135 457026 496532 532326 
3707.335 563710 590385 611753 626320 631596 625192 605250 571208 526023 
3711.675 474971 425317 384326 357530 346886 351064 366252 387741 410758 
3716.014 431818 449364 463494 475899 488272 501872 516900 531463 543141 
3720.354 549477 548847 541615 530203 517563 507047 500446 497660 496333 
3724.693 493347 485486 471488 452747 433377 419646 417523 430657 459314 
3729.033 499982 546127 589655 623333 641982 644504 633388 613943 591082 
3733.373 566497 537966 501541 453842 395668 334185 280271 245658 237039 
3737.712 254544 292837 344332 402334 462764 524662 587963 651638 710776 
3742.052 755947 774237 753591 689204 591314 484889 403395 370596 391224 
3746.391 452581 533719 613810 674934 707324 707988 681571 637004 583650 
3750.731 528511 475402 427639 389433 367180 366584 390593 436826 498190 
3755.071 564506 626287 675233 706860 720434 717845 702379 677257 645566 
3759.410 610725 577678 552795 542477 550207 575256 612317 652700 686947 
3763.750 708187 714161 708386 697799 690797 692921 703773 718476 729129 
3768.089 728432 712734 683031 645002 607440 578740 563478 562284 572237 
3772.429 588992 607572 624959 640124 653762 667866 684823 706030 731220 
3776.769 757673 780610 794850 795879 781771 755184 722724 692655 672312 
3781.108 665377 670918 684326 698695 707789 708054 699027 683396 665377 
3785.448 649183 636905 628775 623964 620745 618721 618323 620413 626253 
3789.787 636241 650112 667102 686184 706362 726607 745990 762520 773805 
3794.127 777158 771116 755748 734440 713132 698961 698065 712568 739086 
3798.467 770784 796244 803282 782369 729295 650411 561222 484955 442399 
3802.806 443725 486978 558899 641484 714593 761623 772842 747882 697368 
3807.146 639195 593106 571407 577014 604155 643940 687877 730922 772676 
3811.485 815099 860049 907096 951225 984134 996488 980714 936150 870707 
3815.825 801589 748878 727569 742605 787481 848064 905867 944352 950628 
3820.165 919315 854837 772477 693253 635976 610791 617261 646694 686848 
3824.504 725678 754753 770453 774270 772112 771979 780444 800194 829573 
3828.844 863867 897035 923897 941795 950993 954911 957667 964077 977227 
3833.183 998049 1024984 1055009 1083342 1104535 1113304 1105498 1079322 
3837.041 1036741 983437 928546 881165 848596 832992 832860 842653 855833 
3841.380 866225 869910 864697 851550 832860 812842 796045 786518 787248 
3845.720 799431 822734 855302 895242 940533 990311 1044679 1103970 1166890 
3850.060 1229720 1284117 1317550 1315091 1263115 1157222 1007448 842255 
3853.917 697268 601335 565104 581128 632094 699459 769689 834752 891524 
3858.257 940334 982474 1018806 1049296 1072812 1088889 1097227 1098987 
3862.114 1095034 1086032 1071384 1051089 1026711 1002433 985961 984633 
3865.971 1003396 1041125 1090085 1137389 1169149 1173302 1145229 1090616 
3869.829 1025449 969855 939039 937578 959228 990810 1018341 1031859 1029069 
3874.168 1014920 999909 994761 1007182 1038435 1083740 1134399 1180977 
3878.026 1214900 1230152 1225034 1202241 1169481 1136160 1112673 1106362 
3881.883 1118885 1146392 1180213 1209285 1222509 1212242 1177821 1126492 
3885.741 1073111 1034051 1022161 1041490 1086829 1146358 1206062 1253013 
3889.598 1277105 1274613 1247430 1203603 1154132 1110381 1080751 1069391 
3893.456 1076732 1100515 1137256 1182771 1232710 1282721 1328584 1366275 
3897.313 1392999 1407559 1409952 1402407 1388080 1370496 1352381 1334799 
3901.170 1317583 1299438 1278999 1255007 1227992 1199450 1172006 1148485 
3905.028 1131475 1122240 1120712 1126061 1137189 1152206 1169847 1188619 
3908.885 1207225 1224802 1240818 1255472 1269628 1284782 1302229 1323067 
3912.743 1346798 1371726 1394861 1412778 1422252 1421654 1411548 1394130 
3916.600 1373222 1352780 1335730 1323798 1317184 1315356 1318049 1324961 
3920.458 1336694 1353246 1373920 1396623 1418429 1435815 1445622 1446287 
3924.315 1438741 1425310 1409819 1396523 1388346 1387049 1392235 1402573 
3928.172 1415903 1429366 1440569 1447085 1447517 1441367 1429034 1412545 
3932.030 1394562 1378274 1366474 1360591 1361256 1367106 1376679 1387747 
3935.887 1399082 1409952 1419925 1429931 1440270 1451274 1462876 1474180 
3939.745 1484287 1491901 1495824 1495359 1490571 1482426 1472950 1464605 
3943.602 1459851 1460450 1466500 1476674 1488310 1498418 1503970 1503405 
3947.459 1496722 1485484 1472185 1459652 1449612 1442830 1438840 1436447 
3951.317 1434652 1432823 1430928 1429499 1429266 1430396 1433023 1436480 
3955.174 1440769 1445689 1451640 1459220 1468628 1480298 1493464 1507428 
3959.032 1521027 1533363 1544004 1552616 1559333 1564321 1567381 1568545 
3962.889 1567647 1564621 1560165 1554578 1548759 1543139 1538185 1534062 
3966.747 1531136 1529506 1529606 1531668 1535625 1541410 1548127 1554878 
3970.604 1560531 1564654 1567514 1569210 1570806 1573001 1575861 1579253 
3974.461 1582412 1584873 1586037 1586336 1586269 1586269 1586968 1587866 
3978.319 1588830 1588930 1587999 1586003 1583509 1581414 1580350 1581048 
3982.176 1583210 1586336 1589695 1592555 1594517 1595049 1594118 1591391 
3986.034 1586934 1580616 1572735 1564188 1556108 1549923 1546930 1547761 
3989.891 1552550 1560431 1570440 1581281 1592089 1602465 1612176 1620956 
3993.749 1628439 1633661 1636188 1635689 1632064 1626277 1620124 1615269 
3997.606 1612941 1613905 1617896 1624016 1631066 1637885 1643905 
##END=
