
##TITLE=Z382_3_d
##JCAMP-DX=5.01  $$ Nicolet v. 1
##DATATYPE=INFRARED SPECTRUM
##ORIGIN=UniL
##OWNER=Nicolet
##LONGDATE=2011/09/09
##TIME=10:44:35
##SPECTROMETER/DATA SYSTEM=Nicolet iS5
##DATA PROCESSING=
Ratio against background
%Transmittance->Absorbance
Truncated
ElementMultiply or ElementDivide
##COMMENTS=
Number of sample scans: 32
Collection length: 51.18 sec
Sample gain: 2.0
Background collected on: Ven Sep 09 10:32:29 2011 (GMT+02:00);
Number of background scans: 32
Background gain: 2.0
Sample spacing:  1.000
Number of scan points: 12415
Resolution points: 8192
Number of FFT points: 65536
Apodization: N-B fort;
Phase correction: Mertz;
Laser frequency: 15798.0 cm-1
Number of rejected sample scans: 0
Number of rejected background scans: 0
Bench serial number: ASB1000141;
##RESOLUTION=4.000
##XUNITS=1/CM
##YUNITS=ABSORBANCE
##FIRSTX=649.893372
##LASTX=4000.122314
##FIRSTY=0.079210
##MAXX=4000.122314
##MINX=649.893372
##MAXY=0.204248
##MINY=-0.000029
##XFACTOR=1.000000
##YFACTOR=1.000000E-009
##NPOINTS=6950
##DELTAX=0.482117
##ZPD=6100
##XYDATA=(X++(Y..Y))
649.893 79209816 79159760 79206960 79368104 79626424 79942848 80276072 
653.268 80606048 80938440 81301432 81723176 82217024 82771608 83357608 
656.643 83942112 84504784 85044360 85574200 86108736 86650840 87189208 
660.018 87705088 88184560 88628512 89054952 89486440 89940448 90417384 
663.393 90899536 91357720 91765728 92104064 92355800 92501984 92508952 
666.767 92329824 91926776 91302448 90524056 89698744 88922648 88236848 
670.142 87622704 87021320 86361512 85589664 84681080 83650928 82542664 
673.517 81413048 80306008 79240600 78213304 77210912 76225752 75264920 
676.892 74346920 73493208 72715664 72010800 71362376 70749312 70157592 
680.267 69584536 69036968 68523456 68047568 67603240 67178240 66761584 
683.642 66350496 65953256 65585860 65263628 64992352 64766944 64573096 
687.016 64395740 64225144 64061260 63909992 63777192 63661776 63554176 
690.391 63439160 63305504 63151240 62987112 62830852 62699608 62601200 
693.766 62530636 62473084 62411492 62336788 62249588 62159272 62075900 
697.141 62003352 61934984 61857188 61754924 61621980 61463044 61293596 
700.516 61130816 60987536 60867292 60765032 60672968 60585532 60503180 
703.890 60431240 60373932 60330452 60292572 60248528 60189228 60113840 
707.265 60031880 59957924 59905892 59882388 59884360 59904292 59937536 
710.640 59989044 60075484 60220628 60446244 60764080 61171704 61652224 
714.015 62178580 62721504 63248204 63722128 64105080 64356736 64446240 
717.390 64369528 64162804 63908836 63715256 63695536 63920588 64389132 
720.765 65010712 65623312 66039348 66079624 65636188 64691984 63317084 
724.139 61640768 59814732 57987288 56266164 54720320 53381340 52250876 
727.514 51312780 50540680 49904624 49373288 48917612 48516620 48157972 
730.889 47838464 47560960 47329304 47142676 46993748 46869824 46756344 
734.264 46642444 46521684 46393284 46258360 46117736 45970780 45816252 
737.639 45654528 45489816 45329500 45182112 45053004 44942496 44845752 
741.013 44755828 44666876 44577424 44490088 44408932 44336196 44269672 
744.388 44203088 44129872 44046948 43958288 43873860 43806344 43767168 
747.763 43760972 43785784 43833688 43895636 43964008 44033820 44101960 
751.138 44164716 44216476 44250888 44263180 44253384 44227080 44194280 
754.513 44165232 44145752 44135260 44128076 44116632 44096200 44068072 
757.888 44037892 44014060 44003060 44007020 44024948 44055276 44098880 
761.262 44161012 44249312 44370764 44527312 44716048 44929780 45163176 
764.637 45417228 45700724 46029348 46419316 46883664 47428560 48054996 
768.012 48764556 49565296 50479004 51547616 52833536 54421560 56426300 
771.387 58976024 62205384 66229256 71094408 76732800 82901360 89191392 
774.762 95003240 99624368 102409480 102863112 100807360 96419536 90203624 
778.136 82864224 75119432 67647376 60939268 55269008 50734320 47274956 
781.511 44741208 42937720 41680472 40814300 40217328 39810992 39544308 
784.886 39386388 39319820 39333060 39416428 39561036 39757504 39997112 
788.261 40274108 40585700 40932900 41318752 41747004 42220772 42741852 
791.636 43312172 43934168 44612376 45353480 46165156 47054856 48030496 
795.010 49100256 50274504 51568212 52999188 54589848 56365820 58353428 
798.385 60584200 63097900 65942800 69183816 72897536 77160008 82039448 
801.760 87571256 93740368 100454832 107536072 114722640 121646728 127887144 
805.135 133007584 136587136 138329408 138106016 135998336 132279936 
808.028 127380144 121824376 116112312 110705264 105969592 102129712 99291032 
811.402 97425176 96393928 95955352 95800616 95611400 95067656 93918808 
814.777 92019448 89330448 85925272 81957160 77637600 73184504 68798032 
818.152 64650528 60857112 57485764 54559532 52064256 49961496 48197696 
821.527 46719296 45474360 44418548 43519284 42751140 42095320 41538768 
824.902 41071240 40685868 40379660 40153104 40009972 39955112 39993620 
828.277 40128828 40361404 40689760 41109956 41615268 42195136 42835020 
831.651 43514776 44210020 44897668 45557296 46175440 46744976 47260100 
835.026 47708900 48068248 48298784 48350740 48177336 47743404 47041564 
838.401 46095148 44958628 43703040 42403248 41130608 39937968 38859928 
841.776 37915032 37107536 36433252 35882184 35442168 35099216 34839356 
845.151 34650732 34523536 34450496 34426396 34445728 34501688 34586468 
848.525 34691392 34809988 34939316 35080608 35238296 35417216 35620520 
851.900 35848932 36100828 36374560 36670492 36991520 37342504 37727924 
855.275 38150004 38607948 39099148 39620924 40173424 40760540 41389928 
858.650 42071952 42817356 43638884 44551652 45575292 46737672 48074392 
862.025 49626508 51442084 53568380 56047680 58912916 62174340 65808148 
865.400 69734640 73813744 77830312 81493992 84497664 86534312 87363760 
868.774 86874504 85095672 82202488 78462632 74213680 69793280 65480164 
872.149 61499616 57989484 55007964 52555216 50587248 49037748 47828440 
875.524 46887580 46153512 45576212 45121416 44765888 44493796 44295060 
878.899 44161524 44086376 44064368 44091652 44166368 44287836 44455548 
882.274 44668524 44924600 45221456 45557296 45932068 46346720 46803060 
885.648 47301884 47843344 48426224 49049952 49716368 50430884 51204168 
889.023 52053460 53001100 54075984 55313336 56746532 58402776 60289564 
892.398 62383604 64617732 66877208 69019680 70877080 72295528 73166856 
895.773 73437280 73120824 72283800 71032240 69482144 67742520 65914608 
899.148 64079196 62302476 60641876 59139748 57826080 56716512 55811304 
902.523 55098312 54557840 54169812 53915244 53779464 53750928 53818620 
905.897 53971820 54200780 54498036 54861016 55291548 55794912 56376120 
909.272 57038732 57784596 58615692 59538592 60566484 61717876 63014804 
912.647 64478024 66121480 67952664 69972608 72178968 74567840 77132464 
916.022 79860120 82726864 85693536 88711096 91717144 94643272 97417920 
919.397 99952784 102142128 103861752 104964624 105315512 104821568 103464384 
922.771 101325544 98587472 95522832 92429424 89606288 87316680 85741456 
926.146 84993264 85112472 86079200 87824520 90236704 93176536 96463760 
929.521 99893192 103260128 106352368 108983168 111005040 112299160 112788544 
932.896 112435856 111244944 109270280 106623432 103487136 100092320 96716304 
936.271 93668376 91231920 89665336 89174392 89881528 91831584 94972440 
939.646 99159296 104127104 109495984 114817192 119554528 123180976 125268920 
943.020 125520736 123855728 120409208 115517832 109633792 103242352 96816048 
946.395 90714576 85183952 80361344 76280728 72910512 70177536 67996640 
949.770 66278620 64940944 63916972 63148328 62586656 62196320 61947288 
953.145 61816884 61788500 61848020 61983976 62186384 62445692 62754312 
956.520 63105984 63496180 63921392 64378292 64862416 65368376 65890236 
959.894 66422260 66960820 67504648 68054808 68613168 69181448 69759888 
963.269 70346864 70940160 71537600 72138632 72744256 73356224 73975616 
966.644 74602464 75235808 75873632 76515592 77162664 77817864 78485664 
970.019 79169624 79872464 80595880 81341152 82111176 82910832 83746352 
973.394 84624592 85550728 86526800 87552368 88625024 89742776 90904720 
976.768 92110904 93360664 94650112 95971512 97313312 98660944 100000880 
980.143 101321776 102613632 103867848 105074376 106220576 107293360 
983.036 108281672 109179104 109987336 110714072 111371032 111968776 
985.929 112515096 113013920 113467024 113877304 114251080 114597000 
988.821 114924904 115242232 115551728 115852312 116141360 116417920 
991.714 116685592 116952432 117228552 117523784 117844720 118194000 
994.607 118572552 118980848 119420192 119892952 120399240 120935352 
997.500 121492368 122058928 122623288 123178128 123722656 124261872 
1000.392 124803000 125352144 125911712 126480608 127057312 127643112 
1003.285 128243744 128869384 129531416 130239088 130998000 131811288 
1006.178 132682976 133622064 134645616 135776064 137040144 138465472 
1009.070 140075344 141891296 143930976 146204336 148705568 151398848 
1011.963 154208544 157000000 159590224 161775760 163348880 164158384 
1014.856 164142384 163343904 161902784 160025904 157958512 155919664 
1017.748 154087200 152581088 151453136 150704528 150299312 150185616 
1020.641 150306144 150610368 151063168 151641728 152335904 153142944 
1023.534 154062496 155091712 156223744 157447328 158750288 160123056 
1026.427 161559424 163056880 164614080 166227408 167889648 169590064 
1029.320 171316512 173059888 174814752 176579456 178353280 180132528 
1032.213 181909312 183673328 185414048 187124928 188805056 190457552 
1035.106 192085248 193686736 195253136 196768848 198215328 199571888 
1037.999 200818048 201930960 202877984 203617008 204094512 204247648 
1040.892 204018752 203359104 202235600 200634016 198556256 196018048 
1043.785 193047600 189689072 186003808 182065040 177960768 173782096 
1046.678 169609808 165517248 161560816 157780416 154206992 150861648 
1049.571 147757616 144900896 142288064 139906576 137735312 135749392 
1052.464 133923096 132232728 130659672 129188152 127803296 126489248 
1055.357 125228032 123999984 122786960 121572536 120343056 119087800 
1058.250 117796128 116457776 115063584 113607008 112087184 110510472 
1061.144 108890808 107246872 105598440 103965168 102362376 100802432 
1064.037 99295496 97849544 96471376 95166320 93936328 92780664 91695168 
1067.412 90674560 89713776 88808896 87958392 87161336 86416528 85721504 
1070.787 85071408 84460432 83883104 83335248 82814664 82320496 81852176 
1074.162 81408448 80987744 80588424 80211344 79860840 79546112 79279568 
1077.538 79077032 78955448 78930136 79015536 79223584 79561632 80032112 
1080.913 80628552 81334680 82120136 82942424 83751776 84491176 85107520 
1084.288 85558064 85813024 85862120 85714448 85400328 84965864 84471216 
1087.663 83987544 83583328 83324328 83267696 83454808 83916392 84673424 
1091.039 85739872 87128904 88854792 90933152 93379064 96200984 99392872 
1094.414 102922904 106724200 110692144 114665856 118445056 121801560 
1097.307 124485128 126278400 127022776 126646368 125184880 122773640 
1100.200 119631160 116001552 112139904 108276864 104583408 101184736 
1103.093 98153320 95514872 93265568 91379936 89823248 88555496 87538504 
1106.468 86739960 86131480 85691352 85403112 85252688 85228016 85317448 
1109.844 85508880 85791424 86155848 86595904 87108496 87692720 88344896 
1113.219 89054456 89795584 90518504 91152456 91598024 91741088 91476328 
1116.594 90717920 89429680 87637256 85432880 82958784 80376576 77852592 
1119.969 75516480 73450624 71691432 70232680 69043224 68081672 67313712 
1123.344 66716492 66282092 66015236 65930188 66048296 66392688 66987796 
1126.720 67852248 68989544 70378144 71959880 73640664 75279464 76708048 
1130.095 77754688 78249800 78065184 77128592 75431600 73034920 70059120 
1133.470 66676468 63072616 59433644 55926988 52672768 49751108 47200372 
1136.845 45023308 43199764 41696196 40476828 39504748 38746056 38171712 
1140.221 37752864 37463668 37281812 37187228 37164632 37202640 37291992 
1143.596 37424480 37592268 37786512 37999284 38224532 38458264 38699292 
1146.971 38947556 39203144 39465520 39733832 40007608 40287852 40577768 
1150.346 40881900 41204052 41546316 41907056 42282088 42665776 43052880 
1153.722 43440616 43828008 44215524 44603164 44988984 45369296 45738792 
1157.097 46091976 46424032 46730216 47005488 47243920 47437504 47577116 
1160.472 47654612 47663008 47597968 47457648 47240816 46946716 46573720 
1163.847 46120276 45586332 44974396 44290880 43544996 42747412 41909500 
1167.223 41041452 40151944 39249420 38342180 37439032 36549980 35683788 
1170.598 34848220 34048980 33289094 32570280 31894126 31262278 30677612 
1173.973 30142954 29660212 29229712 28849598 28517048 28228774 27982426 
1177.348 27776660 27610428 27482348 27389946 27329356 27297032 27291142 
1180.724 27313618 27369724 27467662 27616960 27825372 28099132 28442398 
1184.099 28858202 29349872 29921074 30575746 31318008 32151620 33082228 
1187.474 34119768 35281600 36592192 38083484 39786480 41722636 43894388 
1190.849 46277048 48816200 51424516 53999284 56428112 58602192 60440192 
1194.225 61893680 62959112 63676888 64130692 64435944 64714944 65094768 
1197.600 65683172 66551820 67734000 69213424 70928032 72766200 74582632 
1200.975 76216392 77492056 78256584 78392296 77825040 76537720 74565200 
1204.350 71989760 68922280 65497504 61864028 58159732 54516480 51045720 
1207.726 47825628 44907772 42313244 40036712 38054328 36330568 34828692 
1211.101 33511770 32350336 31322922 30413914 29613458 28915890 28317784 
1214.476 27818060 27416910 27115504 26914658 26813214 26807470 26891322 
1217.851 27056924 27295904 27602272 27972002 28403060 28894428 29444216 
1221.227 30049132 30705172 31407546 32152478 32937042 33757764 34609608 
1224.602 35484660 36372688 37263072 38148196 39025556 39899608 40780848 
1227.977 41684268 42625020 43617892 44676348 45811576 47034696 48356296 
1231.352 49785032 51327284 52985152 54757868 56642064 58634920 60736336 
1234.728 62948956 65277220 67724896 70293256 72979456 75777480 78677120 
1238.103 81663184 84711488 87780392 90809920 93714344 96383040 98700408 
1241.478 100549504 101832448 102491536 102515488 101949840 100889112 
1244.371 99480528 97903016 96337792 94969344 93952416 93399856 93390440 
1247.746 93962208 95124040 96865992 99169032 102010184 105357448 109167944 
1251.122 113371984 117856320 122470080 127007648 131213888 134821392 
1254.015 137543392 139112368 139326816 138058704 135290944 131115664 
1256.908 125729728 119400176 112414952 105079400 97667288 90406280 83491792 
1260.283 77063408 71211000 65983028 61383540 57383880 53929424 50953908 
1263.658 48384296 46148540 44186320 42446724 40891252 39495604 38245340 
1267.033 37135684 36169172 35355424 34708836 34246232 33986276 33944424 
1270.409 34128656 34535196 35144228 35918748 36800052 37715528 38581224 
1273.784 39303752 39799444 39997548 39851816 39351560 38521188 37419352 
1277.159 36122108 34718024 33291560 31907782 30614890 29439216 28388168 
1280.534 27457744 26636500 25911476 25269094 24697380 24186144 23726946 
1283.910 23313612 22942376 22611876 22321702 22071362 21858932 21681088 
1287.285 21533574 21412422 21315246 21241162 21190260 21161942 21153766 
1290.660 21160688 21177458 21198958 21222790 21249582 21282640 21325860 
1294.035 21382314 21453010 21537576 21635358 21746260 21871826 22014296 
1297.411 22175574 22356134 22554566 22768626 22997084 23240096 23500170 
1300.786 23780212 24082322 24406302 24749642 25108314 25479440 25861888 
1304.161 26256994 26667046 27092826 27532968 27982604 28436064 28888478 
1307.536 29337358 29783438 30229124 30675978 31123362 31567790 32004718 
1310.912 32429982 32842438 33243950 33639388 34035292 34437732 34853608 
1314.287 35290336 35755128 36253880 36786888 37344164 37899700 38412072 
1317.662 38830544 39099004 39173264 39029112 38666768 38110032 37399164 
1321.037 36583576 35708468 34813256 33930024 33081834 32287798 31563870 
1324.413 30921724 30368996 29908154 29536560 29248246 29036354 28894464 
1327.788 28817518 28800238 28836850 28919006 29037380 29183002 29348100 
1331.163 29527482 29717722 29914932 30113478 30305574 30481832 30633914 
1334.538 30756596 30848330 30911122 30948196 30962144 30953284 30920442 
1337.914 30862452 30780320 30678502 30564584 30446362 30331084 30222160 
1341.289 30120224 30024704 29935310 29853990 29784396 29731346 29698740 
1344.664 29690224 29708392 29756858 29841106 29967614 30143806 30375428 
1348.039 30664918 31011820 31413992 31869482 32378894 32944300 33567608 
1351.415 34247348 34976844 35744768 36535604 37334016 38126276 38898160 
1354.790 39633956 40312536 40904468 41377028 41697324 41839664 41793880 
1358.165 41568012 41189660 40699512 40150200 39599692 39101976 38711172 
1361.540 38476512 38437592 38626924 39062640 39747556 40669160 41802708 
1364.916 43112848 44550292 46053476 47543548 48919396 50077716 50922388 
1368.291 51386248 51451220 51150304 50561300 49780016 48909936 48042856 
1371.666 47245216 46565056 46028904 45644112 45398944 45260764 45179868 
1375.041 45087044 44909828 44585060 44064736 43329524 42390316 41289092 
1378.417 40089000 38866124 37698580 36648068 35760020 35063796 34575412 
1381.792 34304964 34259500 34444508 34868472 35548632 36515272 37817780 
1385.167 39515088 41655016 44244028 47211192 50396944 53551024 56392496 
1388.542 58667384 60177316 60819840 60578068 59508764 57719460 55350708 
1391.917 52562172 49499820 46309744 43136376 40113312 37371068 35012864 
1395.293 33092954 31609018 30507852 29712046 29134918 28703838 28369562 
1398.668 28103020 27895076 27746884 27662336 27641714 27679992 27767864 
1402.043 27894936 28052050 28233584 28439392 28674638 28949428 29275220 
1405.418 29663724 30124628 30663780 31284854 31987488 32766468 33607060 
1408.794 34482136 35353552 36170504 36882000 37449548 37853676 38101064 
1412.169 38218564 38245448 38218528 38166104 38105256 38043044 37982796 
1415.544 37928192 37885888 37864812 37874140 37921972 38015088 38161800 
1418.919 38371680 38655864 39022184 39469256 39986648 40556340 41158660 
1422.295 41776000 42398572 43026536 43667392 44331240 45023712 45740668 
1425.670 46468504 47187956 47878748 48527176 49125708 49674388 50178796 
1429.045 50650796 51108968 51577504 52091224 52690536 53413676 54293808 
1432.420 55350560 56591520 58018720 59638856 61470908 63542320 65876200 
1435.796 68465656 71248600 74108312 76906992 79532624 81927392 84077320 
1439.171 85983392 87637616 89004920 90025728 90638552 90789584 90454800 
1442.546 89644648 88401704 86791504 84886776 82767280 80502072 78141504 
1445.921 75720992 73261296 70784840 68334792 65982916 63824976 61964980 
1449.297 60482460 59422432 58789828 58553316 58651192 58992460 59472928 
1452.672 59971924 60368484 60557420 60439200 59926200 58949268 57481036 
1456.047 55579648 53413564 51253308 49364452 47908752 46917256 46329688 
1459.422 46058636 46026364 46179492 46480708 46897988 47400472 47951304 
1462.798 48507580 49029404 49480848 49841440 50112636 50319476 50503456 
1466.173 50706652 50967056 51309724 51746672 52279580 52902392 53602980 
1469.548 54360232 55143336 55905812 56575364 57061932 57272004 57135548 
1472.923 56638064 55822872 54771476 53568680 52288664 50991800 49727476 
1476.299 48546668 47499192 46623228 45944484 45469760 45190680 45093036 
1479.674 45164316 45399460 45802852 46385576 47159372 48132096 49303612 
1483.049 50666584 52210260 53928712 55825548 57916976 60231136 62800756 
1486.424 65653532 68804480 72251080 75977856 79964712 84192264 88641112 
1489.800 93278424 98051328 102878768 107663336 112308944 116739688 120905888 
1493.175 124761712 128260568 131336320 133887248 135802832 136992064 
1496.068 137430976 137185376 136410016 135306512 134055496 132801104 
1498.961 131641072 130635456 129831104 129266504 128967600 128944056 
1501.854 129177544 129620136 130183864 130739944 131115928 131058976 
1504.747 130243376 128292576 124859536 119817976 113401584 106160408 
1507.640 98704984 91453416 84553648 77968712 71600112 65380008 59302356 
1511.015 53445864 47945348 42932412 38516988 34744404 31593728 29000114 
1514.391 26875072 25130222 23680930 22458704 21415518 20520498 19763816 
1517.766 19146800 18669964 18324208 18085622 17915048 17770910 17620336 
1521.141 17457050 17304996 17206530 17196464 17283238 17450944 17669716 
1524.516 17912942 18164976 18428356 18719154 19058750 19460292 19923010 
1527.892 20434670 20980210 21549936 22143914 22771036 23443896 24172446 
1531.267 24960612 25804606 26693894 27616184 28558626 29511238 30464808 
1534.642 31411178 32340232 33239834 34093888 34884272 35595380 36209940 
1538.017 36713832 37094432 37340700 37440660 37385224 37177192 36835972 
1541.393 36396212 35896436 35363796 34806000 34211064 33558552 32833398 
1544.768 32040600 31207448 30376104 29583272 28843048 28144134 27456402 
1548.143 26747032 25996494 25211924 24424774 23680652 23015146 22439620 
1551.518 21940546 21490958 21066144 20655090 20265774 19919092 19636500 
1554.894 19425260 19274352 19154488 19028426 18851286 18574786 18154956 
1558.269 17566372 16829108 16018659 15237241 14564391 14029653 13623116 
1561.644 13314047 13067373 12850634 12639937 12423343 12203856 11997085 
1565.019 11824663 11704420 11641452 11626545 11640362 11662485 11677394 
1568.395 11679980 11676304 11680490 11708266 11770052 11869813 12007712 
1571.770 12182422 12393919 12642018 12926065 13241554 13582124 13941677 
1575.145 14317726 14714597 15142742 15615444 16139243 16713465 17333514 
1578.520 17995338 18698398 19445808 20241542 21084230 21962572 22855720 
1581.896 23731214 24551782 25282264 25890022 26349226 26642878 26761338 
1585.271 26704218 26480180 26107212 25610798 25021822 24376372 23707980 
1588.646 23044178 22402042 21785556 21188416 20599010 20007140 19407554 
1592.021 18800560 18190196 17581104 16977344 16383264 15806971 15262877 
1595.396 14769270 14346458 14008402 13758427 13588791 13485489 13435112 
1598.772 13430191 13472331 13568382 13725971 13947973 14231472 14570593 
1602.147 14962482 15412054 15933271 16544908 17266242 18111046 19085582 
1605.522 20190756 21425058 22786366 24269456 25860480 27533956 29247468 
1608.897 30947734 32580424 34094892 35457804 36656540 37699232 38609000 
1612.273 39415160 40143436 40807164 41403488 41913152 42305060 42539536 
1615.648 42576516 42386844 41959536 41303484 40441224 39395712 38184660 
1619.023 36818840 35305320 33650272 31858786 29944432 27928184 25845888 
1622.398 23757672 21740024 19873964 18226822 16832932 15691014 14770778 
1625.774 14028866 13419870 12905722 12462622 12078978 11754017 11491489 
1629.149 11294680 11162446 11089121 11065362 11080046 11122501 11181009 
1632.524 11243298 11295835 11322362 11306514 11235749 11107851 10936596 
1635.899 10749514 10579183 10447811 10361780 10313087 10286928 10266402 
1639.275 10238142 10194890 10135838 10066519 9994938 9929166 9873574 9827375 
1643.132 9785589 9739569 9679664 9595411 9478696 9325144 9137672 8928262 
1646.990 8716958 8528160 8381835 8289761 8252849 8262744 8303878 8353393 
1650.847 8384098 8361364 8250823 8034178 7730273 7400697 7116636 6920485 
1654.704 6810982 6762316 6743841 6732702 6715910 6688856 6652449 6611303 
1658.562 6570329 6532587 6498280 6464580 6426310 6377283 6311956 6227412 
1662.419 6126015 6015604 5907740 5814980 5746045 5703708 5684136 5678698 
1666.277 5676482 5665505 5635898 5582362 5504504 5408006 5302506 5199849 
1670.134 5109989 5039992 4992731 4967225 4958444 4957874 4954154 4934515 
1673.991 4887667 4809765 4707426 4599317 4506869 4446443 4422074 4426559 
1677.849 4446276 4467800 4483066 4491268 4498400 4513331 4542326 4584951 
1681.706 4631934 4665961 4667032 4619878 4522739 4394259 4267255 4172536 
1685.564 4122693 4113461 4130453 4159423 4188260 4209605 4220010 4218705 
1689.421 4207798 4191806 4177855 4174209 4188227 4224393 4281543 4352891 
1693.279 4425455 4484204 4515005 4510954 4478212 4436334 4410994 4418760 
1697.136 4461072 4523375 4583645 4615424 4597006 4520396 4399581 4269697 
1700.993 4168789 4120251 4123094 4161296 4213118 4259090 4284990 4282112 
1704.851 4250056 4195955 4132661 4072888 4026133 3995635 3979650 3973565 
1708.708 3972194 3971725 3970756 3969753 3970455 3974468 3982794 3995233 
1712.566 4010817 4028641 4048273 4069611 4092221 4113895 4130052 4133865 
1716.423 4119147 4082855 4029110 3969385 3919364 3891280 3890812 3916589 
1720.281 3961593 4017304 4075731 4131825 4182807 4228475 4270601 4311459 
1724.138 4353694 4399346 4450360 4507874 4572193 4641914 4713488 4781791 
1727.995 4840958 4886662 4918128 4938068 4951574 4963404 4974933 4981703 
1731.853 4972822 4932504 4846587 4709034 4531009 4340340 4171901 4050112 
1735.710 3980788 3953736 3951462 3956411 3953502 3932972 3891748 3832777 
1739.568 3764256 3696514 3638238 3593467 3561997 3540283 3524082 3509417 
1743.425 3494520 3479389 3466530 3459049 3459850 3470271 3489777 3515330 
1747.282 3542889 3567409 3585315 3593267 3589792 3574257 3547098 3510319 
1751.140 3468334 3428022 3396464 3379466 3379166 3393291 3415365 3435804 
1754.997 3445422 3437073 3409354 3366844 3319697 3279032 3251858 3239473 
1758.855 3237136 3236735 3229692 3209530 3174149 3126222 3071893 3018973 
1762.712 2974700 2943908 2928296 2927228 2937870 2955817 2975033 2989412 
1766.570 2993516 2985442 2966760 2943374 2921891 2906513 2896707 2886500 
1770.427 2867288 2830301 2772241 2697018 2616875 2546279 2495689 2468096 
1774.284 2458366 2458999 2462598 2465697 2468330 2473395 2483292 2497888 
1778.142 2514051 2527049 2532014 2526849 2513485 2497155 2483659 2476694 
1781.999 2476394 2479726 2481892 2478893 2469263 2454268 2437874 2424546 
1785.857 2417782 2419648 2431076 2451702 2481193 2518550 2561744 2606742 
1789.714 2648111 2679482 2694685 2690417 2667846 2632409 2592409 2556078 
1793.572 2529615 2514618 2510552 2514884 2525182 2538847 2553545 2567277 
1797.429 2577843 2583209 2582376 2575443 2563310 2548512 2533348 2519783 
1801.286 2508819 2500821 2495189 2491490 2489357 2489091 2490490 2494156 
1805.144 2500221 2509019 2521216 2536980 2555911 2576909 2597642 2615075 
1809.001 2626442 2630309 2627242 2619242 2610075 2602975 2599675 2600475 
1812.859 2603842 2607908 2611342 2613975 2616942 2622142 2631509 2646277 
1816.716 2666646 2692117 2721724 2754101 2787981 2822297 2855881 2887901 
1820.573 2918389 2947677 2976568 3005294 3033354 3058913 3079368 3092683 
1824.431 3098623 3100091 3102094 3109903 3126823 3152154 3181325 3206893 
1828.288 3221246 3219577 3202053 3173648 3142542 3116677 3099958 3091849 
1832.146 3087778 3082338 3071493 3053941 3030985 3005427 2980405 2957986 
1836.003 2938437 2921091 2905646 2892437 2883598 2881630 2889602 2909449 
1839.861 2942073 2986710 3040794 3100325 3159497 3211232 3248786 3267548 
1843.718 3267581 3255363 3241809 3237870 3251290 3283706 3331383 3387447 
1847.575 3445055 3499998 3551875 3603256 3657785 3717500 3782004 3847920 
1851.433 3911106 3968482 4019879 4067704 4115769 4166916 4221783 4278397 
1855.290 4333547 4384753 4432149 4478346 4527862 4584951 4651459 4727524 
1859.148 4810871 4899328 4991155 5086220 5184793 5286272 5388380 5486954 
1863.005 5577294 5655569 5719722 5769985 5807693 5833450 5846111 5841980 
1866.863 5815417 5761624 5678530 5569239 5441959 5307638 5178154 5061748 
1870.720 4962164 4879625 4811038 4752713 4700023 4648713 4594528 4533621 
1874.577 4463984 4385657 4300550 4212449 4125235 4041651 3962095 3884761 
1878.435 3807139 3727259 3644687 3561730 3480892 3404979 3335056 3270219 
1882.292 3208395 3148182 3090247 3037057 2992749 2961055 2943674 2939471 
1886.150 2944975 2955817 2968027 2979203 2988345 2995751 3002257 3008296 
1890.007 3015169 3023644 3035089 3050271 3069057 3089746 3109602 3125020 
1893.865 3133364 3134866 3131795 3128391 3128525 3134699 3145913 3159663 
1897.722 3172280 3181859 3188768 3196145 3207260 3225319 3251123 3283005 
1901.579 3318161 3353788 3388650 3423280 3458949 3496825 3537243 3579035 
1905.437 3621031 3661862 3701660 3740861 3779631 3817769 3853269 3883992 
1909.294 3908364 3925850 3937486 3945310 3951128 3955375 3957949 3958216 
1913.152 3956946 3956043 3958819 3968047 3984031 4003460 4020582 4028374 
1917.009 4021953 4001787 3973498 3946213 3928425 3924246 3932370 3946647 
1920.866 3959688 3965506 3962329 3952666 3941364 3933708 3932738 3938924 
1924.724 3950459 3966075 3985369 4009512 4040079 4077838 4121689 4168756 
1928.581 4216531 4263340 4309619 4356706 4406174 4457088 4506367 4549056 
1932.439 4580397 4598312 4603369 4598781 4589237 4578388 4568142 4559369 
1936.296 4552773 4550462 4556255 4574738 4608894 4658693 4719283 4783232 
1940.154 4842533 4891554 4928449 4955897 4978855 5001512 5026551 5053904 
1944.011 5081560 5108112 5133525 5159276 5188213 5222451 5263231 5310824 
1947.868 5364629 5425015 5492088 5565715 5644625 5725397 5803731 5875497 
1951.726 5939381 5997093 6053435 6114355 6183281 6260186 6341172 6420190 
1955.583 6491015 6550449 6598620 6638521 6673344 6706387 6738624 6771133 
1959.441 6804251 6840030 6881905 6931090 6987082 7046651 7103365 7151800 
1963.298 7188888 7216411 7239624 7265027 7296060 7333127 7371409 7404977 
1967.156 7428537 7442019 7449670 7458569 7475896 7506168 7549995 7605932 
1971.013 7671218 7745013 7827526 7919738 8021082 8130012 8243124 8359236 
1974.870 8479503 8608658 8752117 8912467 9084717 9257477 9412934 9534204 
1978.728 9610281 9639145 9627051 9585418 9526583 9460341 9392754 9327481 
1982.585 9266887 9214120 9172392 9145184 9133206 9134288 9144812 9160209 
1986.443 9178957 9202782 9236356 9285334 9352600 9437450 9535457 9640398 
1990.300 9747431 9854762 9963542 10077879 10200657 10332258 10470315 
1993.675 10609841 10746831 10877918 11001740 11118389 11228745 11333211 
1997.051 11432668 11527554 11619125 11708980 11797867 11884592 11966259 
2000.426 12038131 12097000 12141464 12174789 12202732 12233471 12273416 
2003.801 12326078 12390782 12465316 12545729 12630966 12722771 12823809 
2007.176 12937159 13063959 13201247 13344660 13490138 13635322 13780179 
2010.552 13926794 14076094 14228596 14382418 14535952 14688958 14843048 
2013.927 15001649 15168132 15342916 15523575 15704069 15878554 16042313 
2017.302 16195163 16338881 16477071 16610967 16739015 16855906 16957428 
2020.677 17040366 17105846 17158168 17202048 17240004 17270586 17288548 
2024.052 17285482 17254830 17191638 17095230 16967730 16813990 16639197 
2027.428 16448334 16247477 16043447 15843980 15656732 15488619 15343569 
2030.803 15222589 15123563 15043221 14979253 14931583 14901337 14890056 
2034.178 14896434 14916322 14941219 14962105 14971227 14965226 14945197 
2037.553 14916905 14887964 14865059 14853779 14856076 14871711 14898423 
2040.929 14932062 14967626 14999591 15022023 15029981 15020068 14991668 
2044.304 14946809 14889644 14824053 14754461 14684606 14617332 14554146 
2047.679 14495697 14440852 14385603 14322862 14244654 14141915 14010113 
2051.054 13848076 13661274 13459479 13252793 13051018 12859303 12677838 
2054.430 12503100 12329454 12153355 11974365 11796096 11623720 11462469 
2057.805 11314710 11179819 11054010 10933267 10814595 10697144 10582272 
2061.180 10472725 10370332 10275800 10187902 10105755 10028099 9954491 
2064.555 9885403 9820496 9757970 9695589 9630777 9561707 9488957 9414729 
2068.413 9341801 9272201 9205930 9140312 9071252 8995201 8909964 8816054 
2072.270 8716417 8614470 8512954 8412542 8312592 8211517 8108271 8003194 
2076.128 7897804 7794330 7694387 7598818 7507179 7418728 7332992 7250102 
2079.985 7170394 7094372 7022068 6953176 6887123 6824109 6764908 6711064 
2083.843 6663587 6621934 6583987 6545571 6502988 6453348 6396483 6334280 
2087.700 6270472 6207649 6147590 6088883 6029211 5966086 5898268 5826600 
2091.557 5753834 5683465 5618343 5560043 5508698 5464271 5426727 5396364 
2095.415 5373719 5357987 5347554 5338799 5328400 5314111 5295227 5273393 
2099.272 5251124 5229695 5208601 5185967 5158304 5123467 5081895 5036171 
2103.130 4991256 4951640 4920742 4898993 4885221 4877380 4874130 4875704 
2106.987 4883076 4897050 4917256 4941787 4967459 4991725 5013411 5032987 
2110.844 5052395 5072509 5093193 5112336 5126585 5133123 5131279 5122394 
2114.702 5109688 5097350 5087896 5081761 5077269 5071302 5061178 5045423 
2118.559 5023701 4996920 4966286 4932638 4896782 4859219 4820922 4783634 
2122.417 4748861 4717977 4691080 4667368 4645598 4625036 4605981 4589338 
2126.274 4576680 4568443 4563621 4559603 4553141 4542192 4526523 4508510 
2130.132 4492072 4481995 4481292 4492039 4514570 4548018 4591715 4644928 
2133.989 4706454 4773952 4843504 4910119 4969537 5019277 5058831 5090276 
2137.846 5116594 5140164 5161153 5178657 5191734 5199983 5204477 5207126 
2141.704 5208400 5207260 5197971 5174935 5133257 5071637 4995345 4914575 
2145.561 4840254 4782763 4747454 4734089 4737807 4753987 4777336 4806214 
2149.419 4839718 4876107 4910655 4937531 4949060 4940414 4910856 4864446 
2153.276 4807588 4746851 4686492 4629088 4576580 4534123 4512829 4528230 
2157.134 4596705 4729801 4925702 5167222 5426089 5670037 5870728 6012782 
2160.991 6094428 6124335 6116908 6088111 6052494 6020341 5998840 5990844 
2164.848 5995917 6009490 6023902 6031596 6025314 6001561 5960913 5907035 
2168.706 5845238 5779521 5712974 5646002 5579073 5513833 5453802 5405053 
2172.563 5374156 5365736 5381335 5418607 5472324 5536585 5605253 5674468 
2176.421 5740706 5800877 5852626 5894003 5924299 5945327 5961853 5978885 
2180.278 6000956 6030420 6066102 6105046 6144095 6181097 6216387 6251480 
2184.135 6287449 6323454 6355899 6379637 6390464 6387135 6371668 6348536 
2187.993 6324093 6301165 6281162 6262539 6242673 6220152 6195549 6170073 
2191.850 6145708 6122050 6096578 6065061 6024238 5972838 5913652 5852559 
2195.708 5796243 5749940 5715727 5691757 5673897 5658556 5643450 5628816 
2199.565 5616564 5608105 5604950 5605756 5608743 5612200 5616027 5620088 
2203.423 5625794 5633984 5644324 5656777 5670540 5686654 5706965 5734327 
2207.280 5770555 5815316 5865657 5916641 5962996 6001695 6031865 6055451 
2211.137 6075477 6094529 6113783 6132131 6147523 6157773 6161302 6157269 
2214.995 6146044 6127796 6103265 6073226 6039827 6005828 5975022 5950331 
2218.852 5933167 5921948 5912946 5901023 5882147 5854708 5819581 5780125 
2222.710 5739934 5701660 5666613 5633984 5602534 5572730 5545445 5522155 
2226.567 5504269 5491484 5482122 5473968 5465177 5456588 5451421 5453702 
2230.425 5466821 5491484 5524370 5559742 5590417 5611428 5620122 5618376 
2234.282 5609113 5596794 5585651 5577496 5574274 5577529 5588337 5608810 
2238.139 5639725 5680477 5728351 5779621 5829622 5875094 5914458 5948417 
2241.997 5978650 6006601 6033411 6058676 6081525 6100712 6115161 6124436 
2245.854 6127930 6125780 6117715 6103803 6085254 6064086 6042885 6024003 
2249.712 6009422 5999210 5992793 5989165 5987888 5989669 5996421 6010296 
2253.569 6031730 6059617 6089993 6117849 6138550 6148262 6145809 6131593 
2257.427 6107062 6074536 6035628 5992625 5948383 5905825 5868242 5838185 
2261.284 5816424 5801313 5789695 5777708 5762765 5744299 5724490 5706629 
2265.141 5693502 5686251 5683331 5681921 5678731 5671984 5662417 5652749 
2268.999 5646438 5646069 5652682 5664867 5680477 5696994 5713343 5729324 
2272.856 5745977 5764310 5784793 5806854 5829924 5853331 5876807 5900619 
2276.714 5924702 5948753 5971427 5990811 6005391 6014025 6017754 6017418 
2280.571 6015705 6014663 6015537 6018325 6022659 6026691 6029311 6028673 
2284.428 6023902 6014025 5998873 5978482 5954026 5927188 5900250 5875363 
2288.286 5854171 5837211 5824181 5814174 5806787 5801447 5798224 5796847 
2292.143 5797216 5797989 5797519 5794161 5786505 5774618 5759442 5742519 
2296.001 5725866 5710893 5698135 5687661 5679202 5673058 5669432 5668896 
2299.858 5671648 5676918 5683431 5689239 5692562 5692462 5689004 5683264 
2303.716 5677053 5671816 5668727 5668392 5670540 5674938 5681115 5688803 
2307.573 5697564 5707166 5716667 5725128 5731809 5735872 5736845 5734931 
2311.430 5730029 5722677 5713243 5702298 5690783 5679168 5668056 5657784 
2315.288 5648251 5639255 5630024 5620457 5610422 5600184 5590585 5582262 
2319.145 5575750 5571757 5570682 5572831 5578268 5586087 5594512 5600050 
2323.003 5598339 5585282 5557661 5515544 5461486 5401765 5343629 5294490 
2326.860 5260615 5244853 5247469 5266350 5297978 5339134 5387105 5439946 
2330.718 5495913 5553365 5609683 5662249 5708543 5746750 5775928 5795571 
2334.575 5805712 5806115 5796612 5777472 5749436 5714116 5673897 5631333 
2338.432 5588571 5546619 5505712 5465848 5426424 5387910 5351244 5317365 
2342.290 5287044 5260112 5235831 5213665 5194282 5180098 5175102 5183887 
2346.147 5210311 5255551 5317868 5392607 5473297 5552828 5623814 5681115 
2350.005 5720495 5739934 5739430 5721435 5690447 5651843 5611697 5575347 
2353.862 5546317 5525947 5513061 5505477 5499202 5491115 5478934 5461520 
2357.719 5439073 5413440 5387004 5362918 5343696 5331017 5325851 5327629 
2361.577 5334539 5344602 5356041 5367882 5380261 5394720 5412904 5436221 
2365.434 5465177 5498866 5535813 5574173 5612838 5651272 5689743 5728619 
2369.292 5768575 5809809 5852223 5895481 5939851 5984999 6031193 6078635 
2373.149 6127124 6176425 6226337 6276792 6328027 6380276 6433809 6487854 
2377.007 6541467 6593002 6640943 6684616 6723986 6759826 6793178 6824816 
2380.864 6854975 6883185 6908904 6931797 6952233 6971021 6989776 7009508 
2384.721 7030655 7053049 7075883 7098246 7119498 7139708 7159312 7178748 
2388.579 7197883 7216613 7234099 7250237 7265162 7279819 7295790 7314323 
2392.436 7336294 7361771 7390249 7420852 7453243 7487087 7522687 7559941 
2396.294 7598480 7637225 7674691 7709294 7740224 7767310 7791192 7812850 
2400.151 7832856 7851141 7866999 7879314 7886602 7888289 7884072 7874253 
2404.009 7859711 7841661 7821554 7800705 7780567 7762351 7746497 7732904 
2407.866 7720560 7709058 7698029 7688418 7682313 7682718 7692262 7712195 
2411.723 7741978 7778947 7819462 7859711 7897399 7932054 7964923 7998604 
2415.581 8035595 8077822 8126029 8180284 8239848 8303608 8370485 8438724 
2419.438 8505959 8569555 8626638 8675176 8714456 8745322 8769833 8791067 
2423.296 8811151 8831440 8851593 8870666 8886967 8899547 8908206 8913482 
2427.153 8916627 8918927 8921328 8924474 8928431 8933268 8938882 8944936 
2431.010 8951295 8958195 8965502 8973890 8984241 8997670 9015025 9036676 
2434.868 9061914 9089387 9117538 9144778 9170429 9194728 9218452 9242990 
2438.725 9269155 9297216 9326736 9356967 9386829 9416016 9444222 9471584 
2442.583 9498440 9524789 9550869 9576916 9603540 9631725 9662487 9696673 
2446.440 9734182 9774304 9815310 9855304 9892488 9925234 9952761 9974731 
2450.298 9991005 10001651 10006635 10006499 10002295 9995684 9988428 9982596 
2454.155 9979409 9979376 9982156 9986496 9991073 9995277 9999142 10003550 
2458.012 10010229 10020978 10037661 10060957 10091037 10126986 10167347 
2461.388 10210121 10254324 10299041 10344712 10391881 10442313 10497334 
2464.763 10557658 10623457 10694427 10769520 10847921 10929258 11013294 
2468.138 11100236 11190495 11283763 11380079 11479343 11582134 11689477 
2471.513 11803110 11924743 12056084 12198029 12350793 12513603 12685957 
2474.889 12867528 13058769 13260991 13475988 13705795 13952763 14218153 
2478.264 14503542 14810203 15138454 15488275 15858656 16247237 16650764 
2481.639 17065592 17487750 17913702 18339830 18762086 19175680 19574592 
2485.014 19950764 20295840 20601094 20858412 21061552 21206194 21290086 
2488.390 21313576 21278742 21190016 21053658 20877290 20670136 20440816 
2491.765 20197770 19947608 19695716 19445808 19201134 18964456 18739184 
2495.140 18529104 18337996 18169640 18027422 17913184 17828352 17774224 
2498.515 17752030 17763490 17811092 17898300 18028872 18205952 18432676 
2501.891 18711058 19041926 19424914 19858286 20339032 20863244 21426554 
2505.266 22023812 22649052 23295046 23953176 24611216 25254098 25864174 
2508.641 26420244 26899782 27281790 27546172 27677308 27665656 27508328 
2512.016 27209822 26781954 26243056 25614312 24919904 24183796 23426762 
2515.392 22667518 21921342 21198922 20508268 19854262 19238540 18661146 
2518.767 18119960 17612124 17133970 16682303 16254289 15848311 15463622 
2522.142 15100406 14759329 14441743 14148214 13879342 13635219 13415223 
2525.517 13218189 13042619 12886675 12748566 12626770 12520185 12428151 
2528.893 12350179 12285686 12233812 12192748 12160545 12134854 12113831 
2532.268 12096182 12081976 12072062 12067633 12069779 12078841 12094275 
2535.643 12114751 12138431 12163339 12187806 12210911 12231768 12250478 
2539.018 12267043 12282482 12297752 12314148 12332829 12354407 12379293 
2542.394 12407250 12437663 12469783 12503611 12539010 12576254 12615820 
2545.769 12658018 12702675 12749521 12798419 12849132 12901694 12956788 
2549.144 13014724 13075637 13139428 13205892 13274622 13345344 13418093 
2552.519 13493488 13571800 13653443 13738522 13827312 13919506 14015108 
2555.895 14114360 14216956 14322588 14430988 14541469 14653932 14768756 
2559.270 14887244 15011355 15143291 15284739 15436876 15599404 15771855 
2562.645 15952725 16140928 16335715 16536441 16742527 16953260 17167266 
2566.020 17383068 17598978 17813578 18025556 18233596 18436064 18630984 
2569.396 18815472 18986608 19141954 19279860 19399862 19502570 19588734 
2572.771 19659452 19715478 19757020 19784380 19797904 19798528 19787502 
2576.146 19766520 19737634 19702684 19663646 19622636 19582322 19545304 
2579.521 19514736 19493422 19483926 19487808 19506382 19540590 19591092 
2582.896 19658550 19743530 19845766 19964778 20099408 20248104 20409734 
2586.272 20583480 20770018 20970368 21186606 21420426 21672730 21943682 
2589.647 22232276 22536418 22853100 23178438 23508600 23838978 24164880 
2593.022 24481736 24784826 25069698 25331962 25566760 25769936 25936906 
2596.397 26063934 26148488 26189346 26186390 26141204 26055808 25932826 
2599.773 25774542 25583630 25363366 25117232 24850186 24567736 24275202 
2603.148 23978526 23682154 23389940 23105012 22829772 22566536 22317902 
2606.523 22086108 21873846 21683388 21516756 21375806 21262178 21177354 
2609.898 21122562 21098458 21105240 21141904 21206508 21296386 21408278 
2613.274 21539074 21685686 21844716 22013042 22187116 22362970 22537046 
2616.649 22706200 22868258 23022132 23168022 23306934 23439910 23568520 
2620.024 23693842 23816822 23938294 24059034 24179732 24300992 24422952 
2623.399 24544980 24665852 24783284 24894326 24995006 25080862 25146546 
2626.775 25186432 25195176 25167718 25099784 24988864 24833696 24634852 
2630.150 24394176 24114930 23801948 23460474 23097010 22718138 22330424 
2633.525 21940198 21553072 21173386 20804774 20449604 20109542 19785732 
2636.900 19478520 19188114 18913994 18655818 18412314 18182560 17965498 
2640.276 17760212 17565992 17382034 17207564 17041882 16884016 16732920 
2643.651 16587593 16447542 16312562 16182953 16059469 15942723 15833363 
2647.026 15731724 15638011 15552182 15473786 15402648 15338351 15280483 
2650.401 15228971 15183298 15143257 15108502 15078725 15053443 15032416 
2653.777 15015574 15002884 14994550 14990948 14992423 14999351 15011561 
2657.152 15028471 15049635 15073819 15100406 15129087 15159863 15193249 
2660.527 15229966 15270599 15315423 15364508 15417547 15474163 15534118 
2663.902 15597138 15663121 15731895 15803466 15877180 15952691 16029764 
2667.278 16107986 16187597 16269149 16353332 16440935 16532620 16628318 
2670.653 16727857 16830658 16935518 17041468 17147758 17253658 17359480 
2674.028 17465742 17573376 17683176 17795972 17912010 18031116 18152986 
2677.403 18277586 18405124 18536296 18672108 18813362 18960856 19114286 
2680.779 19273418 19437630 19606238 19779732 19958674 20144212 20337644 
2684.154 20539674 20750518 20970056 21197704 21433168 21676698 21929080 
2687.529 22191684 22466312 22754452 23057840 23378014 23716028 24072796 
2690.904 24448890 24844466 25258770 25690482 26137862 26598454 27069304 
2694.280 27547302 28028512 28508096 28980280 29437728 29872446 30275482 
2697.655 30637502 30949548 31202784 31389628 31504154 31542632 31503834 
2701.030 31390018 31206948 30963354 30669896 30338972 29983234 29613670 
2704.405 29240980 28873570 28517474 28177294 27856250 27555314 27275122 
2707.781 27015350 26775294 26554070 26350704 26164148 25993258 25836604 
2711.156 25692734 25559944 25437030 25322936 25217508 25120742 25033054 
2714.531 24954472 24885096 24824082 24770934 24725020 24686122 24654664 
2717.906 24631274 24616720 24611356 24615142 24626926 24645300 24668412 
2721.281 24694154 24720774 24746976 24771954 24795666 24818540 24841448 
2724.657 24865764 24892606 24923310 24958226 24997638 25041792 25090936 
2728.032 25145914 25208132 25279630 25361784 25456144 25562684 25680570 
2731.407 25808086 25943378 26084870 26231582 26383414 26540510 26703476 
2734.782 26872464 27047370 27227530 27412390 27600790 27792166 27985712 
2738.158 28180336 28375082 28568604 28759596 28946242 29127406 29301238 
2741.533 29466450 29621758 29765766 29896938 30014052 30115856 30200740 
2744.908 30267488 30314918 30342204 30349028 30336166 30305538 30259992 
2748.283 30203334 30139792 30073634 30008334 29947024 29892466 29846712 
2751.659 29811366 29787804 29776694 29778078 29790996 29814204 29845756 
2755.034 29883734 29926364 29972230 30020018 30068484 30115998 30161030 
2758.409 30201806 30236510 30264148 30284078 30296514 30302128 30302058 
2761.784 30297650 30290546 30282374 30274878 30269728 30268056 30270970 
2765.160 30279176 30293210 30313886 30342278 30379730 30427916 30488728 
2768.535 30563268 30652260 30756100 30874478 31007302 31154794 31317368 
2771.910 31495388 31689346 31898868 32123256 32361150 32610710 32870776 
2775.285 33140086 33418328 33704980 34000000 34302780 34612336 34926964 
2778.661 35244476 35562440 35878044 36188944 36492896 36787680 37072060 
2782.036 37344852 37605316 37853064 38087316 38307400 38512428 38702008 
2785.411 38876056 39035524 39182292 39319460 39450464 39579256 39709468 
2788.786 39844444 39987012 40139332 40302688 40477812 40664068 40859724 
2792.162 41061228 41263912 41462428 41650604 41823244 41975992 42106304 
2795.537 42213504 42299436 42368108 42424692 42476212 42530144 42593952 
2798.912 42674768 42779072 42911932 43077832 43280032 43520492 43800408 
2802.287 44119564 44477020 44870332 45296696 45752300 46233444 46736820 
2805.663 47258736 47796144 48345928 48904636 49468484 50033176 50593872 
2809.038 51145048 51680984 52194864 52680028 53130116 53538956 53901476 
2812.413 54214292 54474820 54681388 54832820 54928316 54966560 54947192 
2815.788 54870716 54738848 54555508 54326288 54057368 53755652 53428028 
2819.164 53080464 52719040 52349512 51977860 51610228 51253120 50912288 
2822.539 50592832 50298944 50032764 49795624 49587800 49408332 49256364 
2825.914 49130568 49029884 48953252 48900444 48871112 48865624 48884612 
2829.289 48928032 48995940 49087828 49202996 49340100 49497704 49674388 
2832.665 49868496 50078500 50303184 50541348 50792792 51057980 51338360 
2836.040 51636388 51954860 52296588 52664200 53060024 53485772 53943944 
2839.415 54437676 54971000 55549372 56179160 56866772 57619980 58446520 
2842.790 59354700 60354400 61457012 62674040 64017640 65497696 67118728 
2846.166 68876688 70755984 72726632 74740344 76735088 78637848 80365768 
2849.541 81842608 83002832 83799552 84213104 84250872 83946896 83352152 
2852.916 82532608 81561224 80505336 79430688 78394208 77438880 76598664 
2856.291 75894624 75335936 74922368 74646136 74494952 74453216 74505808 
2859.667 74638424 74836824 75088160 75379768 75697952 76029800 76362608 
2863.042 76684328 76984800 77255752 77490992 77687408 77844824 77966368 
2866.417 78058168 78129048 78189216 78248728 78316976 78401264 78506736 
2869.792 78636776 78793104 78976352 79185688 79419584 79675144 79948416 
2873.167 80235376 80532216 80835608 81143520 81453816 81764368 82072464 
2876.543 82374728 82668144 82950488 83222264 83486336 83747952 84014920 
2879.918 84295728 84598256 84930000 85296848 85703224 86152448 86645616 
2883.293 87182240 87759344 88371936 89014112 89678904 90360544 91053640 
2886.668 91753528 92456472 93158384 93855056 94542256 95216568 95876016 
2890.044 96520328 97151088 97771440 98384536 98993792 99602528 100213464 
2893.419 100830304 101456856 102097312 102755960 103436552 104141664 
2896.312 104873616 105633848 106424416 107246872 108102544 108991304 
2899.205 109911360 110858520 111826624 112807784 113794272 114778616 
2902.098 115753112 116711816 117648312 118556576 119431624 120269408 
2904.991 121068352 121829112 122554688 123249536 123918392 124566552 
2907.884 125198320 125818480 126432416 127045784 127665864 128299832 
2910.777 128954304 129633800 130339680 131068688 131811600 132552264 
2913.670 133268800 133932664 134511680 134976032 135298816 135462960 
2916.563 135463648 135308096 135013728 134603104 134100928 133527280 
2919.457 132895456 132210928 131471696 130670504 129798216 128847584 
2922.350 127816152 126708912 125538480 124326544 123101176 121891616 
2925.243 120727912 119635480 118631896 117727992 116926888 116225880 
2928.136 115618136 115094464 114644896 114258192 113924080 113632712 
2931.029 113375424 113146248 112940992 112757608 112594960 112452128 
2933.922 112326928 112215664 112112928 112012392 111907344 111791128 
2936.815 111657464 111501224 111317680 111103536 110856896 110578136 
2939.708 110269608 109935168 109579592 109207304 108821544 108424128 
2942.601 108015608 107595576 107163232 106717592 106257096 105780008 
2945.494 105284304 104768088 104230704 103673288 103099952 102517840 
2948.387 101936640 101368096 100825376 100321272 99869496 99483024 99173776 
2951.762 98953008 98829400 98808768 98893344 99080864 99365216 99734496 
2955.138 100172984 100659904 101169216 101672792 102140408 102542384 
2958.031 102856096 103066048 103167800 103168352 103084240 102939496 
2960.924 102759112 102568736 102389392 102235616 102115552 102030176 
2963.817 101974056 101935968 101901104 101853136 101775568 101655416 
2966.710 101483768 101257184 100977192 100649504 100283416 99888848 99477696 
2970.085 99061344 98650424 98254520 97880600 97532968 97212552 96917592 
2973.460 96644320 96387760 96142976 95905352 95670496 95433872 95191192 
2976.836 94937552 94669032 94382960 94078928 93758664 93426472 93088136 
2980.211 92749776 92417824 92098736 91798184 91522016 91275464 91062712 
2983.586 90886224 90746384 90640832 90564992 90512504 90476832 90450640 
2986.961 90427008 90399064 90359288 90299928 90213088 90089856 89922648 
2990.337 89704200 89429648 89096152 88703864 88257064 87762632 87231168 
2993.712 86675800 86109376 85544104 84989072 84449080 83925272 83415224 
2997.087 82915480 82422112 81932720 81446376 80963944 80487272 80018888 
3000.462 79561232 79116624 78687328 78275080 77881328 77506640 77150432 
3003.838 76811880 76489112 76180376 75884048 75599360 75325496 75061496 
3007.213 74805568 74554744 74305560 74053448 73794536 73525504 73244032 
3010.588 72949120 72640808 72319448 71986560 71643248 71291584 70933960 
3013.963 70573000 70211928 69853592 69501040 69157088 68824048 68503672 
3017.339 68197224 67905088 67626272 67359288 67101324 66849188 66599248 
3020.714 66348136 66092276 65828040 65552256 65261088 64951292 64619772 
3024.089 64264060 63882544 63475132 63042580 62586620 62109536 61614344 
3027.464 61103504 60579664 60045084 59501124 58948664 58387576 57817600 
3030.840 57237940 56648444 56049040 55440336 54823536 54199768 53570332 
3034.215 52936900 52301184 51665348 51032044 50404276 49785180 49177504 
3037.590 48583424 48004552 47441864 46895808 46367144 45855948 45361904 
3040.965 44884440 44422144 43972916 43534780 43106080 42686140 42274820 
3044.341 41872828 41480584 41097900 40724108 40357624 39996968 39640964 
3047.716 39289428 38943356 38604004 38272660 37950468 37637508 37333192 
3051.091 37036804 36747584 36464892 36188980 35919432 35655948 35397876 
3054.466 35144372 34894752 34648508 34405416 34165824 33930056 33698428 
3057.842 33471360 33249136 33032242 32821712 32618638 32424268 32239046 
3061.217 32063108 31895302 31734150 31577944 31425462 31276024 31129770 
3064.592 30987444 30849432 30716338 30587942 30463990 30343840 30226850 
3067.967 30112448 30000134 29889484 29780244 29672452 29566778 29464570 
3071.343 29367810 29278800 29199304 29130666 29072950 29025514 28987186 
3074.718 28956974 28934128 28918652 28910118 28908204 28911640 28918474 
3078.093 28925984 28931508 28933244 28929808 28921166 28908310 28892020 
3081.468 28873464 28852644 28829662 28803992 28774890 28741752 28704230 
3084.844 28662214 28616132 28566446 28514078 28459982 28404900 28349226 
3088.219 28293100 28236236 28178250 28118682 28057458 27994514 27930198 
3091.594 27864728 27798242 27730390 27661100 27589774 27516624 27441932 
3094.969 27366372 27290648 27215150 27139732 27063486 26985522 26904612 
3098.344 26820298 26732688 26642630 26551430 26460952 26372604 26287654 
3101.720 26206768 26130296 26058094 25990198 25926424 25866952 25812024 
3105.095 25762482 25718958 25682608 25654064 25633748 25621622 25617124 
3108.470 25619444 25628020 25642256 25662326 25688340 25720716 25759914 
3111.845 25805730 25858090 25916050 25978658 26044902 26113512 26183188 
3115.221 26252312 26319126 26381266 26436758 26483490 26520010 26545194 
3118.596 26558474 26559742 26549208 26527266 26494722 26452816 26403024 
3121.971 26347324 26287864 26226866 26166296 26107284 26050636 25996248 
3125.346 25943624 25892344 25841772 25791946 25743110 25696002 25651640 
3128.722 25610832 25574212 25541774 25513030 25486852 25461520 25435662 
3132.097 25407908 25377030 25342570 25303970 25261194 25214278 25163470 
3135.472 25108770 25050498 24988794 24923590 24855344 24783704 24708850 
3138.847 24630818 24550240 24467574 24383732 24299556 24215712 24132722 
3142.223 24050558 23969456 23889738 23811992 23737340 23666374 23599970 
3145.598 23538298 23480584 23426096 23373924 23323260 23274666 23228524 
3148.973 23186196 23148486 23115846 23087752 23062976 23039950 23017380 
3152.348 22994392 22971160 22948210 22926588 22907236 22890646 22876990 
3155.724 22865814 22856838 22849468 22843740 22839970 22838608 22840040 
3159.099 22844508 22852192 22862496 22874930 22888794 22903464 22918378 
3162.474 22933714 22949502 22965676 22982166 22999038 23015912 23032474 
3165.849 23048860 23065318 23082370 23100540 23119970 23140342 23160788 
3169.225 23180674 23199092 23216150 23232054 23248064 23265264 23284246 
3172.600 23305186 23327142 23348924 23369204 23386932 23401514 23413298 
3175.975 23422774 23430644 23437392 23443582 23449702 23456278 23463446 
3179.350 23471700 23481214 23491706 23503040 23515000 23527802 23542110 
3182.726 23558514 23577964 23600634 23625790 23652310 23678552 23703254 
3186.101 23726072 23747314 23768312 23790432 23814512 23840694 23868382 
3189.476 23896494 23924430 23951880 23979612 24008886 24041486 24078716 
3192.851 24121444 24169608 24222998 24280458 24341046 24403746 24467294 
3196.227 24530710 24593438 24655296 24716986 24779530 24844502 24913238 
3199.602 24986442 25064222 25145634 25229658 25314892 25400424 25485728 
3202.977 25570592 25654944 25738540 25820780 25900924 25978270 26052078 
3206.352 26122168 26188186 26249884 26306592 26358168 26404292 26445386 
3209.728 26482220 26516594 26549774 26583378 26617864 26653236 26689348 
3213.103 26725254 26760880 26795980 26831082 26866542 26902216 26937714 
3216.478 26972196 27004562 27034112 27060804 27084890 27107426 27129224 
3219.853 27150950 27173170 27195746 27218782 27241606 27264432 27287190 
3223.229 27310372 27334542 27360550 27389240 27421072 27456192 27494420 
3226.604 27535192 27577770 27621586 27666574 27713472 27763062 27816716 
3229.979 27875398 27939456 28008190 28080186 28153962 28227220 28298758 
3233.354 28367548 28433130 28495608 28555724 28614504 28673256 28733432 
3236.729 28796416 28863054 28933634 29007624 29083754 29160110 29235028 
3240.105 29306874 29374796 29438366 29497408 29551776 29601432 29645878 
3243.480 29685046 29718786 29747314 29771160 29790678 29806148 29817966 
3246.855 29826270 29831488 29834540 29836422 29838764 29842774 29849482 
3250.230 29859134 29871664 29886642 29903716 29922884 29944078 29967542 
3253.606 29993174 30020620 30049274 30078320 30107368 30136420 30165754 
3256.981 30196052 30228020 30262302 30299286 30339008 30381328 30425998 
3260.356 30472200 30519616 30566610 30612082 30655352 30695748 30733514 
3263.731 30769506 30804756 30840256 30876006 30911798 30946738 30979864 
3267.107 31010718 31039044 31065488 31090544 31114784 31137886 31159138 
3270.482 31177436 31191748 31201644 31207128 31209264 31209264 31208480 
3273.857 31207662 31207234 31207412 31207448 31207092 31205952 31203886 
3277.232 31201004 31197728 31194452 31191960 31190608 31190678 31192104 
3280.608 31194524 31197052 31199080 31199544 31197834 31193064 31185126 
3283.983 31173770 31158994 31141124 31121226 31100404 31080330 31062854 
3287.358 31048868 31039080 31033066 31029826 31028262 31026802 31024596 
3290.733 31021000 31015662 31008760 31000290 30990362 30979082 30967162 
3294.109 30955276 30944104 30934248 30925816 30917952 30909094 30898028 
3297.484 30883584 30865370 30844026 30820762 30797036 30774488 30753788 
3300.859 30735650 30719716 30706062 30694788 30685648 30678964 30674696 
3304.234 30672670 30672136 30672314 30672350 30671354 30668936 30665026 
3307.610 30660046 30654642 30649700 30646676 30646606 30650090 30657378 
3310.985 30667584 30679534 30691444 30702220 30711432 30719396 30727682 
3314.360 30738174 30752650 30772174 30796752 30825600 30857188 30889596 
3317.735 30921868 30953356 30984170 31015166 31047372 31081646 31118948 
3321.111 31159316 31202144 31246932 31292156 31337026 31380546 31422182 
3324.486 31461940 31500236 31536966 31572458 31606418 31638488 31668604 
3327.861 31696796 31723316 31748694 31773008 31796142 31816930 31833972 
3331.236 31846058 31852298 31853154 31849552 31842884 31834576 31825092 
3334.612 31814042 31800564 31783454 31762206 31737182 31709272 31679794 
3337.987 31650248 31620882 31591556 31561624 31529806 31495708 31458590 
3341.362 31418480 31375204 31328618 31278800 31225428 31169176 31110370 
3344.737 31049864 30988404 30926136 30863058 30798780 30732590 30664634 
3348.113 30595230 30524592 30453470 30381896 30309126 30234486 30156840 
3351.488 30075800 29991578 29905918 29820238 29736420 29655670 29578306 
3354.863 29504536 29433686 29365400 29299216 29234780 29171414 29108344 
3358.238 29044466 28978756 28910718 28840284 28768340 28696052 28624732 
3361.614 28555088 28487364 28421244 28355840 28290518 28225204 28159936 
3364.989 28095172 28031550 27969244 27908504 27849182 27790436 27731908 
3368.364 27672472 27611134 27547372 27480546 27411156 27340012 27268702 
3371.739 27198992 27132468 27069834 27011226 26955378 26900416 26844758 
3375.115 26787240 26726908 26664122 26598982 26532126 26463802 26394468 
3378.490 26324442 26254072 26184174 26115306 26048172 25983372 25920410 
3381.865 25859392 25799576 25740156 25680638 25620780 25560260 25499010 
3385.240 25437172 25374922 25312714 25251394 25191698 25134118 25078896 
3388.615 25025576 24972790 24919484 24864114 24805876 24744276 24680302 
3391.991 24615214 24550556 24487662 24427508 24370204 24315116 24261048 
3395.366 24206918 24151464 24094196 24035638 23976390 23918058 23861940 
3398.741 23808492 23757918 23709100 23660216 23609660 23556206 23499470 
3402.116 23439874 23378260 23315954 23253552 23191264 23128600 23064688 
3405.492 22998968 22931024 22860960 22789228 22716568 22643640 22570830 
3408.867 22498274 22426466 22355888 22286998 22220244 22155908 22093672 
3412.242 22033084 21973134 21912910 21851790 21789214 21725882 21662072 
3415.617 21598444 21535592 21473444 21411690 21349282 21285076 21218094 
3418.993 21147886 21074596 20999266 20923706 20850070 20780514 20716146 
3422.368 20657034 20602136 20549296 20496042 20440158 20380252 20315526 
3425.743 20246786 20174756 20101178 20027232 19954302 19883086 19814204 
3429.118 19748316 19685834 19626830 19571126 19517922 19466114 19414484 
3432.494 19361718 19307224 19250592 19192026 19132326 19072184 19012292 
3435.869 18953138 18895270 18838518 18783294 18729428 18677332 18626384 
3439.244 18576030 18525232 18472676 18417222 18358356 18295900 18231350 
3442.619 18165942 18101410 18038542 17977482 17916326 17852898 17784650 
3445.995 17710128 17629274 17544014 17457360 17373240 17294376 17222112 
3449.370 17156340 17095126 17036128 16976690 16915328 16850946 16783510 
3452.745 16713258 16640333 16565217 16488152 16409965 16331311 16253669 
3456.120 16178243 16105922 16036812 15970120 15904570 15838724 15771065 
3459.496 15700530 15626607 15549331 15469219 15387062 15303925 15221250 
3462.871 15140168 15061676 14986009 14912619 14840579 14768379 14694888 
3466.246 14619422 14542257 14464523 14387727 14312829 14240785 14171697 
3469.621 14105461 14041322 13979075 13918241 13858371 13798853 13738796 
3472.997 13676866 13611765 13542572 13468742 13390755 13309640 13227036 
3476.372 13144653 13064232 12987274 12914221 12845241 12779549 12715333 
3479.747 12650547 12583178 12511795 12436879 12360032 12284084 12212376 
3483.122 12146609 12087086 12032238 11978147 11920928 11857146 11785270 
3486.498 11705679 11620487 11532964 11446412 11363243 11284715 11211642 
3489.873 11144225 11082153 11024883 10971630 10920627 10869901 10817414 
3493.248 10761403 10701118 10637141 10570932 10504496 10439937 10378340 
3496.623 10319907 10264400 10210969 10158461 10106671 10054683 10001719 
3499.999 9946897 9888895 9827104 9760918 9691624 9621190 9552698 9489398 
3503.856 9434097 9388014 9350806 9320439 9293696 9266684 9235815 9198179 
3507.713 9151681 9096154 9032312 8962525 8889807 8817541 8748601 8684844 
3511.571 8626841 8574388 8526470 8482037 8440142 8400009 8361601 8324818 
3515.428 8289694 8256023 8223437 8191460 8159385 8126670 8093182 8058716 
3519.286 8023411 7987230 7950277 7912718 7874118 7834307 7792879 7749837 
3523.143 7705045 7659144 7612777 7566617 7520731 7474783 7428200 7379868 
3527.000 7328712 7274226 7216310 7155607 7092722 7029173 6965970 6903820 
3530.858 6843632 6786043 6731288 6679502 6630648 6583516 6537196 6490174 
3534.715 6441611 6390935 6339323 6287819 6238572 6192893 6151555 6114287 
3538.573 6080248 6048093 6016713 5985234 5953691 5921847 5889905 5857193 
3542.430 5822805 5785329 5743493 5696255 5643450 5585786 5524739 5462929 
3546.288 5403040 5347957 5299387 5258536 5224765 5195825 5168832 5140298 
3550.145 5107106 5067380 5021121 4969537 4915547 4862469 4812948 4768793 
3554.002 4730538 4697478 4668205 4641546 4616128 4590878 4564827 4537505 
3557.860 4508544 4477710 4445439 4412467 4379498 4347870 4318788 4293623 
3561.717 4273479 4259191 4250926 4247212 4245505 4241457 4229111 4202914 
3565.575 4158218 4092990 4009613 3914783 3817869 3727961 3652205 3593668 
3569.432 3551674 3522846 3503004 3488274 3475849 3463792 3451501 3438376 
3573.290 3424148 3408185 3389818 3368146 3343537 3315958 3285910 3254461 
3577.147 3222548 3190604 3159597 3130127 3102394 3076799 3053474 3032119 
3581.004 3012767 2995751 2981505 2971130 2965492 2964558 2967727 2972398 
3584.862 2974299 2967994 2947844 2909616 2852079 2778410 2695418 2612842 
3588.719 2539847 2483225 2445704 2425512 2418315 2417849 2418581 2415916 
3592.577 2407187 2391927 2370871 2345719 2317870 2288257 2257380 2225640 
3596.434 2193669 2162800 2133863 2108225 2086018 2066708 2049097 2032419 
3600.292 2016373 2001727 1990143 1983352 1982587 1988079 1998598 2012346 
3604.149 2027026 2040475 2050428 2054357 2049496 2032652 2001594 1955627 
3608.006 1896818 1830798 1764954 1706770 1661100 1628805 1606955 1589728 
3611.864 1570906 1546797 1516239 1482292 1450077 1425011 1410650 1407891 
3615.721 1414274 1425576 1436547 1441068 1434419 1413243 1377077 1327853 
3619.579 1271190 1214568 1165096 1128751 1108222 1102807 1110215 1126858 
3623.436 1149714 1177754 1210714 1249358 1292891 1337292 1375249 1395226 
3627.293 1385022 1335298 1245437 1127124 1001470 892852 817124 777987 768627 
3631.633 776560 789107 796941 795481 785224 770652 756910 748579 747019 
3635.973 750836 756943 761590 762719 759798 754155 748081 743069 740215 
3640.312 738555 736464 732216 725213 716385 708751 705930 712070 729860 
3644.652 759333 797838 840694 880700 909951 921838 911313 876517 818950 
3648.991 743268 657080 569616 491423 432083 398321 392517 412781 452349 
3653.331 501342 548714 583385 595993 582456 544567 490461 431486 378622 
3657.671 338894 313925 301525 297048 296452 296385 295059 292307 288726 
3662.010 285079 282625 282559 286438 296020 313196 338994 373581 415434 
3666.350 461338 507114 546657 573896 584048 575488 551999 524596 510099 
3670.689 525392 583285 687180 831432 1002599 1182106 1349523 1481628 1558136 
3675.029 1566583 1508293 1398916 1260556 1113736 969390 830536 696439 566895 
3679.369 444621 335644 246056 179723 136301 112007 101136 98916 103622 
3683.708 116481 140013 176109 223447 276823 328349 367777 386514 380014 
3688.048 348975 300397 243338 187347 137760 95999 60937 31511 7388 -10138 
3692.870 -19681 -20343 -12590 1424 18124 34427 47914 58087 66041 73895 83969 
3698.174 96994 112372 127419 138356 141207 132821 112637 83141 48842 15871 
3702.995 -10337 -25678 -28726 -19979 -1259 25050 57126 93149 132622 175115 
3707.817 219833 265219 308123 344034 368308 376101 364561 333589 287466 
3712.157 232895 179026 134047 103025 87847 87118 96861 112372 129407 144621 
3716.979 157017 166729 175347 184231 194871 206673 218341 227789 233392 
3721.318 234685 233226 231105 231038 234387 240420 246156 247183 239161 
3725.658 219966 191092 158310 130733 117542 125165 155592 205214 266147 
3729.997 327786 380545 417159 435267 437987 431818 423261 415003 404357 
3734.337 385320 351329 299701 234685 166696 109289 72934 61832 74723 106373 
3739.159 151382 205744 267573 335910 408502 479614 539093 573066 568189 
3743.498 517132 427473 321917 234022 189800 197888 249338 325929 407673 
3747.838 476397 520449 534748 520383 483993 433609 376002 315948 257395 
3752.177 205247 166397 147173 151913 179822 225502 279973 334451 380545 
3756.517 412781 429662 431984 422598 404722 381142 354612 328780 307924 
3760.857 296650 297811 311339 333788 359520 381772 395701 399647 396497 
3765.196 391389 391323 400244 417756 439612 458552 467673 462333 442067 
3769.536 410791 375968 345261 324304 315252 316843 326095 338430 351296 
3773.875 363135 374443 386979 402698 422764 446843 471853 493314 505986 
3778.215 505886 492120 467507 439115 415003 401505 401505 412880 430326 
3782.555 446445 455201 452813 439148 417026 391190 366186 344531 327156 
3786.894 313461 302387 293965 288759 288030 292970 304044 320856 342276 
3791.234 366849 393446 420840 448070 473511 494541 508640 513450 507644 
3795.573 493281 474738 458850 452581 460177 481041 510696 539757 556478 
3799.913 550506 515142 452913 375637 303912 257726 249040 278680 336109 
3804.253 405551 468138 506981 511857 480908 422863 354977 296982 262368 
3808.592 255803 273242 306531 347416 390494 434306 479913 529108 581825 
3812.932 634151 679314 708220 712867 690133 644537 589888 544468 523833 
3817.271 536141 578640 639891 702943 750006 765075 738456 670421 573829 
3821.611 470625 383264 326990 305769 314025 340486 373282 403594 426810 
3825.951 443626 458253 477193 505223 543340 589025 636673 680410 714891 
3830.290 737991 750006 754056 754222 755118 759897 770021 785091 802950 
3834.630 819846 831001 831465 817423 787315 743733 693087 644803 608137 
3838.969 588859 587466 599875 618622 635677 644769 642612 628709 606113 
3843.309 578972 552098 530004 516137 512388 519554 537037 563644 598050 
3847.649 639493 688242 745194 811746 887274 969357 1049927 1116360 1152538 
3851.988 1141242 1071616 947041 789871 634018 512322 442598 424024 444057 
3856.328 486050 536108 584878 628012 664779 696372 724383 749475 771482 
3860.667 789804 804145 814502 821407 824461 823398 817755 808692 799431 
3865.007 795879 803813 827050 864565 909586 951026 976496 975168 942924 
3869.347 884518 814634 752130 711572 698364 707523 727370 745127 751433 
3873.686 743999 727005 710112 703541 715256 746886 795182 852613 910383 
3878.026 960092 994761 1010537 1007548 990411 966202 944551 933194 935818 
3882.365 950760 971714 988917 991607 971748 927384 864365 796842 741177 
3886.705 711771 714858 747285 799199 857891 910615 946344 959760 950296 
3891.045 923465 888038 854239 830071 820344 825888 845209 875521 913205 
3895.384 954945 998083 1039830 1077363 1109052 1132838 1146956 1151176 
3899.242 1145927 1132838 1114168 1092410 1068959 1044114 1017843 988252 
3903.099 955044 918319 880102 843782 813240 791265 779249 776859 782435 
3907.439 793555 808228 824693 842155 860348 879206 899028 920178 943057 
3911.778 968095 995691 1025183 1055308 1083740 1107192 1122274 1126526 
3915.636 1119217 1101645 1077662 1051521 1027740 1009042 996488 989714 
3919.493 987854 990278 997053 1008577 1024884 1044878 1066368 1085833 
3923.351 1099718 1105697 1103272 1094038 1081382 1069457 1061652 1059858 
3927.208 1064442 1074240 1087494 1102176 1116294 1127655 1134964 1136658 
3931.065 1131874 1120613 1103638 1083010 1061419 1041690 1026412 1016747 
3934.923 1013127 1014555 1020002 1028139 1037704 1048598 1060389 1073045 
3938.780 1086697 1100914 1114832 1127256 1136758 1141940 1142239 1138053 
3942.638 1130778 1122971 1117423 1115995 1119217 1126160 1134366 1141143 
3946.495 1143867 1141242 1133469 1122506 1110348 1100050 1092576 1088324 
3950.353 1086431 1085434 1084106 1082013 1079023 1075536 1072081 1069125 
3954.210 1066435 1063944 1062183 1061286 1062382 1066501 1074274 1085999 
3958.067 1100980 1118021 1135761 1152471 1166990 1178452 1186226 1190413 
3961.925 1190977 1188718 1184532 1179748 1175295 1172305 1170877 1170910 
3965.782 1171475 1171741 1170976 1168883 1165694 1162206 1159049 1156923 
3969.640 1156159 1156923 1158850 1162039 1166525 1171940 1177920 1183734 
3973.497 1188519 1191409 1191675 1189482 1185263 1180346 1175860 1172804 
3977.354 1171508 1171873 1173036 1174465 1175295 1175761 1175694 1175727 
3981.212 1175827 1176691 1178153 1180213 1183236 1186858 1190977 1194998 
3985.069 1198320 1199716 1198486 1194067 1186525 1177090 1167089 1158186 
3988.927 1152272 1150146 1152039 1157820 1166757 1177754 1190246 1203304 
3992.784 1216196 1227859 1237196 1242778 1244207 1241250 1234538 1225898 
3996.642 1217425 1211411 1209252 1211511 1217791 1226530 1235966 1244240 
4000.499 1250056 
##END=
