
##TITLE=Z382_3_e
##JCAMP-DX=5.01  $$ Nicolet v. 1
##DATATYPE=INFRARED SPECTRUM
##ORIGIN=UniL
##OWNER=Nicolet
##LONGDATE=2011/09/09
##TIME=10:48:00
##SPECTROMETER/DATA SYSTEM=Nicolet iS5
##DATA PROCESSING=
Ratio against background
%Transmittance->Absorbance
Truncated
ElementMultiply or ElementDivide
##COMMENTS=
Number of sample scans: 32
Collection length: 51.18 sec
Sample gain: 2.0
Background collected on: Ven Sep 09 10:32:29 2011 (GMT+02:00);
Number of background scans: 32
Background gain: 2.0
Sample spacing:  1.000
Number of scan points: 12415
Resolution points: 8192
Number of FFT points: 65536
Apodization: N-B fort;
Phase correction: Mertz;
Laser frequency: 15798.0 cm-1
Number of rejected sample scans: 0
Number of rejected background scans: 0
Bench serial number: ASB1000141;
##RESOLUTION=4.000
##XUNITS=1/CM
##YUNITS=ABSORBANCE
##FIRSTX=649.893372
##LASTX=4000.122314
##FIRSTY=0.073395
##MAXX=4000.122314
##MINX=649.893372
##MAXY=0.206804
##MINY=0.000144
##XFACTOR=1.000000
##YFACTOR=1.000000E-009
##NPOINTS=6950
##DELTAX=0.482117
##ZPD=6100
##XYDATA=(X++(Y..Y))
649.893 73395184 73333864 73354536 73487200 73727232 74042600 74394384 
653.268 74758488 75133576 75536112 75984056 76480704 77008144 77536464 
656.643 78037352 78500744 78940272 79384816 79863272 80388856 80953640 
660.018 81535360 82111248 82668904 83211552 83749648 84291064 84830536 
663.393 85351040 85829048 86246240 86594536 86869408 87061488 87143888 
666.767 87068856 86785720 86275776 85582032 84798352 84023728 83314216 
670.142 82668424 82043968 81380600 80628824 79763640 78795640 77760600 
673.517 76708088 75677168 74684144 73725704 72789624 71868424 70968408 
676.892 70106072 69299160 68555624 67869256 67221992 66594920 65978788 
680.267 65378352 64809600 64289496 63827276 63418724 63049972 62704124 
683.642 62371056 62052428 61759048 61503544 61291536 61118188 60969196 
687.016 60828640 60685008 60536696 60389692 60251728 60125480 60006732 
690.391 59885200 59752788 59608828 59462936 59329440 59221348 59142368 
693.766 59084092 59029732 58962324 58873448 58766420 58653996 58549296 
697.141 58459104 58379276 58297572 58200572 58082764 57949952 57817148 
700.516 57701108 57611396 57546400 57494576 57440756 57373176 57289468 
703.890 57195192 57099496 57008544 56922976 56838560 56751928 56665020 
707.265 56587104 56530640 56505884 56514868 56551096 56602540 56661128 
710.640 56729200 56821868 56961960 57172092 57465980 57842696 58288248 
714.015 58778636 59287544 59785948 60241296 60618600 60880104 60996192 
717.390 60962144 60811680 60624012 60502760 60557496 60856048 61393616 
720.765 62076088 62737012 63184352 63235552 62781952 61809204 60394112 
724.139 58674816 56811748 54960656 53232432 51695280 50376552 49272956 
727.514 48363408 47618784 47009072 46503756 46074812 45701240 45368228 
730.889 45069364 44803836 44573604 44378252 44214092 44073500 43948132 
734.264 43831308 43719200 43609944 43502328 43392684 43276372 43148932 
737.639 43008976 42860256 42710740 42570308 42445412 42337860 42244252 
741.013 42158296 42074876 41992344 41912460 41837804 41768964 41701844 
744.388 41629380 41544968 41447192 41341604 41240884 41159424 41109628 
747.763 41096372 41117316 41163468 41225728 41295724 41368572 41441432 
751.138 41510660 41570452 41614572 41637768 41639808 41625844 41605676 
754.513 41589084 41581792 41583396 41588864 41592292 41591088 41588428 
757.888 41591240 41607208 41639772 41686928 41742300 41800080 41859040 
761.262 41925160 42009536 42124012 42275988 42466272 42689904 42941888 
764.637 43221868 43538036 43905608 44340820 44857328 45461484 46153476 
768.012 46932724 47805356 48791024 49931612 51292716 52964752 55071680 
771.387 57752804 61153472 65397308 70533944 76490104 83005560 89645016 
774.762 95770584 100625984 103529480 103961928 101745320 97079440 90509608 
778.136 82787688 74672808 66874772 59901480 54030576 49354320 45801780 
781.511 43211656 41377096 40104808 39232916 38633952 38225184 37952528 
784.886 37783040 37699232 37690808 37750836 37873088 38050892 38277036 
788.261 38546316 38855108 39203688 39593776 40028792 40511492 41044036 
791.636 41628688 42269160 42970860 43742176 44591892 45529296 46562988 
795.010 47701356 48954444 50336516 51865428 53564108 55460024 57582376 
798.385 59966144 62654972 65701016 69172864 73151016 77715304 82936656 
801.760 88850768 95439528 102601424 110141104 117773624 125100240 131666064 
805.135 137003424 140666320 142347136 141923264 139499232 135383072 
808.028 130045800 124054512 117942480 112196744 107198816 103176544 
810.920 100229776 98315176 97274264 96839976 96678096 96449320 95818048 
814.295 94527840 92436472 89516288 85856912 81628080 77057912 72376160 
817.670 67791088 63479120 59556112 56087796 53092972 50552292 48421076 
821.045 46639936 45150568 43897288 42834216 41928736 41156620 40500908 
824.420 39950064 39494224 39126268 38841812 38639600 38521368 38491680 
827.794 38555732 38718088 38981048 39344596 39805440 40356280 40984680 
831.169 41673364 42399816 43137768 43863340 44557232 45207224 45808040 
834.544 46354168 46832548 47216880 47463152 47516824 47327636 46858972 
837.919 46104988 45093072 43883356 42552912 41181500 39844224 38595672 
841.294 37470568 36486444 35646600 34945384 34371880 33913540 33555972 
844.669 33284980 33088270 32955452 32878424 32851160 32867242 32919210 
848.043 32998956 33097782 33209718 33332382 33468284 33622704 33801784 
851.418 34009780 34247992 34514712 34807760 35125584 35468984 35840260 
854.793 36241924 36675648 37141240 37638124 38166828 38730696 39335640 
858.168 39989988 40703260 41484444 42344360 43297384 44363976 45574484 
861.543 46968536 48591060 50494672 52730528 55344236 58371960 61826548 
864.917 65684668 69863984 74217144 78514520 82444264 85674000 87870232 
868.292 88770808 88253368 86348736 83246904 79238608 74689504 69963544 
871.667 65359788 61117424 57380628 54207948 51595976 49495588 47835540 
875.042 46533336 45514576 44716048 44086520 43590232 43202364 42905056 
878.417 42686140 42535664 42445336 42409240 42423232 42485452 42594756 
881.792 42750336 42950520 43192700 43474604 43794984 44154296 44554588 
885.166 44998280 45486428 46019292 46595708 47215440 47881008 48599100 
888.541 49381528 50246600 51217552 52324056 53602192 55086608 56806424 
891.916 58770820 60957184 63296536 65669252 67925000 69885352 71385024 
895.291 72307512 72593968 72258160 71370968 70046192 68408992 66576384 
898.666 64656988 62736400 60884180 59159036 57603792 56247944 55105720 
902.040 54175556 53443428 52887872 52487832 52224272 52083416 52055064 
905.415 52129628 52297220 52548224 52874324 53271612 53740092 54283632 
908.790 54906400 55611696 56402568 57282852 58261076 59353216 60580276 
912.165 61965556 63530124 65287576 67243576 69397272 71744392 74279960 
915.540 76996432 79881024 82909096 86040504 89224104 92393472 95474536 
918.914 98388488 101037352 103304592 105055808 106134808 106402568 105769144 
922.289 104227712 101878616 98927168 95670624 92426472 89507368 87183288 
925.664 85635096 84970616 85222608 86363128 88314352 90954720 94134856 
929.039 97661560 101315496 104878088 108123664 110855104 112918384 114191816 
932.414 114599336 114107008 112725528 110519064 107612560 104205856 
935.306 100548752 96938224 93702504 91139296 89517512 89048320 89855160 
938.681 91979680 95362184 99846688 105150392 110868704 116522984 121541200 
942.056 125360624 127525984 127723488 125874248 122131568 116864312 
944.949 110561128 103741776 96907896 90437256 84585008 79490208 75183008 
948.324 71626016 68739112 66430220 64604544 63174768 62071196 61232968 
951.698 60611096 60169436 59877972 59714428 59661928 59705416 59831960 
955.073 60029520 60286328 60592428 60939880 61322900 61737660 62181220 
958.448 62649884 63139780 63646004 64163768 64689904 65223312 65764620 
961.823 66315248 66876324 67447520 68027136 68612624 69201968 69794640 
965.198 70391672 70994944 71605736 72223960 72848480 73476992 74108816 
968.573 74745104 75389224 76046456 76721768 77419072 78141064 78889208 
971.947 79665072 80471880 81313344 82193960 83117528 84085688 85098936 
975.322 86156616 87258512 88405408 89598144 90836216 92115248 93426720 
978.697 94758744 96096920 97428248 98742000 100029200 101281864 102489856 
982.072 103640224 104719464 105715496 106621608 107438840 108174928 
984.964 108841760 109450320 110008672 110520864 110988608 111414240 
987.857 111802784 112161864 112499600 112822008 113130760 113424424 
990.750 113700504 113959312 114206168 114450920 114705768 114982144 
993.643 115287304 115624368 115993848 116395912 116831784 117303904 
996.535 117812816 118355712 118924424 119508104 120094616 120675848 
999.428 121249672 121819592 122391760 122971720 123562016 124162592 
1002.321 124772880 125395160 126035752 126704304 127411384 128165096 
1005.213 128969744 129827928 130743744 131727264 132797096 133977456 
1008.106 135297104 136785776 138468512 140369168 142506976 144892656 
1010.999 147519328 150346704 153291888 156208080 158898496 161146400 
1013.891 162733232 163504368 163401632 162480416 160896576 158874528 
1016.784 156674512 154525248 152608208 151042096 149874160 149100064 
1019.677 148678512 148554736 148669136 148970576 149423392 150004400 
1022.570 150702800 151515504 152441584 153478864 154621120 155858032 
1025.462 157178688 158574304 160039408 161572304 163172464 164836896 
1028.355 166558784 168327408 170130176 171957488 173803248 175665504 
1031.249 177543920 179435840 181334704 183231248 185116080 186983024 
1034.142 188831104 190663232 192481664 194284048 196059856 197791632 
1037.035 199458192 201035232 202498704 203821504 204966448 205886304 
1039.928 206521920 206804032 206668880 206062080 204945936 203303968 
1042.821 201137296 198463280 195313264 191735840 187798128 183579712 
1045.714 179175568 174684288 170193568 165783904 161518192 157441088 
1048.607 153587824 149981312 146635936 143557328 140741456 138174832 
1051.500 135835760 133699088 131739168 129932048 128259016 126702920 
1054.393 125247080 123873744 122562248 121290232 120037784 118786928 
1057.286 117523824 116238352 114921104 113563408 112157144 110696544 
1060.179 109180592 107615104 106013280 104392904 102773512 101174272 
1063.072 99610160 98092808 96631280 95232240 93901328 92642840 91458616 
1066.448 90348232 89307976 88332880 87417448 86556920 85748600 84990520 
1069.823 84280920 83617264 82995288 82410136 81857176 81332968 80835488 
1073.198 80364336 79919184 79499512 79104024 78731888 78384040 78064712 
1076.573 77782952 77551040 77385176 77303104 77321624 77456456 77720256 
1079.948 78120280 78657416 79322880 80097376 80947256 81826688 82683496 
1083.324 83458064 84095384 84551640 84796304 84819504 84632192 84268128 
1086.699 83778456 83229240 82698048 82258544 81980336 81922192 82125064 
1090.074 82617808 83418760 84539280 85991192 87789152 89950280 92492632 
1093.449 95427928 98752192 102434312 106404984 110553944 114710736 118662592 
1096.825 122166992 124958392 126806600 127544640 127098160 125507160 
1099.718 122917632 119562944 115702944 111607808 107520664 103620664 
1102.611 100038048 96846984 94072960 91710232 89730960 88098064 86768768 
1105.986 85702536 84864784 84224928 83759608 83451112 83284680 83248144 
1109.361 83330072 83518744 83804008 84177904 84636144 85178712 85808216 
1112.737 86525296 87322112 88173192 89026024 89803080 90394784 90674144 
1116.112 90524336 89849416 88608480 86827848 84605944 82095000 79467448 
1119.487 76900032 74529640 72442160 70674488 69218632 68040976 67097760 
1122.862 66353968 65787284 65391332 65173188 65149544 65343648 65780424 
1126.238 66485316 67477048 68757896 70303272 72049136 73893120 75683600 
1129.613 77240952 78383256 78932952 78758144 77787904 76019616 73522792 
1132.988 70428296 66919804 63192016 59438088 55830444 52490748 49499264 
1136.363 46892488 44670544 42810520 41276228 40029956 39033608 38252756 
1139.739 37658032 37220584 36914212 36716176 36605568 36566384 36586352 
1143.114 36655532 36765504 36908364 37075596 37259932 37455900 37660560 
1146.489 37873488 38095348 38326548 38566632 38813984 39067320 39326932 
1149.864 39594828 39875164 40171532 40486320 40818412 41164268 41518788 
1153.240 41877028 42236292 42595380 42954396 43312724 43668196 44016772 
1156.615 44353772 44674108 44973952 45249696 45496840 45710000 45881208 
1159.990 46001060 46061068 46054472 45977224 45828108 45607124 45313832 
1163.365 44946944 44504700 43986592 43394444 42734432 42015812 41249592 
1166.740 40447368 39619072 38772648 37915320 37053836 36195932 35350928 
1170.116 34527768 33734884 32978762 32263386 31590666 30961540 30377240 
1173.491 29839472 29350156 28910648 28521084 28179770 27884266 27631720 
1176.866 27420226 27248664 27115996 27020640 26959748 26928618 26923508 
1180.241 26942298 26987250 27064224 27182590 27352996 27584160 27882888 
1183.617 28253776 28699698 29223934 29829962 30521820 31303692 32179810 
1186.992 33156392 34244408 35462620 36837412 38403024 40192796 42230012 
1190.367 44517912 47030856 49711392 52466968 55187808 57753712 60047288 
1193.742 61980804 63501052 64603156 65329792 65770292 66048840 66297420 
1197.118 66653872 67235720 68121712 69350040 70904704 72720680 74678792 
1200.493 76623688 78382144 79765592 80608960 80785280 80214136 78876768 
1203.868 76810216 74102648 70873296 67266664 63442112 59547292 55722504 
1207.243 52086368 48720888 45679780 42983552 40625136 38577424 36801564 
1210.619 35257268 33905016 32713018 31658694 30725762 29904604 29189736 
1213.994 28578372 28069476 27663008 27359420 27158392 27057738 27052660 
1217.369 27136806 27302186 27541336 27849148 28222200 28658674 29157310 
1220.744 29715488 30328952 30992958 31702462 32453510 33243772 34070160 
1224.120 34928076 35810032 36705972 37605892 38502868 39395604 40289564 
1227.495 41196076 42130876 43108968 44144908 45251496 46439780 47720624 
1230.870 49105116 50602248 52219228 53958984 55821436 57804088 59905284 
1234.245 62125784 64469112 66939944 69541992 72275424 75136336 78117464 
1237.621 81207272 84389360 87637704 90906968 94131232 97216616 100041928 
1240.996 102480712 104406352 105714312 106345424 106291968 105608960 
1243.889 104403776 102839848 101113040 99419456 97956440 96888144 96332368 
1247.264 96370056 97038176 98343480 100273104 102805456 105915800 109570432 
1250.639 113724008 118302368 123183760 128204752 133142056 137717760 
1253.532 141640656 144598208 146299968 146527936 145146464 142141312 
1256.426 137617840 131795392 124967720 117449432 109571536 101628280 
1259.319 93862784 86482152 79632912 73408832 67859264 62986612 58758532 
1262.694 55114900 51983240 49283940 46938484 44881868 43059172 41429368 
1266.069 39966848 38656008 37491588 36475632 35617320 34931092 34434500 
1269.444 34147220 34086720 34262512 34672228 35296732 36098200 37015548 
1272.820 37972524 38880076 39638896 40159356 40365512 40207588 39674180 
1276.195 38791596 37623020 36250240 34768240 33267162 31815860 30464666 
1279.570 29240486 28150284 27188902 26343946 25601554 24947242 24368206 
1282.945 23852944 23391758 22977098 22604198 22270744 21976130 21719786 
1286.321 21500008 21313820 21157420 21027330 20921584 20839814 20782042 
1289.696 20747806 20733940 20734914 20745130 20759068 20774710 20793166 
1293.071 20818124 20853614 20902218 20964180 21037972 21122458 21217398 
1296.446 21324886 21448310 21590538 21752844 21933890 22131188 22343018 
1299.822 22569050 22811648 23073598 23357070 23661476 23983778 24319074 
1303.197 24663888 25016978 25380226 25757034 26149438 26556994 26975650 
1306.572 27399686 27823712 28244970 28664018 29083154 29504748 29928600 
1309.947 30351552 30769436 31178112 31576376 31966340 32353084 32743566 
1313.323 33144556 33563388 34008024 34486120 35004280 35562728 36151528 
1316.698 36743468 37295132 37752972 38057728 38162268 38040548 37692612 
1320.073 37143048 36433976 35616924 34738844 33840392 32954418 32104206 
1323.448 31309248 30585774 29945852 29397272 28942488 28578018 28297024 
1326.823 28091498 27954050 27878718 27859888 27891404 27965148 28071916 
1330.199 28202928 28350888 28510998 28680194 28855156 29031110 29201040 
1333.574 29356926 29492052 29602780 29689196 29754056 29800542 29829714 
1336.949 29840362 29828862 29792594 29731490 29650420 29557486 29461166 
1340.324 29368910 29283514 29205044 29131800 29063384 29002134 28952512 
1343.700 28920494 28910578 28926478 28970220 29044502 29153910 29304390 
1347.075 29503222 29756470 30067064 30434740 30857616 31334356 31865738 
1350.450 32454402 33102468 33808480 34565332 35360780 36178104 37001120 
1353.825 37814960 38605016 39355224 40043944 40640636 41111452 41422220 
1357.201 41546424 41474276 41214728 40798028 40267204 39678176 39091500 
1360.576 38563408 38150404 37903172 37863404 38064528 38525244 39247644 
1363.951 40217548 41407788 42780684 44284276 45853776 47406792 48837632 
1367.326 50038192 50907780 51376324 51425520 51091300 50457232 49625132 
1370.702 48704804 47792632 46957460 46247856 45689864 45289264 45032680 
1374.077 44885616 44795792 44691256 44496548 44146156 43591336 42814360 
1377.452 41829704 40685064 39449412 38203624 37028540 35985876 35119332 
1380.827 34455880 34009420 33789212 33801892 34053212 34551840 35315312 
1384.203 36375352 37783764 39603468 41886844 44643444 47801140 51193132 
1387.578 54554496 57585744 60014076 61625188 62307948 62043636 60894244 
1390.953 58976596 56443848 53469136 50210336 46824724 43466652 40277672 
1394.328 37394796 34924664 32921102 31377270 30233314 29404328 28797194 
1397.704 28335006 27967444 27666716 27426508 27251344 27146998 27113916 
1401.079 27145660 27230284 27355008 27508540 27684124 27881016 28104542 
1404.454 28365320 28675700 29048222 29493578 30018880 30628578 31323134 
1407.829 32097104 32934364 33805256 34668064 35467908 36150448 36675432 
1411.205 37024104 37206176 37253396 37211632 37123812 37023632 36932212 
1414.580 36858336 36804848 36773328 36766840 36789592 36846000 36939280 
1417.955 37072020 37249244 37479056 37773172 38140996 38582852 39089364 
1421.330 39642668 40222784 40811968 41401372 41992820 42596732 43226260 
1424.706 43889296 44583004 45294376 46004632 46695128 47354536 47978392 
1428.081 48568788 49132092 49678212 50222348 50785228 51399152 52103924 
1431.456 52938324 53936140 55116480 56485428 58042388 59792372 61755000 
1434.831 63960472 66437012 69182416 72136672 75179664 78165304 80972208 
1438.207 83535088 85836808 87877416 89649136 91116088 92215856 92882584 
1441.582 93057056 92711008 91851976 90522792 88791656 86736192 84442520 
1444.957 81986336 79423800 76795744 74127560 71445840 68799472 66266000 
1448.332 63946916 61950576 60358624 59215652 58524992 58253156 58335544 
1451.708 58677244 59169440 59685004 60095420 60288764 60158556 59612284 
1455.083 58577392 57026492 55021768 52740180 50462960 48464940 46911204 
1458.458 45830724 45158876 44803432 44683400 44743852 44948120 45266132 
1461.833 45670176 46128380 46604708 47065788 47482040 47835464 48125028 
1465.208 48368260 48596324 48842784 49139772 49510592 49967260 50511904 
1468.584 51138004 51831828 52569760 53319596 54035752 54651436 55086648 
1471.959 55260652 55116368 54645984 53892808 52931812 51839216 50680772 
1475.334 49510148 48371704 47312048 46377724 45605764 45022316 44636688 
1478.709 44444536 44436092 44602428 44941028 45457216 46161620 47064936 
1482.085 48173668 49486568 50995412 52689376 54563212 56622096 58885096 
1485.460 61383808 64154164 67225776 70613008 74311016 78300552 82559576 
1488.835 87071240 91823976 96795136 101941544 107185120 112422376 117542192 
1492.210 122449528 127075616 131355776 135228064 138612064 141392976 
1495.104 143450960 144691824 145098880 144754656 143837328 142573488 
1497.997 141162928 139763456 138482288 137385648 136526160 135946896 
1500.890 135676144 135721984 136059664 136630944 137331968 138014784 
1503.783 138485168 138462864 137591968 135466128 131718520 126227840 
1506.676 119264672 111436120 103404056 95615000 88221904 81180704 74384592 
1510.051 67761336 61305732 55102108 49292368 44012848 39374380 35419480 
1513.426 32120724 29405924 27179978 25349102 23824944 22536138 21433272 
1516.802 20484338 19679350 19019078 18503864 18123758 17852898 17649736 
1520.177 17470468 17279998 17072278 16873164 16728099 16673764 16718663 
1523.552 16844954 17019898 17213976 17409970 17610260 17832324 18099440 
1526.927 18426488 18813154 19246748 19710972 20195792 20701446 21237162 
1530.302 21815830 22446564 23131572 23864636 24633518 25426386 26234186 
1533.678 27053118 27880168 28711096 29536384 30342028 31110228 31822312 
1537.053 32463652 33019408 33478520 33830112 34062780 34163244 34120264 
1540.428 33935936 33630796 33240088 32801666 32339946 31859498 31345714 
1543.803 30777154 30139366 29438330 28701184 27968610 27275018 26632202 
1547.179 26028120 25433482 24817592 24162990 23476808 22788462 22139102 
1550.554 21559512 21057866 20620170 20221130 19839140 19466252 19112278 
1553.929 18797790 18542936 18354104 18219634 18112048 17996994 17834118 
1557.304 17579966 17194360 16653864 15976444 15231545 14515259 13903188 
1560.680 13424142 13069559 12809919 12611249 12441278 12276143 12103576 
1564.055 11925969 11758171 11620658 11530208 11491353 11494755 11522110 
1567.430 11554673 11578935 11592037 11601361 11621269 11666263 11744792 
1570.805 11859121 12008189 12190669 12406431 12655630 12937331 13246712 
1574.181 13577201 13922962 14283037 14664453 15080817 15547751 16072191 
1577.556 16652865 17283964 17960838 18683800 19457796 20288826 21177596 
1580.931 22114000 23076674 24031786 24939346 25761674 26462500 27012460 
1584.306 27390758 27583312 27586560 27406850 27062074 26579362 25992482 
1587.682 25340850 24661048 23982132 23321582 22682634 22057940 21434804 
1591.057 20802932 20157540 19500664 18837790 18175686 17520108 16876712 
1594.432 16254874 15669612 15139551 14684915 14318890 14043855 13851154 
1597.807 13726005 13655632 13633715 13663291 13752544 13909585 14136712 
1601.183 14429514 14780377 15185219 15648933 16186634 16818880 17566820 
1604.558 18445848 19462510 20617286 21907682 23330184 24877728 26534592 
1607.933 28273224 30048882 31806268 33489794 35048928 36451884 37688748 
1611.308 38770800 39723700 40577732 41357780 42074616 42722148 43277032 
1614.684 43705384 43965512 44017248 43832368 43401768 42734944 41854152 
1618.059 40780668 39530152 38112528 36534628 34803452 32925498 30916032 
1621.434 28797832 26608880 24411946 22287034 20319484 18580732 17107878 
1624.809 15900996 14929148 14146845 13505860 12965015 12498325 12092946 
1628.185 11747788 11467129 11254995 11110740 11028520 10998171 11007890 
1631.560 11045853 11099727 11157176 11204196 11224222 11200421 11119782 
1634.935 10979548 10793501 10590183 10403148 10255580 10154424 10091580 
1638.310 10052073 10018977 9979376 9926828 9861642 9790163 9720798 9661166 
1642.168 9614686 9579490 9549174 9513916 9463456 9387067 9276195 9127080 
1646.025 8943381 8738223 8533228 8353933 8220263 8143550 8123294 8149694 
1649.883 8205810 8267674 8307391 8290335 8182917 7968263 7667137 7342596 
1653.740 7065241 6876216 6772850 6728798 6713723 6705343 6691648 6668230 
1657.597 6636603 6601143 6566158 6534135 6504569 6473762 6436230 6385320 
1661.455 6315722 6225059 6117009 6001158 5890711 5799399 5736375 5704011 
1665.312 5697263 5706360 5718849 5721905 5704783 5661812 5592565 5502826 
1669.170 5402772 5304686 5219198 5154112 5112604 5093830 5092791 5100434 
1673.027 5104894 5092255 5050250 4974330 4871047 4759447 4661707 4595299 
1676.885 4565228 4564525 4579928 4598848 4613716 4624533 4637929 4662276 
1680.742 4703038 4757738 4815160 4855667 4857811 4805745 4699286 4560474 
1684.599 4426158 4330200 4285860 4287332 4317985 4361258 4403028 4434258 
1688.457 4450661 4451398 4439447 4420969 4405070 4401790 4419329 4461909 
1692.314 4527192 4606617 4685320 4746617 4775627 4765912 4725413 4676477 
1696.172 4647239 4655277 4701229 4768693 4833084 4866021 4844074 4758877 
1700.029 4625873 4483502 4372536 4318454 4320060 4359718 4413873 4461440 
1703.886 4486649 4480254 4441957 4379900 4308849 4243431 4194048 4164574 
1707.744 4152899 4153468 4159891 4167451 4173942 4179662 4186320 4196356 
1711.601 4211177 4231252 4255844 4284220 4315241 4347971 4380402 4408752 
1715.459 4426760 4426593 4402258 4352656 4285090 4214657 4159791 4133363 
1719.316 4140054 4175681 4230884 4294961 4358915 4417455 4468771 4514302 
1723.174 4557293 4601326 4649952 4705249 4768626 4840589 4920205 5005132 
1727.031 5090779 5171246 5240225 5293417 5330212 5354230 5371036 5385796 
1730.888 5399115 5405154 5390795 5338061 5232075 5067882 4861396 4646737 
1734.746 4464085 4339872 4277460 4262436 4272542 4286629 4287031 4263373 
1738.603 4213285 4142228 4061417 3983563 3918495 3870118 3836889 3814359 
1742.461 3797579 3782739 3768367 3755199 3745774 3743000 3748715 3763688 
1746.318 3786716 3814693 3844009 3870419 3890645 3901711 3901444 3888204 
1750.176 3861560 3822983 3777257 3732005 3695612 3674860 3672387 3685687 
1754.033 3707575 3727693 3736316 3725989 3695511 3650534 3601853 3561562 
1757.890 3536575 3528090 3530228 3534237 3530328 3511388 3475482 3425818 
1761.748 3369515 3315858 3273123 3246283 3236936 3243145 3260905 3284441 
1765.605 3306442 3320465 3321267 3307845 3283005 3253961 3227956 3208929 
1769.463 3195277 3179790 3152254 3103796 3031151 2940238 2845676 2764371 
1773.320 2708221 2680048 2674314 2681715 2693551 2704987 2715256 2726359 
1777.177 2740163 2756302 2771807 2781911 2782745 2773008 2755568 2736062 
1781.035 2720357 2711888 2710021 2711322 2710555 2703920 2690250 2671380 
1784.892 2651778 2636076 2627842 2628976 2640410 2661979 2693384 2733894 
1788.750 2780811 2829434 2873158 2904479 2916887 2907514 2878962 2839072 
1792.607 2798185 2765605 2747032 2742597 2749233 2762937 2779377 2795851 
1796.465 2810124 2820662 2825998 2824698 2816027 2799919 2778210 2753367 
1800.322 2728460 2706454 2688950 2676581 2669147 2665913 2666280 2670013 
1804.179 2676648 2685783 2696885 2709454 2723225 2738429 2755101 2772808 
1808.037 2790849 2807423 2820229 2827899 2829700 2826999 2822096 2817828 
1811.894 2816060 2817894 2822430 2828366 2834102 2839072 2842907 2846843 
1815.752 2852246 2859950 2870757 2884999 2902477 2922692 2945242 2969495 
1819.609 2995018 3021475 3048569 3076665 3105831 3135300 3164002 3189603 
1823.467 3209697 3223016 3230159 3234666 3241576 3255797 3279299 3310082 
1827.324 3342769 3369248 3381737 3375793 3352152 3316859 3279032 3247484 
1831.181 3226921 3217040 3213269 3209730 3201485 3186198 3164002 3137102 
1835.039 3108101 3079235 3051806 3026380 3003458 2984508 2972131 2968828 
1838.896 2977435 2999455 3034822 3081904 3136968 3195210 3249888 3294022 
1842.754 3321400 3328879 3318796 3299598 3283606 3282003 3301367 3341534 
1846.611 3397098 3459483 3520808 3576429 3626043 3672721 3721143 3774617 
1850.469 3834181 3898000 3962731 4025632 4085832 4144369 4202880 4262403 
1854.326 4322302 4380134 4433723 4481627 4525518 4568878 4616295 4671420 
1858.183 4735496 4807856 4886360 4969772 5057927 5151765 5252902 5360871 
1862.041 5472727 5583537 5687225 5778916 5855682 5916742 5962257 5992020 
1865.898 6003644 5992591 5953355 5882315 5779588 5651003 5507591 5361945 
1869.756 5225905 5106369 5004864 4919133 4845046 4778207 4715197 4653267 
1873.613 4590142 4523677 4452536 4376319 4295798 4212549 4128513 4044327 
1877.470 3959220 3871020 3777491 3677834 3573890 3469536 3369916 3279533 
1881.328 3200417 3131929 3071426 3016237 2965559 2920891 2885333 2862385 
1885.185 2853713 2857882 2870990 2887934 2903345 2913719 2917588 2915220 
1889.043 2908448 2899842 2892237 2888201 2890069 2898275 2911951 2928629 
1892.900 2944275 2954817 2958019 2953816 2944809 2935468 2929864 2930231 
1896.758 2936435 2946176 2956818 2967460 2978670 2993182 3013868 3042296 
1900.615 3077600 3116944 3156793 3194309 3228824 3261172 3293121 3325841 
1904.472 3359698 3393558 3426753 3458982 3490746 3523681 3558289 3593334 
1908.330 3625909 3652272 3669614 3676798 3675963 3670249 3662931 3656114 
1912.187 3649799 3642782 3634529 3625809 3619026 3616988 3620697 3628081 
1916.045 3634663 3633995 3621632 3597944 3567743 3539849 3522612 3520341 
1919.902 3531831 3551340 3570750 3583445 3586485 3580906 3570616 3560627 
1923.760 3554213 3552576 3555382 3562464 3574291 3592231 3617623 3649933 
1927.617 3687090 3725254 3761047 3793234 3823685 3855041 3890946 3932069 
1931.474 3975771 4016870 4049711 4070079 4077671 4075263 4067069 4057203 
1935.332 4048105 4040280 4033859 4030481 4032655 4044795 4070313 4109179 
1939.189 4157382 4208166 4253101 4286060 4304900 4312196 4313534 4315073 
1943.047 4321231 4333111 4349577 4368152 4386627 4405137 4424384 4445472 
1946.904 4470211 4499571 4534893 4577919 4629992 4691918 4762562 4838077 
1950.761 4913503 4984150 5047568 5105095 5161355 5222551 5292477 5371774 
1954.619 5456520 5539941 5614852 5676851 5724389 5759777 5786438 5806720 
1958.476 5822368 5833551 5839663 5841846 5842820 5844936 5851047 5862298 
1962.334 5877344 5894742 5913383 5933066 5954665 5979221 6005929 6031865 
1966.191 6053502 6067312 6072721 6072721 6073124 6079442 6096075 6122991 
1970.049 6157706 6197297 6240320 6287751 6342450 6407042 6481497 6562962 
1973.906 6646730 6729740 6813238 6903888 7009777 7138192 7289354 7454895 
1977.763 7619723 7766669 7882384 7961042 8004206 8017808 8008695 7983045 
1981.621 7944236 7895442 7841728 7788899 7744980 7717524 7710003 7722044 
1985.478 7750478 7789539 7835791 7889403 7952403 8028541 8119006 8221850 
1989.336 8331607 8443217 8552456 8659255 8767094 8880372 9001527 9130836 
1993.193 9264077 9396174 9523738 9645649 9763528 9880590 9999244 10120033 
1997.051 10240856 10358896 10470994 10576229 10674392 10765377 10848702 
2000.426 10922359 10983660 11030694 11064342 11087149 11104689 11123045 
2003.801 11146944 11179955 11224358 11280227 11348618 11430219 11525274 
2007.176 11633079 11751260 11876487 12005158 12136285 12269462 12406943 
2010.552 12550708 12700594 12855378 13011924 13168765 13327474 13492154 
2013.927 13668215 13859261 14064526 14277867 14489736 14691221 14877403 
2017.302 15048469 15209205 15365126 15518527 15666865 15803020 15919935 
2020.677 16012918 16082678 16132779 16169300 16195025 16208129 16202901 
2024.052 16171673 16109360 16014466 15891166 15745331 15583434 15410372 
2027.428 15227702 15037218 14841367 14645433 14456301 14282489 14128360 
2030.803 13995774 13882386 13783462 13696117 13621680 13564621 13531702 
2034.178 13527566 13550947 13594021 13645067 13690646 13721731 13735307 
2037.553 13735000 13727510 13721423 13722927 13734555 13754801 13779597 
2040.929 13802855 13819410 13824609 13816024 13793483 13759658 13718038 
2044.304 13673822 13631082 13591150 13553682 13516285 13476124 13431900 
2047.679 13384297 13335572 13288184 13241451 13191751 13131778 13054295 
2051.054 12953033 12826471 12677941 12513330 12339952 12163510 11986049 
2054.430 11806651 11622835 11432566 11236463 11038885 10845644 10662608 
2057.805 10494076 10340504 10200487 10070994 9950016 9836392 9730488 9633216 
2061.662 9543925 9460747 9381513 9304257 9229045 9157975 9094022 9039551 
2065.520 8994186 8954475 8914597 8868400 8810982 8741467 8661250 8573442 
2069.377 8482071 8390009 8298069 8206554 8115158 8023208 7930704 7837039 
2073.235 7740628 7639484 7531520 7415594 7292926 7167329 7043250 6926646 
2077.092 6821686 6730211 6651710 6584155 6524549 6470230 6418811 6367902 
2080.949 6315587 6260556 6202372 6142011 6082298 6026658 5977440 5935451 
2084.807 5898168 5860552 5817532 5764914 5702063 5631803 5559775 5491518 
2088.664 5431256 5379489 5333365 5288386 5239386 5182412 5116225 5041534 
2092.522 4960656 4877212 4795024 4718680 4652430 4600154 4563420 4541790 
2096.379 4531846 4527963 4524346 4516579 4502216 4481627 4456653 4428668 
2100.237 4398141 4364638 4326519 4283785 4238178 4193010 4152699 4120318 
2104.094 4096903 4081083 4070413 4061952 4054594 4049042 4047002 4049610 
2107.951 4056668 4066467 4076200 4084528 4091418 4099211 4111086 4129249 
2111.809 4153334 4180632 4206828 4227505 4240921 4247613 4250223 4251695 
2115.666 4253837 4255844 4255276 4249119 4234798 4212348 4183275 4150357 
2119.524 4116103 4082086 4048640 4015532 3982794 3950860 3920802 3893553 
2123.381 3868847 3845547 3822348 3797914 3772578 3747779 3725788 3708043 
2127.239 3695144 3685353 3675695 3664368 3650033 3633493 3617656 3604626 
2131.096 3596107 3592665 3593868 3599013 3608635 3624138 3647260 3678569 
2134.953 3716565 3757237 3796075 3828900 3853035 3868781 3877907 3882554 
2138.811 3883892 3881886 3876068 3866307 3852968 3836688 3817668 3794805 
2142.668 3764122 3722012 3665905 3595706 3516733 3437607 3366710 3310916 
2146.526 3273691 3252392 3243312 3242410 3247484 3258568 3276662 3299231 
2150.383 3321333 3335123 3331851 3306008 3257499 3190504 3112572 3029583 
2154.240 2944742 2857249 2765905 2672714 2587042 2525616 2508986 2554611 
2158.098 2668880 2842807 3053774 3273524 3474413 3638205 3758407 3836588 
2161.955 3879111 3894289 3891246 3877272 3860657 3848990 3847820 3859053 
2165.813 3880716 3906191 3927488 3938389 3935948 3921972 3901510 3879278 
2169.670 3859019 3841101 3823117 3802894 3779698 3755165 3733976 3721544 
2173.528 3722346 3738388 3768735 3810214 3857815 3907996 3956010 3998811 
2177.385 4034728 4063022 4085164 4104831 4126807 4155542 4193646 4240119 
2181.242 4290176 4338132 4378996 4410057 4433087 4452937 4473592 4498165 
2185.100 4526087 4554045 4578187 4596303 4608291 4617166 4626944 4639738 
2188.957 4655612 4671755 4684047 4688937 4684683 4671320 4650220 4622959 
2192.815 4589271 4549290 4503522 4453473 4403196 4357442 4320394 4294326 
2196.672 4277929 4267422 4257618 4245271 4228843 4210642 4193345 4180967 
2200.530 4175313 4176685 4183877 4195219 4210441 4228709 4249621 4272675 
2204.387 4295765 4317048 4335555 4352355 4370294 4393957 4426961 4470847 
2208.244 4523710 4581268 4637527 4687831 4729031 4760854 4784773 4802897 
2212.102 4817170 4828561 4837909 4845213 4851009 4855432 4857711 4856404 
2215.959 4849402 4834860 4812546 4784237 4753049 4722264 4694664 4670214 
2219.817 4646670 4621151 4591146 4556054 4518152 4480890 4448083 4421639 
2223.674 4401254 4384083 4367115 4348607 4327924 4306640 4287064 4270534 
2227.531 4257652 4248115 4241290 4238178 4240453 4250458 4269463 4297036 
2231.389 4329664 4362697 4390845 4410760 4421438 4424752 4423379 4420300 
2235.246 4417856 4416852 4418057 4422676 4432250 4449355 4476304 4513331 
2239.104 4559201 4611238 4665592 4719082 4769765 4816466 4859252 4897787 
2242.961 4931533 4959818 4982273 4998931 5010998 5019344 5025411 5029567 
2246.819 5031746 5031277 5028025 5023031 5017333 5012071 5008048 5004395 
2250.676 4999534 4992261 4982575 4971984 4964242 4963504 4972721 4992697 
2254.533 5021288 5053937 5085482 5110928 5126887 5131916 5125982 5109922 
2258.391 5085080 5053702 5018472 4982743 4950065 4922752 4901640 4885589 
2262.248 4871918 4858080 4842398 4825646 4810704 4801323 4800083 4807420 
2266.106 4821023 4836636 4849234 4855566 4854930 4849334 4842533 4837875 
2269.963 4838244 4844543 4856270 4871885 4890649 4911057 4932672 4955260 
2273.821 4978587 5002317 5026920 5052898 5081091 5112068 5145495 5179730 
2277.678 5212558 5240728 5262158 5275573 5281912 5282885 5281745 5281342 
2281.535 5283589 5289459 5298682 5309818 5321256 5330480 5335344 5333935 
2285.393 5325415 5309818 5289157 5266048 5243679 5225637 5213229 5207159 
2289.250 5206086 5208601 5213296 5219500 5227414 5237844 5251359 5267793 
2293.108 5285769 5303411 5318673 5329776 5335814 5337021 5334337 5329205 
2296.965 5323302 5318204 5315453 5316359 5321692 5331721 5345508 5361878 
2300.823 5378953 5395358 5410153 5423472 5436221 5449642 5464741 5482256 
2304.680 5502289 5524538 5548734 5574743 5602668 5632273 5663323 5694879 
2308.537 5725799 5754774 5781200 5804470 5824954 5842853 5858369 5871769 
2312.395 5883255 5892894 5901392 5909453 5917817 5927356 5938105 5950197 
2316.252 5962929 5976332 5990408 6005626 6022525 6041339 6061936 6084011 
2320.110 6106659 6129712 6152765 6175013 6195650 6212522 6222942 6224555 
2323.967 6215884 6197902 6173837 6149640 6131526 6125242 6135089 6161738 
2327.824 6203750 6257429 6318680 6383638 6449547 6514357 6576586 6635123 
2331.682 6688284 6734956 6774297 6806136 6830909 6849018 6860900 6866286 
2335.539 6864939 6856793 6842386 6822864 6800044 6775408 6749864 6723111 
2339.397 6694408 6663284 6629538 6594280 6559127 6525557 6493975 6463000 
2343.254 6429976 6391776 6346754 6295618 6241732 6190911 6150514 6126822 
2347.112 6124032 6144027 6185802 6246471 6321101 6404688 6491419 6575812 
2350.969 6653291 6720789 6777561 6824648 6864839 6901498 6937049 6972671 
2354.826 7007790 7040656 7068541 7089320 7101816 7105487 7100873 7089691 
2358.684 7074098 7057528 7042913 7033147 7030015 7033349 7040960 7049614 
2362.541 7056080 7057798 7054666 7048469 7042340 7039478 7041566 7048469 
2366.399 7058202 7067867 7074637 7077095 7075074 7069686 7063018 7057124 
2370.256 7053521 7053151 7056417 7062950 7072077 7082619 7093194 7102388 
2374.114 7109124 7113065 7114109 7113031 7110202 7105824 7099795 7091543 
2377.971 7080934 7068676 7055642 7043822 7034561 7028567 7025334 7023314 
2381.828 7020519 7015468 7007656 6997823 6988160 6980853 6977856 6980314 
2385.686 6988496 7001359 7017859 7036716 7056653 7076590 7095282 7111987 
2389.543 7125830 7137013 7145973 7154226 7163388 7175212 7191112 7211897 
2393.401 7238141 7270082 7307719 7350784 7398135 7447817 7496964 7542308 
2397.258 7581284 7612676 7636719 7655570 7671724 7687710 7704438 7721167 
2401.115 7736075 7746497 7750208 7746261 7734591 7716614 7693713 7667879 
2404.973 7640867 7614227 7589477 7567932 7550298 7536273 7525114 7515540 
2408.830 7506673 7498886 7493458 7493054 7500302 7516855 7542881 7576530 
2412.688 7614935 7654693 7694016 7732264 7770447 7810792 7854684 7903473 
2416.545 7956858 8014264 8074413 8136325 8199361 8262777 8325224 8385415 
2420.403 8441190 8491126 8534242 8570738 8601662 8628868 8653712 8677001 
2424.260 8698601 8717803 8733625 8745424 8752929 8756546 8756851 8754653 
2428.117 8750799 8745998 8741400 8737850 8736566 8737647 8741637 8748365 
2431.975 8757527 8769224 8783730 8801717 8823426 8848956 8877329 8906852 
2435.832 8935973 8963134 8987962 9010931 9033225 9056230 9080759 9106847 
2439.690 9134051 9161664 9188906 9215744 9242279 9268850 9295456 9321894 
2443.547 9347894 9373354 9398409 9423940 9451062 9480829 9513645 9549412 
2447.405 9586806 9624612 9661268 9695080 9724999 9749904 9768746 9780945 
2451.262 9785961 9784436 9777998 9768611 9759190 9751938 9748516 9749566 
2455.119 9755022 9763764 9774880 9787588 9801516 9816497 9833002 9851508 
2458.977 9872828 9897979 9927810 9963000 10003211 10047494 10094360 10142011 
2462.834 10189294 10235801 10282823 10332496 10386722 10447574 10515733 
2466.209 10590556 10671131 10756171 10844965 10937378 11034263 11136100 
2469.585 11243263 11355658 11472641 11593772 11718648 11847373 11980837 
2472.960 12119998 12265986 12419797 12582666 12756038 12941904 13142535 
2476.335 13360105 13596483 13853275 14130859 14429651 14749902 15091727 
2479.710 15455176 15840234 16245792 16669909 17109774 17561368 18020272 
2483.086 18481562 18939708 19388152 19819892 20226026 20597828 20926174 
2486.461 21202784 21420950 21576122 21666112 21691048 21653608 21558852 
2489.836 21413222 21225192 21004204 20759068 20498440 20229670 19958568 
2493.211 19689822 19427580 19175264 18936558 18715280 18514892 18338586 
2496.587 18189298 18068836 17978760 17920710 17896506 17908520 17959524 
2499.962 18052704 18191508 18378334 18615558 18904510 19245846 19639588 
2503.337 20084416 20578756 21119746 21704006 22327006 22983038 23664276 
2506.712 24361302 25060432 25744726 26395208 26988520 27500986 27909952 
2510.088 28194126 28336954 28328182 28164708 27851232 27400426 26832248 
2513.463 26169322 25437628 24662836 23866984 23069510 22286300 21528140 
2516.838 20803524 20117558 19472386 18868140 18302780 17772602 17273170 
2520.213 16799902 16349271 15919110 15508947 15119893 14754049 14414032 
2523.589 14101422 13817084 13560758 13331096 13125767 12942894 12780095 
2526.964 12635571 12508078 12396817 12300957 12219840 12152675 12097852 
2530.339 12053598 12017522 11987513 11961934 11940102 11922257 11909622 
2533.714 11903526 11905058 11914049 11929919 11950831 11974741 11999571 
2537.090 12023381 12045524 12065623 12083883 12100612 12116863 12133627 
2540.465 12151788 12172165 12194962 12220351 12248059 12277541 12308762 
2543.840 12341828 12377146 12415262 12456315 12500030 12545387 12591432 
2547.215 12637550 12683706 12730686 12780708 12835617 12897052 12965595 
2550.591 13040809 13121430 13205448 13291327 13378009 13465085 13552247 
2553.966 13639835 13728057 13817050 13907224 13999093 14093105 14190183 
2557.341 14290879 14395776 14505632 14621170 14743423 14873597 15013242 
2560.716 15163191 15324347 15496276 15678270 15868930 16067067 16271625 
2564.092 16481992 16697831 16918636 17143896 17372378 17602600 17832668 
2567.467 18060476 18283910 18500370 18708362 18905584 19090396 19261674 
2570.842 19418574 19560068 19685524 19793430 19882530 19951838 20000514 
2574.217 20029174 20039098 20033232 20014462 19985838 19950242 19909934 
2577.593 19866784 19822908 19780426 19741346 19708198 19682888 19666940 
2580.968 19661670 19668534 19688816 19724806 19778658 19852736 19948336 
2584.343 20065920 20204504 20362088 20536614 20725980 20929408 21146670 
2587.718 21378450 21625746 21889002 22168390 22464010 22774668 23098654 
2591.094 23433442 23775486 24120290 24462456 24796824 25117652 25420134 
2594.469 25700114 25953262 26175868 26363766 26512580 26618852 26679378 
2597.844 26692732 26659048 26579748 26457640 26295538 26097360 25866706 
2601.219 25607810 25325396 25024700 24710956 24390356 24068138 23749624 
2604.594 23439456 23141532 22858968 22594492 22349992 22127318 21927860 
2607.970 21752948 21604362 21483856 21393730 21335362 21310062 21317648 
2611.345 21356732 21424674 21518358 21634208 21769008 21919948 22084120 
2614.720 22258572 22440072 22624720 22808678 22988558 23161626 23326338 
2618.095 23482368 23629952 23769816 23903250 24031436 24156228 24279548 
2621.471 24403570 24530220 24660592 24794718 24930924 25066330 25196930 
2624.846 25318544 25426386 25515982 25582752 25622114 25629390 25599938 
2628.221 25529160 25413880 25252062 25043126 24788614 24491588 24157032 
2631.596 23790956 23400498 22993378 22577112 22159046 21745910 21342636 
2634.972 20953538 20581430 20227310 19891758 19574348 19274178 18990106 
2638.347 18721712 18467800 18228136 18002278 17789932 17590454 17403036 
2641.722 17226490 17059078 16899484 16746074 16597781 16454322 16315795 
2645.097 16182885 16056031 15935745 15822435 15715921 15616302 15523747 
2648.473 15438249 15360286 15290058 15227598 15173142 15126136 15086272 
2651.848 15053169 15026310 15005182 14989473 14978635 14972291 14969958 
2655.223 14971468 14976852 14986489 15000414 15018765 15041608 15068331 
2658.598 15098622 15131935 15168269 15207592 15250625 15297472 15348477 
2661.974 15403540 15462489 15524743 15590268 15658621 15729904 15803982 
2665.349 15880685 15959326 16039563 16120812 16202798 16285866 16370809 
2668.724 16458452 16549589 16644396 16742596 16843472 16946094 17049670 
2672.099 17153686 17258310 17363892 17471226 17580932 17693356 17808640 
2675.475 17926684 18047178 18169950 18295072 18422996 18554314 18690166 
2678.850 18831284 18978544 19132222 19292122 19457900 19629118 19805220 
2682.225 19986464 20173160 20366014 20565970 20773806 20990154 21215380 
2685.600 21449738 21693418 21947132 22211456 22487770 22777252 23081496 
2688.976 23402004 23740420 24097944 24475532 24873624 25292098 25729890 
2692.351 26185370 26656476 27140932 27635782 28138124 28644304 29149728 
2695.726 29648682 30133898 30596686 31027372 31415202 31749908 32021516 
2699.101 32221168 32342304 32380964 32336376 32211248 32012134 31748552 
2702.477 31431910 31075524 30693152 30296870 29898286 29506804 29128858 
2705.852 28769224 28430972 28114792 27820886 27548784 27297564 27066376 
2709.227 26854100 26659260 26480180 26314902 26161614 26018340 25884290 
2712.602 25759072 25643134 25537066 25441704 25357394 25283880 25220598 
2715.978 25166700 25121478 25084408 25055238 25033894 25020522 25014556 
2719.353 25015888 25023436 25036878 25055166 25077456 25102592 25129520 
2722.728 25157008 25184184 25210168 25234996 25259508 25284372 25311274 
2726.103 25341342 25375836 25416022 25463100 25518616 25584262 25661342 
2729.479 25750774 25852814 25966628 26090534 26222606 26361230 26505394 
2732.854 26654996 26810360 26971806 27139804 27314146 27494314 27679746 
2736.229 27870028 28064668 28263748 28466950 28673398 28881504 29089530 
2739.604 29295068 29495740 29689658 29874966 30050480 30214736 30366296 
2742.979 30503622 30624916 30728714 30813436 30877964 30921652 30944104 
2746.355 30945846 30927950 30892514 30842320 30780960 30712390 30641024 
2749.730 30570522 30504546 30446538 30398990 30363916 30343022 30336734 
2753.105 30344870 30365870 30397780 30437654 30483040 30531312 30580476 
2756.480 30629326 30676616 30721494 30763034 30800202 30832002 30857544 
2759.856 30876006 30887036 30890628 30887392 30878392 30864836 30848792 
2763.231 30832286 30817418 30806036 30799562 30799100 30805288 30819446 
2766.606 30842710 30876648 30923076 30983778 31059756 31151698 31259824 
2769.981 31383858 31523678 31679616 31851906 32041206 32247290 32469648 
2773.357 32707196 32957956 33220198 33492480 33773848 34064032 34362880 
2776.732 34670288 34985928 35308556 35636308 35967124 36298616 36628276 
2780.107 36953928 37273616 37585440 37887988 38179744 38459456 38726276 
2783.482 38978872 39216200 39437580 39642272 39830348 40002740 40161320 
2786.858 40308976 40449152 40585736 40722728 40863692 41011700 41169008 
2790.233 41336900 41515764 41704396 41900856 42101344 42301296 42495648 
2793.608 42678460 42844748 42990136 43111824 43208988 43283512 43339596 
2796.983 43382836 43421100 43462956 43516392 43589208 43688164 43818624 
2800.359 43984872 44190284 44437048 44726332 45057896 45430472 45841328 
2803.734 46287332 46764384 47268636 47796848 48345296 48910716 49489796 
2807.109 50078424 50671872 51265276 51853216 52430068 52990504 53528240 
2810.484 54036728 54509828 54940540 55322748 55651616 55923184 56135116 
2813.860 56286188 56376196 56405248 56374084 56284756 56139604 55942556 
2817.235 55698624 55413344 55092892 54743436 54371012 53981836 53582548 
2820.610 53179924 52781336 52393992 52024360 51677736 51358088 51067856 
2823.985 50807836 50578164 50378116 50206764 50063252 49946516 49855788 
2827.361 49790792 49750848 49735984 49746056 49780796 49839736 49922540 
2830.736 50028376 50156852 50306868 50477516 50667556 50875368 51099012 
2834.111 51336608 51586760 51848924 52123612 52413056 52720128 53048080 
2837.486 53400296 53779876 54189216 54630880 55107940 55623820 56183192 
2840.862 56791392 57454148 58178332 58970976 59839604 60793384 61842824 
2844.237 62998564 64272016 65672228 67203464 68861824 70632496 72487336 
2847.612 74381088 76255608 78043056 79666464 81055704 82151000 82910184 
2850.987 83316584 83378808 83129808 82618088 81905744 81060856 80145744 
2854.363 79220880 78337848 77535152 76842920 76278792 75850272 75556024 
2857.738 75388240 75335504 75383384 75517776 75725408 75992776 76307464 
2861.113 76657016 77028440 77409256 77787072 78150384 78489112 78794496 
2864.488 79059664 79280728 79456544 79589728 79686328 79755920 79810072 
2867.864 79860200 79917752 79992152 80089760 80215576 80371992 80559976 
2871.239 80778816 81026552 81300000 81594608 81906144 82229960 82562144 
2874.614 82899672 83239320 83577904 83911688 84236512 84548864 84846208 
2877.989 85128880 85400088 85665528 85933480 86213344 86513976 86844152 
2881.365 87211000 87619984 88074928 88577112 89125568 89716744 90345168 
2884.740 91004320 91687024 92387080 93099056 93817592 94538264 95256216 
2888.115 95966304 96663816 97345080 98008712 98654952 99286624 99907536 
2891.490 100521688 101133328 101745952 102362712 102987040 103622472 
2894.383 104272368 104940192 105628656 106340304 107077456 107842960 
2897.276 108640152 109472528 110342776 111251448 112196616 113173248 
2900.169 114173712 115189104 116210728 117230504 118240632 119234800 
2903.063 120205816 121146560 122051032 122913672 123731856 124505464 
2905.956 125236824 125930176 126589640 127219872 127824512 128407552 
2908.849 128973888 129529448 130081744 130638984 131208552 131796016 
2911.742 132403880 133029968 133666720 134300192 134911056 135473776 
2914.635 135958816 136338624 136587776 136689952 136639744 136443488 
2917.528 136117136 135681584 135160208 134572096 133930176 133240568 
2920.421 132502448 131711200 130859984 129944472 128963856 127923920 
2923.314 126836824 125722376 124605584 123512784 122471040 121502976 
2926.207 120624360 119844264 119164304 118580392 118083928 117664216 
2929.100 117310416 117011032 116756168 116537240 116346880 116179984 
2931.993 116033144 115903928 115790488 115690832 115601928 115519912 
2934.886 115439888 115356696 115265096 115160160 115036944 114891056 
2937.779 114718112 114515040 114280168 114014240 113720520 113403816 
2940.672 113070104 112724408 112370096 112008144 111637328 111254752 
2943.565 110856728 110439544 109999800 109534352 109041168 108519200 
2946.458 107968824 107392760 106796192 106187152 105575368 104972680 
2949.352 104392184 103847144 103352344 102922400 102571384 102312856 
2952.245 102157880 102113832 102184216 102367080 102655896 103037568 
2955.138 103494960 104005616 104541336 105072144 105566200 105992304 
2958.031 106326712 106553336 106667400 106675824 106595648 106451376 
2960.924 106268984 106075504 105893608 105739168 105621760 105543304 
2963.817 105498432 105475328 105458384 105429624 105370832 105267424 
2966.710 105109408 104892224 104617216 104290016 103920248 103519056 
2969.603 103099360 102674656 102257128 101857832 101484984 101142824 
2972.496 100831480 100547544 100285168 100037288 99797240 99559568 99320024 
2975.871 99074792 98820992 98555000 98273624 97974960 97658368 97325464 
2979.247 96980016 96627968 96275624 95930016 95598144 95286456 95000848 
2982.622 94746504 94527104 94344872 94200048 94090656 94013096 93962000 
2985.997 93931440 93914448 93903096 93889112 93862664 93813520 93731528 
2989.372 93606520 93430008 93195504 92898712 92538312 92115696 91636240 
2992.748 91108080 90542536 89953336 89353728 88756048 88169336 87598176 
2996.123 87043064 86501400 85969336 85442888 84919896 84399936 83884472 
2999.498 83376032 82877256 82390952 81919384 81464528 81028032 80611032 
3002.873 80214176 79837072 79478824 79137696 78811976 78499664 78199416 
3006.249 77909600 77628808 77354888 77085016 76816272 76544840 76267808 
3009.624 75982392 75686480 75378392 75056960 74721456 74371648 74008224 
3012.999 73632848 73248624 72859176 72469216 72082920 71704520 71337584 
3016.374 70984720 70647896 70327808 70024624 69736544 69460992 69194272 
3019.750 68931992 68669632 68403128 68128880 67843688 67545168 67230656 
3023.125 66897736 66544212 66168128 65768092 65343648 64895040 64422952 
3026.500 63928724 63414276 62881440 62332540 61770280 61196652 60613568 
3029.875 60022140 59422512 58814032 58195796 57566828 56926680 56275820 
3033.250 55615536 54947908 54275524 53601328 52928408 52259924 51598960 
3036.626 50948576 50311556 49690100 49086012 48500168 47932916 47383992 
3040.001 46852552 46337392 45837020 45350244 44875404 44411316 43957300 
3043.376 43512984 43078232 42653240 42238116 41832552 41435964 41047716 
3046.751 40667016 40293344 39926784 39567496 39216344 38873880 38540448 
3050.127 38216140 37900788 37593824 37294808 37003320 36718880 36440964 
3053.502 36168740 35901292 35637604 35376808 35118292 34861760 34607816 
3056.877 34356888 34109944 33867832 33631652 33401974 33179782 32965496 
3060.252 32759606 32561888 32371860 32188624 32011066 31838250 31669710 
3063.628 31505186 31345110 31190146 31040646 30896962 30758624 30625058 
3067.003 30495268 30368288 30243332 30120082 29998644 29879508 29763282 
3070.378 29650988 29543760 29442516 29348348 29261928 29184136 29115288 
3073.753 29055980 29006740 28967952 28939688 28921626 28912702 28910860 
3077.129 28913446 28917520 28920104 28918864 28912632 28901228 28885328 
3080.504 28866134 28844852 28822226 28797938 28771490 28741894 28708052 
3083.879 28669328 28625616 28577594 28526142 28472646 28418166 28363620 
3087.254 28309226 28254554 28199004 28141588 28081564 28018722 27953060 
3090.630 27885042 27815518 27745082 27674096 27602450 27529790 27455344 
3094.005 27378616 27299398 27217794 27134302 27049766 26965002 26880536 
3097.380 26796614 26712886 26628678 26543116 26455350 26364786 26271496 
3100.755 26176114 26079732 25983936 25890656 25801194 25716918 25638634 
3104.131 25566690 25501118 25442336 25390238 25345486 25308922 25280860 
3107.506 25261824 25251816 25250026 25255750 25267830 25285460 25308288 
3110.881 25336388 25370742 25412228 25461800 25519496 25584404 25654804 
3114.256 25727430 25799190 25866600 25927022 25978448 26020170 26051832 
3117.632 26074068 26086874 26090640 26085010 26069846 26044690 26009720 
3121.007 25965186 25912356 25852568 25787832 25720364 25652098 25584756 
3124.382 25519074 25455230 25392696 25330662 25268322 25205780 25143702 
3127.757 25083846 25028210 24978582 24935592 24898676 24866290 24835730 
3131.133 24804192 24769742 24731086 24687842 24640496 24589370 24534708 
3134.508 24476442 24414400 24348264 24278356 24205410 24130168 24053744 
3137.883 23976320 23897894 23817906 23735694 23650630 23562502 23471700 
3141.258 23378680 23284490 23190076 23096556 23005152 22916912 22832810 
3144.634 22753262 22678444 22607792 22540292 22475210 22412126 22350970 
3148.009 22293170 22239566 22191684 22149946 22113964 22082342 22052954 
3151.384 22023812 21993348 21961072 21927268 21892976 21859908 21829210 
3154.759 21801790 21777752 21756990 21738876 21722608 21708082 21694984 
3158.135 21683630 21674436 21667714 21664056 21663430 21665902 21671196 
3161.510 21678788 21688438 21699756 21712576 21726266 21740302 21753992 
3164.885 21766710 21777682 21786948 21794684 21801548 21808620 21816494 
3168.260 21825692 21836318 21848236 21861022 21874892 21890014 21907194 
3171.635 21926744 21948806 21972678 21996868 22019456 22038244 22051734 
3175.011 22059160 22060902 22058184 22052954 22047098 22042460 22040126 
3178.386 22040544 22043438 22048180 22053582 22059056 22064180 22069060 
3181.761 22074602 22081610 22090536 22102006 22115360 22130002 22144856 
3185.136 22159396 22173344 22187500 22202530 22219198 22237960 22258536 
3188.512 22280232 22302032 22323588 22344900 22366806 22390530 22417150 
3191.887 22447680 22482432 22521308 22563780 22609570 22658092 22709062 
3195.262 22762166 22816816 22872380 22928334 22984260 23040580 23097640 
3198.637 23156420 23217690 23281938 23349310 23418892 23490168 23561978 
3202.013 23633660 23705006 23775836 23846506 23917254 23988540 24060468 
3205.388 24133004 24205796 24278006 24348686 24416116 24478862 24536006 
3208.763 24586984 24632114 24672338 24709236 24744030 24778056 24811698 
3212.138 24844992 24877552 24908746 24938292 24965842 24991638 25016030 
3215.514 25039300 25062082 25084722 25107226 25129766 25151954 25173406 
3218.889 25193840 25212766 25230184 25246408 25261686 25276504 25291044 
3222.264 25305620 25320372 25335862 25352826 25372322 25395788 25423892 
3225.639 25456776 25493914 25533832 25574738 25615508 25655470 25695440 
3229.015 25736500 25780342 25828270 25881090 25938348 25999166 26062386 
3232.390 26126462 26190366 26253298 26314618 26374048 26431828 26488560 
3235.765 26545264 26603208 26663452 26726450 26791822 26858576 26925164 
3239.140 26990070 27052554 27112118 27169010 27223370 27275158 27323710 
3242.516 27368594 27408580 27443802 27474512 27501372 27525344 27546948 
3245.891 27565802 27581372 27592494 27598494 27599342 27595670 27588998 
3249.266 27580876 27572968 27566542 27562730 27562306 27565870 27573604 
3252.641 27585572 27601108 27619184 27638924 27659794 27681372 27704502 
3256.017 27730426 27759882 27793898 27831908 27873348 27916524 27960234 
3259.392 28003384 28045300 28085382 28123842 28159796 28193170 28223896 
3262.767 28252396 28279872 28307598 28336848 28368326 28401576 28435678 
3266.142 28469002 28500348 28529256 28556078 28581662 28607036 28632908 
3269.518 28658992 28684370 28707946 28728336 28744654 28756656 28764304 
3272.893 28767948 28767984 28764940 28759454 28752302 28744194 28735840 
3276.268 28727912 28720796 28714848 28710424 28707662 28706848 28708088 
3279.643 28711130 28714708 28717786 28718352 28715096 28707274 28695166 
3283.019 28679770 28662958 28646428 28631598 28619282 28610116 28603888 
3286.394 28600136 28598190 28597092 28595536 28592386 28586616 28577948 
3289.769 28566658 28553742 28540686 28528796 28518782 28510752 28504170 
3293.144 28498014 28491892 28485594 28479156 28472752 28466492 28459698 
3296.520 28451136 28440240 28426268 28409536 28391210 28372958 28356336 
3299.895 28342824 28332850 28326412 28322700 28320824 28319942 28319128 
3303.270 28318066 28316440 28314284 28311666 28308872 28306008 28303142 
3306.645 28299888 28295752 28290270 28283446 28275948 28269440 28266010 
3310.021 28267708 28276018 28290588 28310250 28332390 28354566 28374728 
3313.396 28392236 28407660 28422270 28438152 28456300 28477140 28500914 
3316.771 28526638 28553354 28580600 28608028 28635596 28663558 28692654 
3320.146 28723450 28756620 28792520 28831254 28872260 28914330 28956016 
3323.521 28996112 29033768 29069016 29102744 29136050 29170174 29205222 
3326.897 29241016 29276426 29310736 29342852 29372598 29400038 29425424 
3330.272 29448578 29469002 29486024 29498862 29507196 29510742 29509856 
3333.647 29504678 29495210 29481094 29462550 29439820 29414220 29387700 
3337.022 29362350 29339484 29319776 29301980 29284046 29263664 29238856 
3340.398 29208944 29173932 29135024 29093144 29048858 29002558 28953572 
3343.773 28901618 28846836 28789440 28730034 28669504 28608098 28545568 
3347.148 28481880 28416750 28350640 28283798 28217072 28150390 28083650 
3350.523 28016178 27947230 27876210 27803294 27729082 27654604 27580734 
3353.899 27507938 27436074 27364854 27293540 27222134 27150878 27080518 
3357.274 27011614 26945082 26880782 26818678 26758518 26699672 26641784 
3360.649 26584540 26527372 26469790 26411194 26351444 26290188 26227640 
3364.024 26164148 26100104 26036036 25972362 25909544 25848350 25789732 
3367.400 25734180 25682258 25633396 25586336 25539456 25490858 25439314 
3370.775 25384302 25326554 25267164 25206868 25145808 25083706 25019750 
3374.150 24953348 24884746 24815312 24747116 24681984 24621174 24564510 
3377.525 24510272 24456462 24401010 24342834 24282140 24220336 24158854 
3380.901 24099520 24042642 23988224 23935214 23882596 23829284 23774856 
3384.276 23718792 23660846 23601054 23539520 23476840 23414136 23353120 
3387.651 23295468 23242262 23194130 23149708 23107318 23064512 23018848 
3391.026 22968926 22914468 22856454 22795968 22734828 22674116 22614668 
3394.402 22556414 22499184 22442550 22386240 22330668 22275976 22223000 
3397.777 22172156 22123830 22077846 22033608 21990246 21946400 21900782 
3401.152 21852660 21801442 21747096 21689794 21630448 21569436 21507458 
3404.527 21444968 21382522 21320606 21259360 21199132 21139468 21079814 
3407.903 21019366 20957676 20894118 20829108 20763412 20698388 20635006 
3411.278 20574030 20515426 20458322 20401260 20342714 20281744 20217728 
3414.653 20151570 20084590 20018590 19955204 19895538 19839764 19786774 
3418.028 19734966 19682056 19626274 19566688 19503332 19437250 19370484 
3421.404 19305076 19242452 19182918 19126232 19070592 19014474 18956356 
3424.779 18895202 18830732 18763748 18694730 18625208 18556248 18488926 
3428.154 18423894 18361950 18302952 18247108 18193720 18142036 18091150 
3431.529 18040270 17988844 17936802 17884352 17831564 17778746 17726282 
3434.905 17674100 17622442 17571582 17521936 17473676 17427042 17381550 
3438.280 17336478 17290550 17242488 17190912 17135314 17075654 17012800 
3441.655 16948058 16883222 16819982 16759299 16701171 16644705 16587971 
3445.030 16528558 16464509 16395101 16320681 16243728 16167305 16095228 
3448.406 16029455 15970910 15918182 15868725 15819307 15766872 15709771 
3451.781 15647560 15580927 15510973 15438695 15365195 15290711 15215759 
3455.156 15140787 15066719 14994823 14926095 14861220 14799849 14741298 
3458.531 14684092 14626687 14567544 14505804 14440784 14372932 14302555 
3461.906 14230513 14157867 14085644 14014562 13944893 13876195 13807507 
3465.282 13738762 13669377 13599629 13530369 13462658 13397009 13333351 
3468.657 13271137 13208932 13145712 13081237 13015611 12949927 12885584 
3472.032 12822649 12761293 12699946 12637038 12570899 12500576 12426275 
3475.407 12349259 12270962 12193395 12118124 12046614 11979236 11916297 
3478.783 11857316 11801204 11746052 11690361 11631956 11570496 11506493 
3482.158 11441581 11378515 11319301 11264550 11213376 11162820 11109788 
3485.533 11050509 10983694 10909244 10829066 10746220 10664306 10586007 
3488.908 10512949 10446182 10385500 10330562 10280583 10234478 10190718 
3492.284 10147539 10103144 10055904 10004940 9950084 9891911 9831239 9769220 
3496.141 9706804 9644836 9584232 9525635 9470162 9418285 9369731 9323790 
3499.999 9278734 9232735 9184304 9132461 9077850 9021892 8966482 8914023 
3503.856 8866067 8823256 8785420 8751712 8720575 8689914 8657667 8621467 
3507.713 8579255 8529849 8473353 8411224 8346266 8281892 8221073 8166035 
3511.571 8117184 8073603 8034009 7996781 7960738 7925272 7890449 7855898 
3515.428 7821689 7787077 7751591 7715062 7677828 7640732 7605292 7572686 
3519.286 7543421 7517124 7492751 7468277 7441783 7411617 7376431 7336362 
3523.143 7291983 7244576 7195996 7148230 7102220 7058337 7016243 6974186 
3527.000 6930249 6882848 6830471 6773153 6711973 6648984 6586375 6526197 
3530.858 6469961 6418340 6371265 6328262 6288423 6250303 6212959 6175148 
3534.715 6136029 6094999 6052024 6007407 5961954 5916674 5872340 5829320 
3538.573 5787915 5747925 5709449 5672454 5637173 5603675 5571757 5540579 
3542.430 5509068 5475680 5439207 5398545 5353223 5303579 5250386 5195322 
3546.288 5139963 5086757 5037210 4993200 4955495 4923624 4896312 4871282 
3550.145 4845582 4816466 4782394 4742496 4698014 4650990 4604306 4560139 
3554.002 4520396 4485711 4455783 4429706 4406309 4384318 4362629 4340742 
3557.860 4318119 4294527 4269965 4244368 4217735 4190267 4162232 4134434 
3561.717 4107741 4083692 4063123 4046266 4032320 4018943 4001988 3977142 
3565.575 3939993 3887970 3821078 3743267 3660458 3579402 3506077 3444253 
3569.432 3394794 3357060 3329280 3309347 3295525 3286444 3280334 3275360 
3573.290 3269885 3261806 3249454 3231795 3208595 3179956 3146880 3110837 
3577.147 3073328 3036123 3001156 2970229 2944375 2923959 2908181 2895706 
3581.004 2884599 2873525 2862118 2851212 2842774 2838538 2839539 2844942 
3584.862 2851712 2854447 2847076 2824064 2782612 2723558 2652378 2577576 
3588.719 2507919 2450436 2409485 2384398 2372537 2369405 2370038 2369838 
3592.577 2365641 2355280 2338257 2314972 2286492 2254050 2219479 2184312 
3596.434 2150346 2119246 2092177 2069937 2052259 2037945 2025494 2013943 
3600.292 2002692 1992240 1983985 1979358 1979458 1984584 1994104 2006786 
3604.149 2020834 2034649 2046467 2054024 2054723 2045302 2023164 1987047 
3608.006 1937754 1879747 1819618 1764155 1718745 1685049 1661133 1642641 
3611.864 1624182 1602099 1575229 1545567 1517137 1494661 1481062 1477006 
3615.721 1480331 1487346 1493264 1492865 1482492 1458987 1422418 1374817 
3619.579 1320807 1267402 1220981 1186990 1168252 1164631 1174398 1194101 
3623.436 1221446 1254874 1293921 1339352 1390373 1443528 1492200 1525350 
3627.293 1529905 1494960 1416568 1302628 1171973 1048831 951491 887473 
3631.151 853941 841425 839499 839433 836345 829872 822203 816427 814867 
3635.490 817655 822801 827316 829009 827581 824195 821672 821938 826054 
3639.830 833059 840296 844545 843583 836910 826685 816991 812610 817987 
3644.170 835582 865029 902912 944219 981876 1008743 1018806 1007647 973806 
3648.509 918950 847400 766370 684757 612450 558402 528677 525492 546425 
3652.849 585243 632425 677423 709482 719670 703209 661693 603060 538496 
3657.188 480112 436030 409099 397890 397691 403395 410724 416794 420343 
3661.528 421669 421934 422366 424190 428734 436727 449297 467176 491058 
3665.868 520615 554885 591480 626187 654227 670553 672578 662821 649846 
3670.207 648386 673739 737692 844280 988750 1159282 1338920 1509124 1647630 
3674.547 1734147 1754740 1707302 1603729 1463974 1308577 1150345 994961 
3678.404 844844 701450 568786 452681 358393 288593 242642 216319 204584 
3682.744 203855 213004 233260 266744 313892 372254 435533 495702 542577 
3687.083 568222 568156 543439 500313 447374 393512 344233 300994 263164 
3691.423 229779 200407 175811 157415 146543 143659 148366 159238 174452 
3695.763 192253 211347 230508 249173 266810 282659 295954 305338 309217 
3700.102 306531 296352 278713 255969 230839 207302 188772 178430 176971 
3704.442 184595 199943 221424 247780 277884 311671 349141 389997 432813 
3708.781 474539 510265 534250 540586 525425 488405 433742 369369 305470 
3713.121 251328 213004 192518 188142 196065 211148 228983 246520 262534 
3717.461 277420 292804 310046 330306 352855 375869 396530 412416 422034 
3721.800 425483 424256 420707 416794 413013 408403 400410 386647 366219 
3726.140 340685 314953 296352 291279 304509 336407 383231 437722 491556 
3730.479 536838 568886 587399 595959 600771 606278 612815 615469 606876 
3734.819 579835 531895 468237 399846 340585 301027 284979 290715 312898 
3739.159 345924 386249 433244 486812 545994 606511 659337 691593 690963 
3743.498 650112 575090 486083 412648 377958 389333 438584 508673 581958 
3747.838 641916 678717 687843 671416 635379 587034 531961 473942 416595 
3752.177 364594 324835 303779 305802 330107 371558 422100 473179 517298 
3756.517 549444 568056 573597 568156 553658 532127 505886 478752 455533 
3760.857 441868 441204 454107 477690 505886 532027 551169 561288 564705 
3765.196 566431 572204 585707 606245 629439 648751 657877 652833 633520 
3769.536 603591 569649 538397 514312 499351 492617 491788 493978 497427 
3773.875 501375 506318 513516 524231 538928 556843 575057 589854 596888 
3778.215 593172 578408 555681 531463 513151 505986 512023 528411 549809 
3782.555 568521 578839 577678 565867 547122 526587 509071 496698 489300 
3786.894 484656 480543 475733 470692 467043 467176 473080 485552 504195 
3791.234 527681 554222 581626 607805 630567 647291 655786 654957 645333 
3795.573 629804 613943 603690 604520 618257 641882 669160 690067 693850 
3799.913 672014 620978 547056 464091 393545 354247 355474 395867 463825 
3804.253 543174 615469 665012 681405 662025 614441 553293 496863 457656 
3808.592 441138 444389 461205 485021 512056 542311 577910 621508 673275 
3812.932 729096 781008 818950 833225 819149 780377 729826 685520 663817 
3817.271 673076 710909 766635 823996 866059 879007 855036 795979 714559 
3821.611 630766 563047 522805 511393 522241 544965 569417 588760 600306 
3825.951 606079 610791 621044 641451 673208 714261 759964 805008 844479 
3830.290 875521 896969 909819 916327 919448 921706 925026 930106 936415 
3834.630 941828 943588 938109 922635 896073 860514 821108 785456 760694 
3838.969 751533 758005 776361 799929 821705 835681 838437 829009 809423 
3843.309 783398 755782 731419 714161 706495 709249 721662 742538 770386 
3847.649 804609 846106 896637 958464 1031992 1114899 1199616 1273151 1318813 
3851.988 1318181 1259526 1143767 991540 835681 708951 630667 601965 612085 
3856.328 645566 689204 733577 773739 808825 839632 867752 894280 919614 
3860.667 943521 965438 984633 999477 1008278 1008876 1000175 984035 965504 
3865.007 952786 954181 975102 1015153 1066999 1118354 1155196 1164930 
3868.865 1141508 1088424 1019437 953616 906399 884684 884917 896737 908225 
3873.204 910682 901883 885747 871404 868217 882891 916891 966169 1023356 
3877.544 1080186 1128386 1161375 1175196 1169382 1148020 1117756 1088125 
3881.401 1067763 1061685 1069856 1087361 1105431 1113171 1101578 1067431 
3885.259 1014422 954911 904639 878177 882526 916160 969821 1031527 1088557 
3889.598 1129848 1149448 1146358 1125396 1094602 1063512 1039863 1027707 
3893.456 1028471 1041358 1064242 1094768 1130711 1169515 1208421 1244174 
3897.313 1273716 1294552 1305021 1305486 1298108 1285812 1272253 1259759 
3901.170 1248959 1238558 1225998 1207922 1182538 1149647 1111577 1072181 
3905.028 1036110 1006717 986027 974139 969888 971714 978124 987987 1000673 
3909.367 1015850 1033121 1052285 1072679 1094602 1118354 1144099 1171608 
3913.225 1200048 1227227 1250288 1266272 1273084 1270226 1258862 1241981 
3917.082 1223107 1205397 1190479 1178850 1170279 1164265 1161176 1161907 
3920.940 1167488 1178020 1192738 1208953 1223606 1233674 1237129 1234305 
3924.797 1226729 1217193 1208653 1203071 1201510 1203670 1209152 1217193 
3928.655 1227095 1238060 1248726 1257466 1262284 1261420 1254209 1241050 
3932.512 1224337 1206760 1191509 1180678 1174897 1174133 1177056 1182572 
3936.369 1189781 1198054 1207557 1218024 1229620 1241549 1253312 1263979 
3940.227 1272719 1278667 1281459 1280993 1278036 1273483 1269396 1267501 
3944.084 1269329 1275111 1284017 1294153 1302761 1307380 1306350 1299504 
3947.942 1287906 1273682 1259127 1246201 1235701 1227626 1221612 1216960 
3951.799 1213305 1210248 1207723 1205796 1203769 1201510 1198852 1196460 
3955.656 1195097 1195862 1199815 1207192 1217791 1230617 1244540 1258729 
3959.514 1272386 1285513 1297876 1309241 1319112 1326590 1330977 1332107 
3963.371 1330512 1326823 1322369 1318049 1314027 1310371 1306549 1302528 
3967.229 1298175 1294452 1291794 1290797 1291761 1294153 1297344 1300401 
3971.086 1302860 1304855 1306317 1307746 1309108 1310139 1310338 1309673 
3974.944 1308411 1306981 1306383 1307580 1310272 1313961 1317517 1319876 
3978.801 1320408 1319145 1316852 1314792 1314094 1314924 1317583 1321139 
3982.658 1324829 1328219 1331243 1334334 1337591 1341380 1345136 1348293 
3986.516 1349988 1349756 1347628 1344305 1340615 1337757 1336228 1336827 
3990.373 1339253 1343540 1349058 1355506 1362220 1368535 1373488 1375981 
3994.231 1375416 1371826 1365776 1358763 1352780 1349523 1350886 1356968 
3998.088 1367139 1380401 1394396 1407326 1417365 1423482 
##END=
