
##TITLE=mdmaHCL00385_2
##JCAMP-DX=5.01  $$ Nicolet v. 1
##DATATYPE=INFRARED SPECTRUM
##ORIGIN=UniL
##OWNER=Nicolet
##LONGDATE=2011/08/23
##TIME=14:54:35
##SPECTROMETER/DATA SYSTEM=Nicolet iS5
##DATA PROCESSING=
Ratio against background
%Transmittance->Absorbance
Truncated
ElementMultiply or ElementDivide
##COMMENTS=
Number of sample scans: 32
Collection length: 51.21 sec
Sample gain: 2.0
Background collected on: Mar Aout 23 14:50:41 2011 (GMT+02:00);
Number of background scans: 32
Background gain: 2.0
Sample spacing:  1.000
Number of scan points: 12415
Resolution points: 8192
Number of FFT points: 65536
Apodization: N-B fort;
Phase correction: Mertz;
Laser frequency: 15798.0 cm-1
Number of rejected sample scans: 0
Number of rejected background scans: 0
Bench serial number: ASB1000141;
##RESOLUTION=4.000
##XUNITS=1/CM
##YUNITS=ABSORBANCE
##FIRSTX=649.893372
##LASTX=4000.122314
##FIRSTY=0.056264
##MAXX=4000.122314
##MINX=649.893372
##MAXY=0.205746
##MINY=-0.000771
##XFACTOR=1.000000
##YFACTOR=1.000000E-009
##NPOINTS=6950
##DELTAX=0.482117
##ZPD=6100
##XYDATA=(X++(Y..Y))
649.893 56264164 55914100 55584392 55297116 55053436 54842668 54651060 
653.268 54472076 54313412 54194060 54135168 54151344 54243948 54401544 
656.643 54605892 54840340 55095904 55371108 55666192 55977868 56296036 
660.018 56606620 56899140 57172812 57440040 57721204 58038524 58403800 
663.393 58812932 59244440 59665996 60042040 60332432 60500244 60510720 
666.767 60348880 60041772 59684016 59416544 59347560 59499340 59813440 
670.142 60200684 60573608 60864968 61038440 61081616 61010644 60859668 
673.517 60669768 60470464 60272740 60067912 59840476 59578044 59280744 
676.892 58960464 58634844 58318600 58016788 57726124 57439700 57154596 
680.267 56874592 56609036 56366276 56147896 55945380 55743224 55523880 
683.642 55275520 54996116 54692284 54374432 54050236 53722540 53390256 
687.016 53052200 52712796 52382740 52076844 51808716 51584484 51400344 
690.391 51244544 51103488 50967092 50833648 50708588 50601840 50522292 
693.766 50473348 50453884 50459612 50488084 50541012 50624700 50746496 
697.141 50912360 51123392 51375876 51663368 51979808 52322860 52692332 
700.516 53088628 53509088 53945704 54386072 54816620 55226824 55613128 
703.890 55979452 56334736 56687216 57041492 57396624 57747844 58089616 
707.265 58419568 58738616 59049928 59355572 59654364 59942252 60216748 
710.640 60482044 60753788 61059608 61432848 61906172 62496080 63195004 
714.015 63963196 64736560 65431892 65962704 66263148 66296220 66065968 
717.390 65617068 65032840 64423024 63899584 63572964 63527288 63808160 
720.765 64418072 65311188 66400104 67554424 68625080 69464456 69938240 
724.139 69964088 69524720 68678712 67545552 66286572 65071016 64026660 
727.514 63231224 62699532 62398524 62266876 62240220 62272264 62335944 
730.889 62422204 62530136 62657276 62796048 62937432 63075064 63210376 
734.264 63351972 63511604 63696420 63904652 64125276 64343484 64546876 
737.639 64730784 64899736 65062860 65229052 65401964 65579616 65757068 
741.013 65932200 66107824 66291316 66490264 66707916 66939980 67177008 
744.388 67408240 67627704 67837720 68046600 68263480 68492080 68727616 
747.763 68958592 69172664 69362672 69531064 69688192 69846984 70015704 
751.138 70194008 70374016 70546152 70704856 70853208 71000480 71158888 
754.513 71335280 71527984 71728248 71925080 72112536 72291584 72470664 
757.888 72658592 72860512 73073848 73291064 73504272 73712360 73921632 
761.262 74145008 74393208 74670768 74972448 75288568 75610832 75940240 
764.637 76289416 76680016 77134800 77670008 78292376 79000360 79788048 
768.012 80649968 81582056 82583096 83657112 84822200 86123032 87650304 
771.387 89530664 91911056 94909728 98543864 102667064 106918024 110782568 
774.762 113629904 114871752 114155784 111439984 107041624 101510480 95532992 
778.136 89736056 84552448 80221824 76768696 74074472 71944400 70186296 
781.511 68654536 67254368 65945312 64718984 63583284 62551944 61642604 
784.886 60876592 60275328 59857856 59635548 59610196 59777656 60134500 
788.261 60685272 61446784 62446496 63713880 65277108 67156352 69366136 
791.636 71922496 74847208 78167680 81909944 86080536 90649000 95524360 
795.010 100557360 105534520 110178936 114195520 117270608 119104544 
797.903 119470624 118231760 115383752 111061080 105531896 99158504 92320680 
801.278 85408360 78754376 72601016 67119072 62388960 58418052 55164256 
804.653 52555028 50508668 48944500 47798104 47020224 46573464 46427792 
808.028 46549048 46888356 47382736 47947236 48483572 48899592 49112056 
811.402 49063232 48727968 48108592 47231692 46137888 44879996 43514632 
814.777 42096628 40681972 39319096 38045900 36890472 35867356 34979932 
818.152 34224652 33594852 33085122 32692690 32417272 32259498 32218918 
821.527 32294150 32484430 32792662 33226922 33801784 34535408 35442776 
824.902 36531748 37794608 39205536 40713740 42245460 43708172 44986376 
828.277 45962232 46528948 46604008 46154912 45205828 43840468 42179912 
831.651 40370020 38557468 36857936 35355892 34095428 33082370 32294794 
835.026 31691842 31226140 30845982 30503656 30162666 29796958 29396988 
838.401 28968804 28530850 28107510 27721172 27388356 27114974 26898196 
841.776 26729940 26601660 26507156 26443132 26408202 26400174 26415490 
845.151 26449188 26497540 26559460 26637628 26737304 26863510 27018702 
848.525 27201496 27408192 27634688 27879390 28144488 28434404 28754568 
851.900 29108768 29498010 29921500 30379018 30871988 31405408 31986098 
855.275 32621212 33316854 34077760 34908508 35816472 36812420 37911524 
858.650 39131492 40488648 41998112 43671568 45517700 47543292 49749584 
862.025 52127388 54645948 57246520 59839028 62295440 64473608 66229144 
865.400 67429792 67987152 67860728 67068496 65681508 63821444 61647796 
868.774 59325792 57026264 54901284 53064104 51597396 50543172 49906484 
872.149 49661016 49754228 50115612 50653592 51266952 51851648 52300436 
875.524 52525376 52464616 52089956 51412096 50475356 49350348 48115072 
878.899 46849376 45626228 44502052 43522508 42722512 42125036 41745436 
882.274 41588064 41645496 41896624 42307400 42837068 43437320 44062612 
885.648 44675796 45249696 45773544 46254488 46717524 47199892 47745180 
889.023 48396336 49182812 50117320 51191604 52381432 53650964 54960428 
892.398 56276608 57572012 58826780 60026632 61157208 62202712 63144036 
895.773 63955516 64605312 65055588 65259196 65167488 64736516 63934400 
899.148 62754200 61217864 59379960 57317220 55122232 52895168 50723668 
902.523 48685304 46840368 45228404 43873972 42787044 41964864 41394628 
905.897 41055872 40925328 40978600 41195816 41564800 42079324 42738308 
909.272 43542140 44490012 45578528 46801952 48152124 49619336 51189148 
912.647 52838920 54537216 56242780 57908456 59493940 60971484 62335752 
916.022 63604996 64821444 66043972 67335336 68761504 70378808 72226464 
919.397 74322032 76651440 79165368 81771448 84347424 86757920 88869632 
922.771 90591648 91893736 92822424 93493904 94085352 94815408 95894608 
926.146 97517408 99829848 102900896 106710648 111125360 115906000 120675632 
929.521 124951816 128220064 129942416 129684984 127202240 122472800 
932.414 115733776 107429032 98168904 88584264 79251376 70653976 63101584 
935.789 56763220 51688596 47837908 45125056 43445560 42702040 42798488 
939.163 43631888 45083628 46986880 49123480 51247976 53081776 54371276 
942.538 54933544 54671388 53602828 51844444 49596792 47088940 44538876 
945.913 42134088 39994676 38180900 36703052 35536800 34640540 33967392 
949.288 33477162 33133936 32907914 32774546 32711766 32700442 32727130 
952.663 32781546 32858628 32956562 33075146 33214260 33373420 33551000 
956.037 33745840 33956644 34183212 34426072 34685328 34961080 35252312 
959.412 35557872 35876244 36206732 36549480 36905224 37274444 37657272 
962.787 38052700 38459096 38874604 39297804 39728168 40165788 40611060 
966.162 41064360 41525096 41992672 42466964 42948872 43440876 43946336 
969.537 44468836 45010592 45572384 46153292 46751840 47367104 47999780 
972.912 48652428 49328964 50033324 50768728 51537284 52340164 53178388 
976.286 54053240 54966336 55918888 56911720 57944196 59016184 60128184 
979.661 61283564 62488504 63752288 65084340 66492772 67982576 69554432 
983.036 71204832 72926152 74706184 76525112 78351184 80141328 81835296 
986.411 83360904 84645848 85620168 86231280 86453000 86286696 85763696 
989.786 84938384 83889536 82707064 81483360 80312072 79271264 78419808 
993.160 77797416 77420696 77288888 77389216 77704768 78216792 78908840 
996.535 79767464 80779776 81932152 83211232 84602600 86092168 87667256 
999.910 89313032 91009880 92731512 94439336 96086664 97624472 99003408 
1003.285 100186248 101151936 101897256 102438216 102807688 103055624 
1006.178 103239872 103426800 103685576 104075896 104647744 105435496 
1009.070 106454720 107707912 109187280 110881832 112780856 114875552 
1011.963 117159632 119625872 122265512 125069264 128027496 131132368 
1014.856 134375904 137743456 141206864 144715600 148188624 151524864 
1017.748 154608112 157322640 159580640 161330784 162572080 163353072 
1020.641 163773280 163973376 164108736 164350800 164857664 165750064 
1023.534 167111872 168973984 171319504 174088976 177196480 180545536 
1026.427 184027888 187539696 190978528 194236320 197212576 199815616 
1029.320 201970512 203635248 204800224 205488944 205745504 205629920 
1032.213 205209024 204545760 203704144 202740288 201692976 200577952 
1035.106 199376608 198035792 196466336 194562272 192220832 189350848 
1037.999 185895456 181833568 177179008 171977680 166303248 160257680 
1040.892 153958048 147534928 141124464 134843568 128793240 123049576 
1043.785 117658696 112649544 108036936 103826616 100021568 96621472 93622296 
1047.160 91015472 88787432 86920768 85394320 84186312 83274840 82636280 
1050.536 82246568 82079912 82107128 82300032 82631112 83074920 83609712 
1053.911 84214344 84864048 85530024 86174472 86751168 87213096 87511632 
1057.286 87604256 87461336 87065000 86414552 85526352 84436968 83200432 
1060.661 81883056 80564408 79322960 78229688 77346688 76717576 76368928 
1064.037 76311648 76541912 77042448 77783224 78725256 79817632 81000560 
1067.412 82215216 83401168 84504944 85486576 86314944 86969184 87436488 
1070.787 87708656 87782304 87658904 87346376 86858600 86215728 85444864 
1074.162 84578248 83653776 82718088 81819848 81010816 80340656 79847176 
1077.538 79554904 79471152 79586472 79877880 80312944 80856528 81468688 
1080.913 82106608 82726912 83280376 83720352 84011464 84135720 84103824 
1084.288 83957272 83771224 83641768 83675192 83983440 84660944 85780808 
1087.663 87385760 89478384 92015552 94900160 97994352 101111288 104034800 
1091.039 106559096 108493672 109700544 110115104 109744400 108667256 
1093.932 107011400 104947024 102653592 100295352 98019264 95928736 94082632 
1097.307 92497592 91150984 89989576 88935704 87905360 86812264 85576344 
1100.682 84139056 82463256 80540952 78393568 76071088 73645768 71195968 
1104.057 68805568 66549696 64485984 62659108 61096980 59813208 58811908 
1107.433 58089544 57637276 57441624 57486104 57751064 58212544 58844728 
1110.808 59617948 60496932 61443652 62412868 63352816 64212352 64939448 
1114.183 65488292 65826848 65935628 65810272 65459752 64904428 64172596 
1117.558 63296580 62313684 61260364 60169436 59070992 57987404 56935592 
1120.934 55927856 54972800 54076620 53242920 52471308 51755856 51083992 
1124.309 50439296 49803460 49162180 48510912 47857920 47225340 46643476 
1127.684 46149312 45776928 45551264 45486428 45582688 45828364 46200348 
1131.059 46667824 47194976 47739372 48260048 48719032 49085416 49343068 
1134.435 49492360 49551068 49549620 49528192 49529456 49589100 49733940 
1137.810 49976664 50314492 50728884 51187392 51649484 52066720 52390776 
1141.185 52580796 52603084 52436724 52073296 51514600 50770668 49858428 
1144.560 48801260 47626328 46364820 45051096 43717112 42392800 41102856 
1147.936 39864272 38687956 37579300 36539928 35570316 34670652 33842184 
1151.311 33086948 32407094 31804808 31281720 30839650 30479948 30204400 
1154.686 30014086 29909396 29888914 29950006 30089116 30302766 30588866 
1158.061 30946666 31376452 31878754 32453154 33097424 33807908 34579324 
1161.437 35404524 36275420 37180444 38104028 39027116 39925652 40773096 
1164.812 41544052 42212884 42758052 43162508 43412968 43501812 43427252 
1168.187 43194348 42814284 42303820 41684192 40976960 40203588 39384504 
1171.562 38536904 37677292 36821944 35985624 35184004 34431380 33739428 
1174.938 33118058 32573852 32110736 31731408 31437322 31230092 31111012 
1178.313 31081218 31141338 31291940 31533688 31868522 32299578 32831148 
1181.688 33467248 34211352 35065232 36029324 37104180 38291512 39595120 
1185.063 41020804 42574508 44260352 46076984 48016360 50059312 52175024 
1188.438 54321292 56438676 58457056 60300568 61889132 63156724 64058380 
1191.814 64577436 64728828 64555100 64120552 63493728 62743096 61926616 
1195.189 61082604 60233076 59383040 58526092 57649344 56739584 55787868 
1198.564 54791056 53752500 52679240 51580228 50462664 49331156 48188364 
1201.939 47036688 45880544 44729308 43596500 42499448 41457432 40486684 
1205.315 39599256 38801268 38092124 37466700 36916408 36432496 36006324 
1208.690 35630268 35298636 35006400 34750292 34528916 34343192 34196404 
1212.065 34094352 34044108 34053280 34128724 34277140 34504056 34814472 
1215.440 35212676 35701344 36281004 36949456 37701724 38531432 39431924 
1218.816 40398348 41427580 42518088 43668816 44877608 46141720 47458904 
1222.191 48829176 50256680 51750256 53322632 54987960 56757896 58640304 
1225.566 60635704 62736780 64925708 67174728 69443304 71675488 73806600 
1228.941 75761896 77461880 78836320 79823328 80378216 80479576 80130880 
1232.317 79365760 78245200 76864232 75341696 73805656 72396240 71243248 
1235.692 70456200 70130256 70334088 71114664 72501904 74507896 77128472 
1239.067 80338264 84091560 88313752 92896208 97709776 102594880 107368488 
1242.442 111847792 115837944 119153016 121640632 123182304 123718032 
1245.335 123251912 121851128 119636608 116762192 113417280 109797640 
1248.229 106092128 102482808 99109128 96059264 93359064 90965016 88772304 
1251.604 86628064 84374952 81869456 79015024 75784936 72220832 68425704 
1254.979 64531840 60690456 57038812 53676348 50667144 48030420 45748768 
1258.354 43776808 42054032 40516328 39098496 37746500 36419632 35089660 
1261.729 33743944 32381568 31011108 29645596 28300774 26992468 25733864 
1265.105 24536672 23410570 22362762 21398080 20518274 19721684 19003466 
1268.480 18357006 17775950 17254968 16791018 16382232 16027084 15722793 
1271.855 15465202 15248772 15068433 14919992 14800775 14709181 14643411 
1275.230 14600438 14576692 14568057 14571415 14585704 14611199 14648963 
1278.606 14699413 14760939 14830876 14905658 14981894 15057011 15128436 
1281.981 15190882 15236383 15253336 15228113 15149192 15010772 14815722 
1285.356 14575253 14307795 14036018 13781068 13561305 13391165 13280395 
1288.731 13236259 13263793 13365982 13543393 13793005 14108918 14482165 
1292.107 14901406 15354450 15826283 16298905 16752824 17165062 17514588 
1295.482 17786030 17971748 18075156 18109182 18094740 18053672 18007010 
1298.857 17972888 17963462 17988290 18053636 18162452 18314288 18502930 
1302.232 18717596 18942268 19158748 19350596 19503784 19608560 19659798 
1305.608 19655360 19595562 19483580 19326382 19134854 18923718 18710436 
1308.983 18510846 18337584 18198350 18095260 18027836 17994922 17996614 
1312.358 18034812 18111426 18227030 18379268 18563304 18773884 19007066 
1315.733 19261884 19539792 19843510 20174826 20533594 20917656 21324922 
1319.109 21754446 22207794 22687242 23193990 23725196 24272784 24823556 
1322.484 25360590 25868428 26333876 26749392 27115010 27438580 27737348 
1325.859 28035368 28364258 28757434 29242362 29835534 30534084 31313662 
1329.234 32128610 32922212 33639100 34231428 34673340 34962084 35117288 
1332.610 35173872 35176316 35173404 35207572 35316712 35529788 35864548 
1335.985 36327796 36914928 37612760 38401320 39259464 40168700 41113128 
1339.360 42080532 43059648 44038628 45003940 45940836 46831996 47658680 
1342.735 48398448 49022168 49497300 49788380 49860544 49688356 49258036 
1346.111 48570348 47638752 46487676 45149356 43658520 42055088 40382276 
1349.486 38683788 37009596 35410960 33935612 32629036 31525318 30644722 
1352.861 29994878 29571210 29361750 29348418 29510032 29820060 30243758 
1356.236 30741090 31266124 31770866 32215354 32567530 32807526 32927930 
1359.612 32932218 32834004 32655004 32429126 32201540 32023300 31951074 
1362.987 32033216 32299470 32759250 33401258 34201420 35128996 36153292 
1366.362 37242640 38357528 39451988 40468352 41338976 42000300 42396636 
1369.737 42489364 42263424 41725956 40906508 39850360 38622980 37305568 
1373.113 35985300 34757616 33706664 32890256 32335128 32033504 31955890 
1376.488 32064214 32328524 32734170 33283904 33994476 34892096 36008912 
1379.863 37375256 39017584 40947500 43149768 45563296 48066136 50490316 
1383.238 52618684 54222776 55109032 55124456 54195264 52341100 49698124 
1386.614 46511688 43091296 39773516 36821148 34383140 32496962 31111758 
1389.989 30132974 29452762 28978438 28634146 28360402 28116064 27870662 
1393.364 27605556 27315452 27006712 26694740 26395946 26121852 25874796 
1396.739 25648864 25433974 25221826 25009642 24801806 24608200 24439426 
1400.115 24303514 24201802 24130200 24081656 24049508 24030876 24028250 
1403.490 24049682 24108204 24218726 24392528 24635202 24944294 25310502 
1406.865 25721102 26163762 26629808 27114586 27616714 28136320 28672158 
1410.240 29221452 29779818 30343092 30908062 31473372 32037356 32597602 
1413.615 33149314 33686292 34203464 34698176 35171032 35625344 36064680 
1416.991 36491452 36908328 37321380 37745452 38202356 38719176 39315756 
1420.366 39993296 40736264 41516056 42304000 43076516 43826100 44563916 
1423.741 45317804 46122488 47008112 47991304 49071432 50237004 51472744 
1427.116 52767308 54111072 55490220 56882976 58252668 59550524 60729020 
1430.492 61751144 62603460 63299140 63875096 64380064 64860492 65357208 
1433.867 65900608 66517720 67244464 68133112 69251624 70673320 72440832 
1437.242 74547104 76935160 79514120 82178184 84809024 87286424 89467344 
1440.617 91195984 92336168 92775856 92456720 91379280 89593376 87183816 
1443.993 84248584 80896992 77230736 73336056 69296952 65195940 61131996 
1447.368 57239868 53670724 50567852 48032568 46094300 44720568 43840616 
1450.743 43382544 43290356 43529504 44079148 44913248 45991224 47264720 
1454.118 48677964 50183852 51755484 53379056 55051252 56763184 58493224 
1457.494 60200988 61838008 63365884 64759136 66005364 67101628 68054264 
1460.869 68874912 69575512 70164488 70640128 70989320 71194528 71244888 
1464.244 71152448 70955496 70714800 70489088 70311912 70186488 70088200 
1467.619 69980984 69824600 69582936 69221392 68695440 67946352 66902720 
1470.995 65495268 63694268 61545924 59190136 56816884 54603000 52651448 
1474.370 50977976 49544424 48302820 47230144 46339752 45672748 45271464 
1477.745 45165016 45356900 45832968 46575640 47578004 48850460 50416556 
1481.120 52300660 54514560 57048900 59875540 62957652 66258200 69754128 
1484.496 73431712 77275272 81258368 85318176 89337896 93154240 96546024 
1487.871 99256472 101037480 101670024 101025856 99110960 96087736 92245936 
1491.246 87919000 83421208 78968168 74662856 70532080 66548148 62672772 
1494.621 58895116 55244660 51797704 48661100 45933284 43672772 41882096 
1497.997 40524184 39540460 38875224 38488384 38352748 38449864 38764136 
1501.372 39276364 39962092 40792532 41726796 42713044 43685088 44544088 
1504.747 45160936 45379228 45037936 44040276 42415196 40325880 37986772 
1508.122 35569164 33156824 30765630 28386260 26018340 23679812 21415414 
1511.498 19282734 17329236 15587624 14064389 12744744 11602790 10609841 
1514.873 9740789 8973417 8291821 7686664 7155068 6701104 6330044 6042314 
1518.730 5828648 5668426 5531316 5388279 5221545 5036942 4862737 4736400 
1522.588 4681903 4697612 4760921 4840321 4910889 4960522 4995043 5032752 
1526.445 5095406 5195255 5330178 5486350 5647915 5804940 5956412 6108541 
1530.302 6268052 6436230 6606930 6767970 6908534 7027624 7139438 7270216 
1534.160 7443030 7667340 7932729 8216684 8491633 8733625 8927518 9064553 
1538.017 9143526 9167925 9144778 9082755 8993374 8893494 8802325 8736093 
1541.875 8701982 8693903 8695593 8685418 8647527 8577193 8484335 8387814 
1545.732 8307357 8252207 8217291 8185585 8136764 8056320 7941334 7803809 
1549.590 7663900 7542477 7449030 7379093 7317356 7247305 7159244 7054497 
1553.447 6944894 6847301 6774734 6728865 6699085 6665134 6604171 6492327 
1557.304 6310006 6048429 5720897 5372277 5066139 4857409 4764170 4768927 
1561.162 4837239 4932873 5026651 5095372 5126753 5119209 5083236 5037177 
1565.019 5001110 4988608 5000942 5028394 5055178 5067614 5059032 5033288 
1568.877 5002484 4983849 4992462 5034897 5110392 5213162 5336585 5473834 
1572.734 5617403 5758266 5883457 5979859 6038652 6062574 6070269 6093185 
1576.592 6165267 6305367 6513247 6775576 7076624 7405820 7761069 8147939 
1580.449 8574794 9049058 9573393 10144283 10753012 11388209 12034214 
1583.824 12671186 13275612 13817563 14267115 14600301 14803620 14879838 
1587.199 14848773 14748016 14625043 14533315 14527764 14653453 14944923 
1590.575 15421666 16083539 16907268 17841714 18814710 19729660 20479996 
1593.950 20971308 21125866 20903330 20306742 19383648 18215592 16897898 
1597.325 15531405 14199598 12962387 11861130 10916039 10132446 9505009 
1600.700 9021249 8665171 8420886 8277704 8229987 8277097 8420312 8659323 
1604.558 8989417 9400914 9877912 10398838 10937344 11458352 11920350 
1607.933 12280301 12494472 12529188 12366134 12006111 11470463 10798596 
1611.308 10044917 9265228 8508358 7809510 7183667 6630244 6138046 5692361 
1615.166 5280806 4898390 4550831 4251495 4015833 3853269 3763354 3735881 
1619.023 3755065 3801925 3857715 3906927 3937854 3945745 3933908 3913145 
1622.881 3897532 3898769 3921738 3964001 4017706 4074460 4128747 4178491 
1626.738 4224360 4268426 4312296 4357777 4406643 4461474 4525518 4601092 
1630.595 4688669 4784873 4883277 4973760 5045288 5087762 5092690 5056217 
1634.453 4981335 4880429 4773718 4685520 4635718 4632303 4671688 4741291 
1638.310 4825780 4909348 4978922 5027188 5053233 5063089 5066374 5073582 
1642.168 5090042 5115052 5141002 5156627 5150357 5113510 5043948 4947585 
1646.025 4839350 4738779 4665860 4635718 4654674 4720288 4823033 4949428 
1649.883 5080990 5193746 5260682 5250755 5140600 4932773 4675674 4454410 
1653.740 4339838 4352556 4462578 4622758 4790971 4941251 5062150 5151262 
1657.597 5212391 5251258 5272588 5278357 5267994 5239554 5190862 5121388 
1661.455 5032819 4929522 4819080 4711646 4617233 4545072 4499705 4480455 
1665.312 4481359 4491837 4499303 4489862 4452167 4379866 4274014 4143800 
1669.170 4004730 3874631 3768233 3693373 3651136 3636100 3638806 3646057 
1673.027 3644085 3618759 3560293 3468301 3355124 3244046 3158095 3111504 
1676.885 3102294 3116611 3134899 3140673 3126389 3094452 3056010 3024211 
1680.742 3007229 3002391 2995351 2963590 2885533 2751267 2574110 2390994 
1684.599 2247855 2173822 2167662 2206657 2262010 2312007 2343620 2352448 
1688.457 2340988 2314938 2281195 2246656 2218480 2202694 2203960 2223076 
1692.314 2255349 2289723 2309275 2295751 2234866 2125573 1985416 1848933 
1696.172 1753077 1715751 1729756 1767049 1793333 1775699 1694130 1551951 
1700.029 1381930 1236299 1156425 1155029 1214103 1303492 1393332 1462810 
1703.886 1501144 1506364 1485551 1451773 1420291 1402972 1404800 1424579 
1707.744 1457557 1497321 1538717 1579319 1618827 1658739 1701048 1746623 
1711.601 1794797 1843974 1891793 1936788 1978593 2017871 2054557 2086484 
1715.459 2107992 2111988 2092677 2051094 1997732 1951200 1931829 1951300 
1719.316 2009682 2095806 2194036 2288290 2366374 2422980 2458100 2476794 
1723.174 2486324 2493356 2502287 2514318 2528848 2544246 2559344 2572310 
1727.031 2581176 2583076 2576009 2559344 2535814 2511518 2492723 2483192 
1730.888 2480593 2474761 2449269 2385297 2270204 2107027 1921312 1753309 
1734.746 1642242 1604726 1631466 1696624 1771541 1833626 1867334 1867068 
1738.603 1836687 1788209 1736709 1696026 1674205 1672043 1685581 1708866 
1742.461 1736909 1766118 1794697 1822446 1849465 1876785 1905038 1934459 
1746.318 1965046 1996367 2027126 2056021 2081224 2100967 2113786 2118813 
1750.176 2116849 2110856 2106228 2109590 2126471 2159137 2204426 2255215 
1754.033 2300415 2328030 2328596 2297817 2239761 2165830 2092310 2033151 
1757.890 1994870 1974432 1962183 1945508 1913525 1860812 1789207 1707369 
1761.748 1628007 1562958 1520130 1501277 1502873 1517802 1538318 1556041 
1765.605 1563789 1556673 1533530 1498517 1459685 1427903 1411548 1412678 
1769.463 1426108 1440436 1443428 1426208 1388047 1338754 1296214 1278335 
1773.320 1294220 1342543 1413343 1493996 1574464 1649958 1720142 1787178 
1777.177 1852293 1914157 1968541 2010481 2036713 2048231 2049829 2049463 
1781.035 2053758 2065776 2083288 2100867 2112987 2116083 2110689 2101200 
1784.892 2093409 2092710 2100967 2117415 2139457 2164065 2188741 2211686 
1788.750 2230503 2241527 2240128 2221544 2182747 2125206 2055655 1985050 
1792.607 1924641 1881910 1858582 1850363 1850530 1852293 1851328 1844906 
1796.465 1832095 1812597 1785747 1750814 1707701 1657807 1604527 1552550 
1800.322 1507229 1472352 1449977 1438940 1437511 1442830 1452803 1466301 
1804.179 1482126 1499581 1517270 1534461 1550156 1564920 1579652 1595448 
1808.037 1612775 1631066 1648694 1664426 1677831 1690005 1704009 1722804 
1811.894 1748852 1782520 1821947 1864073 1905704 1944177 1978626 2009383 
1815.752 2037479 2064544 2091278 2118447 2146217 2174621 2203627 2232734 
1819.609 2261777 2289856 2315904 2338556 2356146 2366640 2367540 2356346 
1823.467 2331994 2296151 2253184 2211353 2179616 2164365 2167362 2184179 
1827.324 2205891 2221710 2222410 2204326 2171225 2133697 2104862 2095740 
1831.181 2110722 2146650 2195368 2247988 2298117 2343087 2384131 2424346 
1835.039 2467463 2515118 2567477 2623675 2683149 2746498 2815626 2893105 
1838.896 2980371 3077199 3181458 3288881 3394594 3493852 3582142 3657050 
1842.754 3718770 3771609 3824521 3888806 3975839 4091519 4234765 4397237 
1846.611 4566333 4728696 4872655 4991993 5085281 5155788 5208400 5247032 
1850.469 5273259 5285501 5280973 5257798 5216180 5158974 5090209 5012841 
1854.326 4928081 4834525 4730337 4614554 4488958 4357910 4227136 4101687 
1858.183 3983830 3873193 3767598 3665203 3565538 3470538 3383173 3306008 
1862.041 3239840 3183561 3135266 3094018 3060214 3035222 3020174 3013668 
1865.898 3011132 3006094 2992048 2966259 2931398 2896173 2871324 2865987 
1869.756 2883165 2918989 2964524 3009597 3046600 3071593 3084374 3086443 
1873.613 3080302 3067922 3050304 3028883 3005560 2982640 2962189 2944608 
1877.470 2928229 2909716 2885433 2853313 2814059 2770674 2726792 2684983 
1881.328 2645344 2605175 2560811 2509919 2453035 2394459 2339623 2293786 
1885.185 2259512 2235332 2217181 2199930 2180748 2159003 2137493 2120245 
1889.043 2111122 2112554 2124707 2146150 2174721 2207989 2243358 2277931 
1892.900 2308676 2332727 2349150 2359344 2367206 2377768 2395425 2422047 
1896.758 2456367 2494422 2532081 2566810 2598808 2630776 2665913 2706721 
1900.615 2753568 2804188 2856248 2907314 2956418 3003392 3048135 3088979 
1904.472 3122885 3146847 3158829 3159630 3153055 3144611 3139338 3139471 
1908.330 3143877 3148649 3149818 3144811 3134298 3120982 3108434 3098690 
1912.187 3092116 3086977 3081704 3075698 3069891 3064919 3060214 3051939 
1916.045 3034622 3002458 2953249 2890670 2824698 2767773 2729626 2712855 
1919.902 2711788 2715323 2710988 2690217 2651511 2600342 2546046 2497488 
1923.760 2459633 2431543 2408786 2386463 2362343 2337724 2316704 2302680 
1927.617 2297184 2298549 2303413 2308376 2311907 2314605 2317670 2321867 
1931.474 2325665 2325898 2319569 2305944 2287357 2268438 2254050 2246556 
1935.332 2245091 2246023 2244791 2239462 2231202 2223942 2221943 2226706 
1939.189 2235632 2243725 2245124 2236664 2220178 2201795 2189706 2189174 
1943.047 2201628 2223742 2249687 2274567 2296218 2316004 2336258 2358645 
1946.904 2382532 2405254 2424679 2440673 2455801 2474228 2499554 2531614 
1950.761 2566410 2597242 2617475 2624976 2621942 2615209 2611975 2616775 
1954.619 2629876 2647111 2662579 2671114 2671047 2663313 2649644 2630576 
1958.476 2604409 2569377 2524816 2474728 2426278 2388529 2368839 2368406 
1962.334 2382499 2401989 2418415 2427844 2431310 2434275 2442405 2457033 
1966.191 2474394 2486891 2486758 2472095 2447637 2423346 2409052 2411751 
1970.049 2430710 2460466 2492856 2522016 2545646 2565377 2583209 2599142 
1973.906 2611108 2616175 2614375 2612975 2623576 2660779 2734094 2843408 
1977.763 2975701 3110303 3226721 3309781 3354790 3366477 3354088 3328312 
1981.621 3296226 3261806 3227589 3195611 3168875 3150685 3142342 3141440 
1985.478 3142809 3141240 3132730 3119280 3107366 3105331 3118746 3147515 
1989.336 3185163 3221714 3248052 3260637 3262807 3263876 3273824 3299064 
1993.193 3339530 3388583 3438376 3481260 3514394 3538880 3557687 3573222 
1997.051 3585015 3590327 3585616 3569012 3542287 3509785 3477018 3448662 
2000.908 3426419 3408920 3393425 3377463 3360400 3343604 3328111 3315423 
2004.765 3305674 3298262 3293488 3292186 3295992 3306175 3320699 3335190 
2008.623 3343103 3338796 3321434 3294623 3265678 3242944 3232195 3233163 
2012.480 3241042 3249321 3252725 3251257 3249621 3255196 3274559 3310716 
2016.338 3361535 3422211 3487673 3554514 3622501 3692036 3761917 3829602 
2020.195 3889709 3937486 3971492 3993762 4009579 4024394 4041617 4058708 
2024.052 4070146 4070079 4054259 4023892 3983462 3938723 3893721 3848556 
2027.910 3800621 3746509 3686355 3624372 3568979 3529092 3510420 3513827 
2031.767 3535372 3569012 3610774 3660759 3722747 3799652 3892517 3996805 
2035.625 4103593 4203516 4289507 4359651 4415948 4461909 4500776 4532683 
2039.482 4556188 4570285 4576245 4579091 4585788 4601962 4629523 4665090 
2043.340 4700492 4727054 4738745 4733888 4716704 4693291 4671085 4655511 
2047.197 4649148 4652631 4665324 4684482 4705282 4720690 4721025 4697009 
2051.054 4643521 4562249 4462746 4360655 4274382 4218170 4197560 4207932 
2054.912 4235869 4265749 4284254 4286161 4273947 4255979 4240420 4233594 
2058.769 4236639 4246844 4260395 4274282 4287466 4300383 4313567 4326184 
2062.627 4336224 4341712 4342147 4339503 4338064 4341378 4352054 4369424 
2066.484 4389907 4409120 4423781 4432384 4435865 4436200 4433321 4426225 
2070.342 4412668 4390644 4360689 4326652 4294192 4269463 4255644 4252130 
2074.199 4254707 4257819 4256279 4247647 4232958 4214757 4196356 4179261 
2078.056 4163839 4149454 4135437 4122458 4111220 4102690 4096669 4090916 
2081.914 4083190 4071584 4055965 4038741 4023625 4013693 4009713 4009312 
2085.771 4008543 4001754 3986071 3961059 3929261 3894924 3861894 3832644 
2089.629 3808008 3787719 3771141 3758474 3749818 3745272 3744103 3744103 
2093.486 3743535 3741730 3740192 3742064 3750720 3767832 3791830 3817735 
2097.344 3839062 3849893 3848422 3837223 3821747 3808677 3803061 3806270 
2101.201 3817133 3831942 3847820 3863465 3879245 3896061 3914683 3934376 
2105.058 3953702 3972093 3990318 4011051 4037838 4073089 4116538 4164675 
2108.916 4212014 4253101 4284789 4307343 4323339 4337161 4351953 4368554 
2112.773 4385858 4401857 4415212 4426526 4438041 4452234 4470646 4493010 
2116.631 4516780 4539380 4558498 4573868 4586626 4598815 4611674 4625370 
2120.488 4638800 4650923 4661741 4672291 4684583 4700626 4720020 4740219 
2124.345 4757337 4766984 4766649 4756097 4737505 4714125 4688066 4659832 
2128.203 4627681 4588769 4540786 4482966 4416953 4346097 4274985 4208066 
2132.060 4149153 4102055 4069377 4053089 4053356 4067905 4091485 4117240 
2135.918 4138448 4150089 4151896 4146209 4138582 4133363 4132527 4135404 
2139.775 4139318 4141525 4140957 4138448 4136240 4136107 4137077 4136407 
2143.633 4129784 4114531 4091084 4063089 4036133 4015131 4000818 3990886 
2147.490 3978948 3958584 3927054 3884828 3835886 3785948 3739424 3697282 
2151.347 3658620 3620563 3580605 3537577 3490278 3436873 3374959 3302069 
2155.205 3218142 3130460 3054408 3011833 3028682 3124320 3304039 3555015 
2159.062 3848790 4149587 4422342 4644728 4805611 4907103 4958913 4974665 
2162.920 4969202 4955763 4945340 4945340 4958612 4982474 5010193 5032752 
2166.777 5041635 5032651 5006976 4969705 4928282 4888237 4851043 4814557 
2170.635 4774086 4725246 4666430 4600120 4532114 4468838 4416484 4379197 
2174.492 4359015 4356137 4369692 4397237 4433522 4469909 4496257 4501714 
2178.349 4479886 4431313 4364470 4294627 4238044 4209270 4214857 4252733 
2182.207 4314203 4387565 4462578 4531947 4593122 4644828 4686726 4717575 
2186.064 4736568 4744272 4742999 4737941 4735294 4739482 4753451 4775393 
2189.922 4802730 4832112 4860626 4888237 4915045 4941285 4966756 4989781 
2193.779 5008518 5023065 5035266 5047434 5062485 5080923 5099596 5113845 
2197.636 5117567 5107173 5081862 5045657 5003356 4961360 4924227 4893431 
2201.494 4869137 4849937 4835095 4825010 4819649 4819113 4821927 4826015 
2205.351 4828661 4828494 4826986 4825881 4828762 4838546 4855466 4878821 
2209.209 4906902 4937330 4969504 5003490 5038718 5074487 5108346 5137583 
2213.066 5159678 5174197 5182781 5189454 5197669 5209909 5225905 5243008 
2216.924 5257329 5265378 5265847 5259643 5248944 5237005 5226576 5218796 
2220.781 5214336 5212793 5213463 5215576 5217287 5216515 5210647 5197535 
2224.638 5176276 5148077 5116292 5085047 5058362 5038819 5026987 5021757 
2228.496 5021456 5024137 5028528 5033020 5035635 5033657 5024808 5007345 
2232.353 4982139 4952847 4925031 4904858 4896580 4900903 4914978 4933879 
2236.211 4952545 4967392 4978486 4987334 4996652 5008149 5021690 5035668 
2240.068 5047836 5057122 5063692 5069022 5075190 5083303 5093159 5104022 
2243.926 5114717 5125378 5137180 5151966 5171011 5194349 5219768 5243612 
2247.783 5262192 5272689 5274668 5269402 5258905 5246127 5233484 5222518 
2251.640 5215107 5213061 5217789 5230063 5249615 5273762 5298548 5319914 
2255.498 5334069 5339268 5335814 5324610 5307303 5284562 5256624 5223491 
2259.355 5186738 5148781 5113744 5085550 5067380 5059871 5061547 5069693 
2263.213 5081191 5094132 5107911 5122495 5137851 5152805 5165412 5173996 
2267.070 5178120 5179461 5181372 5188079 5202330 5224262 5250990 5277955 
2270.927 5299990 5314011 5319042 5316862 5310590 5302976 5296401 5291739 
2274.785 5289392 5289694 5293551 5301131 5313172 5328870 5347118 5365970 
2278.642 5384622 5403074 5422499 5444341 5469237 5496349 5523463 5547794 
2282.500 5566621 5579341 5586994 5591659 5596257 5602265 5610119 5618846 
2286.357 5627305 5634455 5640195 5645397 5650399 5655938 5661510 5666411 
2290.215 5670339 5673360 5676516 5681048 5687963 5697564 5709080 5721602 
2294.072 5733958 5746448 5759710 5774719 5792180 5811387 5830226 5846312 
2297.929 5857361 5862466 5862332 5859309 5855716 5853432 5852828 5852928 
2301.787 5851652 5847420 5838991 5826263 5809910 5790669 5769347 5746078 
2305.644 5720629 5693200 5663994 5633817 5603105 5572595 5542458 5512490 
2309.502 5482793 5453836 5426257 5401363 5379892 5362045 5347420 5334874 
2313.359 5323369 5311965 5299990 5287077 5273058 5257362 5238749 5216281 
2317.217 5188917 5156627 5120215 5081057 5041434 5003859 4971045 4945507 
2321.074 4929522 4924361 4929153 4940547 4952613 4957673 4947652 4916720 
2324.931 4862871 4788190 4698583 4602130 4507171 4420166 4344892 4282313 
2328.789 4231955 4192509 4162868 4143399 4134534 4136006 4146878 4165043 
2332.646 4187557 4211846 4235702 4257384 4276055 4290645 4300583 4305837 
2336.504 4307477 4307878 4310087 4317450 4331472 4352087 4376753 4401857 
2340.361 4424116 4441723 4454142 4462946 4469876 4475936 4482129 4490298 
2344.219 4503455 4528464 4574203 4648847 4758241 4901942 5073481 5260414 
2348.076 5449206 5625593 5777036 5895044 5974518 6014428 6017485 5989837 
2351.933 5940255 5876740 5807156 5736510 5668191 5603373 5543163 5489538 
2355.791 5445079 5412904 5396062 5396364 5413810 5446790 5491819 5545210 
2359.648 5603138 5662316 5720663 5776935 5830495 5881543 5930345 5978213 
2363.506 6026288 6076552 6130686 6189633 6253665 6321773 6391944 6461823 
2367.363 6529527 6592666 6649825 6700128 6743167 6780220 6813170 6845281 
2371.220 6880794 6923482 6976846 7042711 7121586 7212537 7314458 7426481 
2375.078 7548343 7680998 7825738 7983821 8155974 8342044 8541473 8753098 
2378.935 8975751 9208333 9449200 9696537 9947846 10200012 10449814 10693850 
2382.793 10928951 11152111 11360726 11551849 11722937 11871857 11996983 
2386.168 12098261 12176629 12233574 12271371 12291618 12295435 12283505 
2389.543 12256409 12214830 12160307 12094956 12020826 11939864 11853639 
2392.918 11762903 11668442 11571312 11473015 11375930 11282573 11195322 
2396.294 11116655 11048232 10991646 10948557 10920729 10909278 10914783 
2399.669 10936732 10973194 11020907 11077428 11140587 11209500 11285327 
2403.044 11370249 11466687 11576791 11701526 11840904 11994223 12160103 
2406.419 12337055 12523834 12718915 12921082 13129251 13343191 13563219 
2409.795 13790576 14026607 14271498 14524201 14781474 15038178 15287622 
2413.170 15523335 15739489 15931793 16097670 16235817 16346311 16429959 
2416.545 16488463 16523946 16539505 16537922 16521882 16493522 16453944 
2419.920 16403427 16342493 16271625 16191723 16104581 16011819 15915191 
2423.296 15816284 15716540 15617848 15522580 15434301 15356922 15294177 
2426.671 15249664 15225608 15222897 15241977 15282508 15344187 15427022 
2430.046 15530512 15653778 15795391 15952967 16124664 16308812 16504845 
2433.421 16713224 16935276 17172126 17424662 17692942 17976100 18272920 
2436.797 18582220 18903438 19236218 19581698 19940530 20314658 20705964 
2440.172 21116126 21546630 21998194 22470814 22963650 23475968 24006924 
2443.547 24556762 25126008 25715336 26324582 26952274 27595210 28248400 
2446.922 28907354 29567522 30225926 30880988 31531658 32176848 32815136 
2450.298 33443664 34059624 34660244 35242788 35805172 36344836 36858264 
2453.673 37340304 37785140 38186256 38537556 38833512 39069604 39241800 
2457.048 39346120 39378116 39333640 39209164 39003084 38715120 38347356 
2460.423 37902884 37385440 36799040 36147708 35435296 34666812 33847808 
2463.799 32984768 32085370 31157394 30209124 29249276 28286698 27330094 
2467.174 26389292 25472974 24589754 23747278 22951250 22206190 21515014 
2470.549 20879376 20299938 19776022 19306082 18886652 18512680 18178484 
2473.924 17877482 17603532 17352308 17120390 16905648 16706854 16522191 
2477.300 16349133 16185155 16027907 15875323 15726948 15583262 15444532 
2480.675 15311441 15183744 15060373 14940567 14824294 14712197 14606092 
2484.050 14508510 14420951 14343649 14276052 14215826 14160709 14109226 
2487.425 14060796 14015930 13975962 13942156 13915366 13896071 13883789 
2490.801 13878008 13878248 13884063 13894361 13908935 13926726 13947049 
2494.176 13969666 13994337 14021098 14049878 14080133 14111075 14141538 
2497.551 14170190 14196414 14219865 14241025 14260369 14278278 14294851 
2500.926 14309609 14322178 14332622 14341218 14349266 14357828 14367863 
2504.302 14379713 14393173 14407456 14422047 14436502 14451026 14466304 
2507.677 14482713 14500082 14517589 14533658 14546643 14554180 14554694 
2511.052 14546814 14529820 14503371 14467572 14422767 14369575 14308651 
2514.427 14241025 14167589 14089408 14007546 13923749 13839558 13756614 
2517.802 13676831 13601303 13530848 13465632 13405450 13349785 13298775 
2521.178 13252690 13212246 13177782 13149640 13127577 13110980 13099130 
2524.553 13091618 13088613 13090799 13098550 13111834 13129968 13151211 
2527.928 13173752 13195987 13217062 13237660 13258941 13282513 13309640 
2531.303 13340868 13375891 13413583 13452986 13493419 13534847 13577919 
2534.679 13623389 13672728 13726826 13786027 13850264 13919062 13991087 
2538.054 14064902 14139211 14212916 14285605 14357588 14429823 14502857 
2541.429 14577309 14652835 14728718 14804134 14878089 14950616 15022297 
2544.804 15093854 15165661 15237893 15309554 15379509 15446558 15510492 
2548.180 15571585 15630865 15689297 15746910 15803294 15856903 15906118 
2551.555 15950080 15988888 16023507 16055619 16086908 16118199 16149353 
2554.930 16179858 16208576 16234821 16257934 16277920 16293950 16305750 
2558.305 16311770 16310394 16300729 16282048 16254529 16219651 16178861 
2561.681 16133638 16085153 16033821 15979607 15922099 15860958 15796045 
2565.056 15727945 15657762 15587315 15518905 15455519 15399283 15352287 
2568.431 15315286 15287793 15268402 15255326 15246850 15241874 15240467 
2571.806 15242938 15250213 15263082 15281685 15305744 15335365 15370138 
2575.182 15410097 15455382 15505719 15559874 15616543 15673701 15730040 
2578.557 15784843 15838448 15892403 15948189 16006833 16068786 16133605 
2581.932 16200116 16267257 16334545 16402051 16470186 16539712 16611036 
2585.307 16684197 16759194 16835860 16914054 16994226 17076310 17160234 
2588.683 17245348 17330410 17413694 17493786 17569270 17639590 17704642 
2592.058 17764664 17820344 17872888 17924026 17975168 18028526 18085864 
2595.433 18147942 18215384 18287746 18363852 18442668 18523606 18605910 
2598.808 18689992 18776168 18864920 18956634 19051896 19151060 19254886 
2602.184 19364454 19480322 19602702 19731150 19864286 20000550 20138382 
2605.559 20276988 20416228 20556660 20699430 20844958 20993528 21144200 
2608.934 21295410 21445422 21591862 21732570 21865412 21988432 22099878 
2612.309 22198414 22283092 22353692 22410102 22453018 22482468 22499078 
2615.685 22503196 22494890 22475280 22445550 22407346 22362518 22313228 
2619.060 22260770 22206714 22152072 22097786 22044832 21994324 21946888 
2622.435 21903292 21863672 21828060 21796218 21768486 21745110 21727170 
2625.810 21715918 21712470 21717660 21732082 21755562 21787612 21827504 
2629.186 21874752 21928522 21988260 22053198 22123030 22197124 22275698 
2632.561 22358470 22445656 22537012 22632574 22731862 22834312 22939302 
2635.936 23046694 23156524 23268864 23383680 23500554 23618476 23736710 
2639.311 23854310 23970578 24085544 24199210 24311890 24423408 24533340 
2642.687 24641232 24746452 24849134 24949628 25049058 25148688 25249394 
2646.062 25351632 25455512 25560786 25667282 25774964 25884078 25995262 
2649.437 26109112 26226196 26347114 26472466 26602646 26738644 26880782 
2652.812 27029596 27185022 27346716 27513904 27685750 27861832 28041694 
2656.188 28225416 28413284 28605338 28801124 29000682 29203308 29408724 
2659.563 29616580 29826556 30038194 30250756 30463422 30675122 30885362 
2662.938 31093960 31301164 31507716 31714048 31920512 32126896 32332916 
2666.313 32538496 32743816 32949946 33158358 33370380 33587728 33810772 
2669.688 34039664 34273592 34511624 34752552 34995196 35238116 35480024 
2673.064 35719980 35956936 36190312 36419996 36645940 36867896 37085340 
2676.439 37297404 37502860 37700784 37891204 38075416 38255724 38435420 
2679.814 38618016 38806884 39004208 39211556 39430032 39660564 39904220 
2683.189 40162480 40436784 40728296 41037956 41366164 41712532 42076592 
2686.565 42457396 42853268 43262644 43683404 44113256 44550216 44992916 
2689.940 45440660 45893840 46352988 46819224 47293020 47774804 48264492 
2693.315 48762220 49268056 49782284 50305640 50838492 51380800 51931892 
2696.690 52491236 53057552 53629820 54207124 54788424 55372352 55957364 
2700.066 56541700 57123644 57702132 58276388 58846132 59411188 59970668 
2703.441 60522640 61064564 61592696 62103116 62592172 63055948 63491160 
2706.816 63894056 64261064 64588316 64872340 65110436 65300712 65442568 
2710.191 65536416 65583080 65584236 65541656 65456784 65331444 65167368 
2713.567 64965568 64726368 64449744 64134808 63780496 63386092 62951640 
2716.942 62478480 61969340 61427472 60857112 60262840 59648736 59019028 
2720.317 58377608 57728204 57074628 56420792 55770840 55129044 54499840 
2723.692 53887520 53296224 52729628 52190680 51681508 51203608 50758040 
2727.068 50345260 49966516 49622272 49313596 49041196 48805488 48606180 
2730.443 48442380 48312744 48215432 48148644 48110924 48100928 48117996 
2733.818 48161080 48229096 48321264 48435968 48571644 48726448 48897996 
2737.193 49083596 49280120 49484188 49692408 49901132 50107208 50307868 
2740.569 50500404 50682596 50852384 51007932 51148400 51273668 51385016 
2743.944 51484308 51574448 51658704 51740216 51821784 51905676 51993884 
2747.319 52087228 52186572 52291652 52401768 52515616 52631848 52749236 
2750.694 52867552 52987544 53111096 53240672 53379464 53530372 53695996 
2754.070 53878744 54080524 54303460 54548748 54817748 55110572 55426632 
2757.445 55764248 56120524 56492072 56874968 57265424 57658648 58049776 
2760.820 58432836 58801624 59149356 59469620 59756744 60006240 60214424 
2764.195 60379072 60498800 60572768 60601188 60585380 60527404 60430744 
2767.571 60299764 60139144 59954044 59749672 59530576 59301484 59067196 
2770.946 58831788 58599312 58373404 58156740 57951168 57758140 57577800 
2774.321 57410236 57254760 57109924 56974240 56845736 56721460 56598356 
2777.696 56472488 56339832 56195260 56034072 55850904 55641144 55401260 
2781.072 55129384 54825528 54492324 54134152 53756252 53365004 52966660 
2784.447 52566584 52169792 51780156 51400308 51032156 50676752 50333988 
2787.822 50003656 49685124 49378036 49082412 48798404 48526512 48266900 
2791.197 48019800 47784828 47561220 47348444 47145520 46951920 46766932 
2794.573 46589328 46417284 46248372 46079600 45907652 45729768 45543608 
2797.948 45347228 45139796 44920336 44687844 44441820 44181700 43906928 
2801.323 43618000 43315580 43000308 42673416 42335488 41986652 41627412 
2804.698 41258012 40879676 40494396 40104988 39714952 39328236 38948788 
2808.073 38580100 38225368 37887444 37568536 37270544 36995020 36742604 
2811.449 36513904 36308776 36126536 35966188 35826548 35706308 35603868 
2814.824 35518172 35447988 35392844 35352800 35328500 35321240 35332488 
2818.199 35363512 35415096 35487216 35579916 35692100 35823816 35974320 
2821.574 36144252 36333632 36542380 36769904 37014724 37274696 37546676 
2824.950 37827468 38113648 38401396 38687192 38966548 39234984 39487840 
2828.325 39719816 39926200 40102520 40245428 40352056 40421404 40453224 
2831.700 40448644 40409584 40339368 40240992 40118400 39975860 39817096 
2835.075 39646664 39468136 39285252 39100672 38916208 38732728 38549684 
2838.451 38366752 38183108 37998384 37813476 37629740 37449724 37275960 
2841.826 37111288 36958152 36818592 36694684 36588300 36501832 36438228 
2845.201 36400428 36391384 36413076 36465292 36545692 36647780 36761900 
2848.576 36874928 36971608 37035976 37053980 37014288 36910856 36743144 
2851.952 36516572 36240232 35927240 35592148 35249184 34911812 34591740 
2855.327 34297796 34036616 33811992 33624564 33472616 33351668 33255930 
2858.702 33178672 33112980 33053086 32993846 32932040 32865238 32792304 
2862.077 32712910 32626818 32534960 32438584 32339592 32240298 32143630 
2865.453 32052442 31969942 31899258 31843204 31804238 31784378 31785022 
2868.828 31806734 31848912 31910170 31987668 32078378 32178242 32283586 
2872.203 32390852 32497678 32602746 32706122 32809526 32915704 33027918 
2875.578 33149884 33284548 33434070 33599648 33780972 33977280 34187300 
2878.954 34409320 34641904 34883732 35133668 35390508 35653432 35921192 
2882.329 36192688 36466516 36740696 37012776 37279788 37538552 37785536 
2885.704 38018020 38233760 38431548 38611644 38774928 38923600 39060288 
2889.079 39188164 39310572 39431272 39554396 39684052 39824936 39982252 
2892.455 40161500 40368784 40610768 40894204 41225584 41611040 42054252 
2895.830 42556276 43112956 43714656 44344344 44976892 45582872 46127976 
2899.205 46577412 46902788 47083144 47109768 46986400 46729112 46363052 
2902.580 45916196 45419432 44900788 44382548 43883648 43417548 42993280 
2905.956 42617160 42292460 42020416 41800480 41631460 41511644 41440012 
2909.331 41416356 41441068 41514488 41636748 41805516 42016800 42264376 
2912.706 42539684 42832864 43133668 43431172 43714324 43974020 44201104 
2916.081 44388492 44531752 44629016 44680940 44690928 44664048 44606140 
2919.457 44522684 44418512 44296604 44158812 44005696 43837208 43653284 
2922.832 43454608 43242624 43020352 42791064 42558320 42325296 42094772 
2926.207 41867904 41645388 41427908 41215780 41010204 40813240 40627028 
2929.582 40454608 40298180 40159868 40041076 39942544 39864596 39807360 
2932.958 39770396 39753256 39755144 39775044 39811792 39864088 39931432 
2936.333 40012916 40107788 40215440 40334532 40463372 40600144 40743216 
2939.708 40891360 41044072 41201536 41363944 41531332 41702104 41873012 
2943.083 42038368 42190172 42318648 42413076 42462252 42457064 42390828 
2946.458 42261088 42069908 41824632 41537312 41221248 40892016 40563764 
2949.834 40247464 39950648 39676684 39425284 39193572 38977312 38772216 
2953.209 38574164 38380328 38188424 37996932 37804692 37610808 37414184 
2956.584 37214408 37010860 36803728 36593420 36380792 36166544 35951680 
2959.959 35736816 35522416 35309020 35097384 34888328 34683248 34483824 
2963.335 34291664 34109012 33938156 33780832 33639352 33515922 33412314 
2966.710 33330198 33270776 33233862 33218552 33222202 33241230 33271350 
2970.085 33307518 33345334 33380542 33410024 33431530 33443842 33446778 
2973.460 33440906 33427738 33409168 33386946 33362184 33334598 33301652 
2976.836 33257898 33195804 33105828 32977256 32800630 32568566 32277342 
2980.211 31927574 31524676 31077980 30599604 30103568 29604448 29114934 
2983.586 28646606 28208302 27806084 27444050 27124496 26848918 26618710 
2986.961 26435456 26300784 26215004 26175658 26175938 26201946 26234432 
2990.337 26249004 26217960 26117452 25929028 25644646 25268076 24814644 
2993.712 24309122 23778460 23250790 22749318 22289056 21877922 21516860 
2997.087 21201914 20926556 20683862 20467596 20272406 20094308 19930054 
3000.462 19776924 19632724 19496194 19365876 19241344 19121836 19006720 
3003.838 18895546 18787446 18682036 18579348 18480144 18385628 18297354 
3007.213 18216456 18143486 18077952 18018372 17962736 17908900 17855282 
3010.588 17801184 17746750 17693286 17642076 17594836 17552778 17516176 
3013.963 17485058 17458498 17435906 17416384 17400104 17387690 17380000 
3017.339 17378448 17383758 17396034 17414280 17436838 17461224 17484748 
3020.714 17505066 17520004 17528248 17528456 17519762 17501582 17473296 
3024.089 17435320 17388552 17335064 17277688 17220146 17165370 17116048 
3027.464 17073346 17037300 17006564 16979444 16953984 16928490 16902412 
3030.840 16875438 16847536 16818742 16788572 16756371 16721487 16683370 
3034.215 16642468 16599709 16556989 16516477 16480133 16449368 16424453 
3037.590 16405148 16390800 16380856 16375145 16374180 16378723 16389664 
3040.965 16407350 16431335 16460827 16494313 16530314 16567523 16604941 
3044.341 16641779 16677344 16710848 16741529 16768528 16791980 16812302 
3047.716 16830556 16848294 16866860 16886806 16908198 16929972 16950400 
3051.091 16968042 16981272 16989162 16990954 16986508 16975588 16958600 
3054.466 16936240 16909440 16879710 16849088 16819154 16791326 16766118 
3057.842 16743354 16722692 16703617 16685678 16669288 16654449 16641812 
3061.217 16631313 16622672 16615476 16609073 16603118 16597781 16593374 
3064.592 16590243 16588796 16588934 16590519 16593374 16597472 16603289 
3067.967 16611312 16622156 16636476 16654482 16675863 16700655 16728168 
3071.343 16758163 16790260 16824184 16859110 16894660 16930142 16965180 
3074.718 16999878 17034578 17069970 17106880 17145690 17186226 17228076 
3078.093 17270240 17311478 17350996 17387930 17422040 17453288 17482126 
3081.468 17508896 17534630 17560162 17586038 17612882 17640660 17668888 
3084.844 17696912 17723934 17749338 17773260 17796074 17818858 17842716 
3088.219 17868884 17897750 17929586 17963806 17999790 18036574 18073498 
3091.594 18109630 18144590 18178656 18211930 18245240 18279626 18316016 
3094.969 18355280 18397900 18443772 18492522 18543454 18595638 18648000 
3098.344 18699920 18750460 18798968 18845194 18889076 18931020 18972070 
3101.720 19013192 19055254 19098636 19143060 19187768 19231922 19275010 
3105.095 19317098 19359362 19403154 19450002 19500872 19555806 19613762 
3108.470 19673320 19732748 19790762 19846632 19900222 19951666 20001068 
3111.845 20048952 20095312 20140604 20185516 20230850 20277682 20326602 
3115.221 20377924 20431474 20486768 20543284 20600330 20657836 20715278 
3118.596 20772450 20828864 20883756 20936744 20987686 21036894 21085414 
3121.971 21134250 21184066 21235038 21286398 21336684 21384610 21429024 
3125.346 21470032 21508608 21546386 21585872 21628742 21676386 21729156 
3128.722 21786706 21847642 21910434 21973166 22034480 22092976 22148064 
3132.097 22199878 22249086 22296904 22345076 22395100 22447888 22503790 
3135.472 22562382 22622698 22683472 22743628 22802394 22859632 22915478 
3138.847 22970498 23025346 23080308 23135450 23190390 23244884 23298510 
3142.223 23351372 23404066 23457326 23512412 23569920 23630442 23693492 
3145.598 23758336 23823858 23889072 23953772 24018130 24082918 24148836 
3148.973 24216412 24285120 24354328 24422566 24488536 24551608 24611742 
3152.348 24669884 24727510 24786440 24848186 24914152 24984618 25059238 
3155.724 25137066 25216384 25295048 25371094 25442970 25510184 25573474 
3159.099 25634838 25696530 25761462 25831610 25908064 25990654 26078570 
3162.474 26170096 26263892 26358380 26452428 26544630 26634140 26719756 
3165.849 26800704 26876694 26948502 27017114 27084538 27152114 27221074 
3169.225 27291318 27362206 27431556 27497666 27558174 27611560 27656792 
3172.600 27693520 27722302 27744412 27761612 27775988 27788882 27801668 
3175.975 27814704 27827422 27838938 27848618 27856038 27861690 27866848 
3179.350 27872888 27881368 27893240 27908434 27926172 27945498 27965148 
3182.726 27984230 28002324 28019074 28034590 28049364 28063680 28078242 
3186.101 28093336 28109382 28126564 28144770 28163756 28183554 28204166 
3189.476 28226230 28250416 28277610 28307952 28340844 28375258 28409252 
3192.851 28441726 28471762 28499606 28526284 28553106 28580990 28610398 
3196.227 28640660 28670602 28699202 28725716 28750072 28773048 28795742 
3199.602 28818968 28843400 28868862 28894994 28921060 28946276 28970220 
3202.977 28992570 29013576 29033448 29053040 29073126 29094596 29117698 
3206.352 29142322 29167410 29191862 29214720 29235524 29255054 29274936 
3209.728 29296700 29321618 29349838 29379866 29409256 29435494 29456770 
3213.103 29472654 29484428 29494182 29504358 29516592 29531240 29547910 
3216.478 29565394 29582738 29599624 29616400 29633748 29652372 29672840 
3219.853 29695122 29718644 29743128 29768320 29794014 29820202 29846712 
3223.229 29873014 29898676 29923488 29947200 29970418 29993922 30018204 
3226.604 30043984 30071468 30100160 30129706 30159612 30189446 30219142 
3229.979 30248766 30278324 30308060 30338368 30369564 30402222 30436588 
3233.354 30472556 30509734 30546916 30583000 30617130 30648810 30678642 
3236.729 30707340 30736112 30765346 30794974 30824924 30854804 30884972 
3240.105 30916282 30949974 30986802 31026660 31068158 31108698 31145824 
3243.480 31177328 31203174 31224894 31245402 31268050 31295110 31327694 
3246.855 31365018 31405800 31448614 31492364 31537042 31582896 31629794 
3250.230 31676978 31722746 31765022 31801670 31832046 31856432 31876578 
3253.606 31895156 31913880 31934456 31957318 31982426 32008924 32036248 
3256.981 32063786 32091148 32118086 32143950 32168106 32189980 32209284 
3260.356 32226164 32241438 32255750 32270026 32284588 32299220 32313392 
3263.731 32326132 32336842 32344908 32350368 32353512 32354868 32355118 
3267.107 32354620 32353726 32352370 32350548 32347478 32342802 32335878 
3270.482 32326170 32313604 32298114 32280088 32259960 32238654 32217172 
3273.857 32196260 32176778 32159258 32143772 32130144 32117728 32105670 
3277.232 32093290 32080196 32066320 32052300 32038816 32026474 32015488 
3280.608 32005608 31995908 31985600 31974186 31961452 31948078 31935026 
3283.983 31923044 31912844 31904142 31895906 31887170 31876330 31862744 
3287.358 31846594 31828764 31810902 31794504 31781062 31771402 31765558 
3290.733 31763132 31762954 31764414 31766876 31769834 31773898 31779532 
3294.109 31787374 31797856 31811048 31826518 31843454 31860712 31877578 
3297.484 31893090 31907142 31919904 31932176 31945084 31959742 31977326 
3300.859 31998794 32024298 32053798 32086726 32122116 32158758 32195832 
3304.234 32232586 32268670 32304038 32338768 32373178 32407560 32442514 
3307.610 32478862 32517496 32559350 32605282 32655254 32708194 32762680 
3310.985 32816530 32868132 32916490 32962136 33006716 33052548 33101536 
3314.360 33155248 33213760 33276070 33340502 33404910 33468072 33529020 
3317.735 33587440 33643324 33696748 33747848 33796876 33844512 33891580 
3321.111 33939156 33988244 34038984 34090840 34142920 34193356 34241036 
3324.486 34285460 34326516 34364740 34401324 34436548 34470768 34503804 
3327.861 34534944 34563896 34590088 34613664 34634116 34651376 34665016 
3331.236 34674704 34680520 34682384 34680844 34676428 34669680 34660600 
3334.612 34649228 34634976 34617936 34597768 34574660 34548328 34518728 
3337.987 34484972 34446124 34401252 34350076 34292592 34229924 34163708 
3341.362 34095284 34025940 33955852 33884272 33809984 33731052 33645900 
3344.737 33553756 33454866 33350200 33241804 33132002 33023306 32917314 
3348.113 32814816 32715734 32618784 32522246 32424626 32324884 32222844 
3351.488 32118656 32013382 31907640 31801704 31695656 31589382 31482496 
3354.863 31375420 31268652 31163268 31059972 30959476 30861564 30765986 
3358.238 30672136 30579764 30489118 30400446 30314348 30231324 30151868 
3361.614 30075836 30003400 29934528 29869180 29807284 29748450 29691822 
3364.989 29636586 29581710 29526842 29471982 29417730 29365082 29314494 
3368.364 29266110 29219150 29172408 29124464 29074260 29021192 28965260 
3371.739 28906824 28846092 28783458 28718812 28652444 28584528 28515456 
3375.115 28445548 28374798 28302648 28228034 28149614 28065836 27975606 
3378.490 27878400 27774258 27663608 27546806 27424072 27294918 27159274 
3381.865 27016656 26866930 26709996 26545758 26374468 26196280 26011620 
3385.240 25821660 25627774 25432008 25236752 25043760 24854114 24668166 
3388.615 24485170 24303760 24122180 23938612 23751758 23560928 23366056 
3391.991 23167986 22968228 22768662 22571110 22376890 22186418 21999308 
3395.366 21813984 21629298 21444586 21260370 21078352 20900966 20730290 
3398.741 20567012 20410324 20257616 20105446 19950278 19789962 19623988 
3402.116 19453466 19280726 19108226 18938254 18771982 18609750 18451170 
3405.492 18295418 18141414 17988048 17834154 17679310 17523350 17367100 
3408.867 17211838 17059458 16911196 16767770 16628524 16491903 16355567 
3412.242 16217863 16078003 15936501 15795253 15656354 15521618 15391696 
3415.617 15265931 15143051 15021028 14898594 14774892 14650437 14525948 
3418.993 14402763 14282284 14165775 14054464 13948965 13849990 13757400 
3422.368 13670369 13587115 13505621 13422980 13336972 13246166 13150288 
3425.743 13050232 12947503 12844081 12741912 12642427 12546275 12453723 
3429.118 12364429 12277745 12192611 12108584 12024983 11942180 11860278 
3432.494 11780299 11702717 11628111 11556476 11487270 11419402 11351441 
3435.869 11282607 11212288 11140688 11068183 10995384 10922971 10850978 
3439.244 10779099 10706993 10634119 10560306 10485691 10410988 10336602 
3442.619 10263552 10191940 10121560 10052073 9982292 9911606 9839442 9766001 
3446.477 9692471 9620071 9550631 9485468 9425260 9369731 9317900 9268614 
3450.334 9220821 9173441 9126336 9079034 9030992 8981602 8929851 8874792 
3454.192 8816257 8754619 8691300 8627990 8566379 8507953 8453014 8401427 
3458.049 8352245 8304587 8257442 8210234 8162288 8113234 8062565 8009842 
3461.906 7955474 7899998 7844562 7790450 7738470 7688788 7640867 7594097 
3465.764 7547635 7501111 7455199 7410740 7368444 7328779 7290804 7253707 
3469.621 7215771 7176256 7135059 7092823 7050490 7009037 6968193 6927387 
3473.479 6885642 6842555 6798496 6754711 6713891 6678021 6648614 6625904 
3477.336 6608746 6594483 6580286 6563567 6542039 6514794 6481564 6443461 
3481.194 6402469 6361177 6322479 6289264 6262942 6243984 6231110 6221833 
3485.051 6213363 6202943 6189230 6171821 6151455 6129476 6107432 6086229 
3488.908 6066875 6049772 6035157 6023298 6014428 6008314 6004450 6001930 
3492.766 5999949 5998201 5996690 5996387 5998134 6003241 6011942 6024440 
3496.623 6040399 6059516 6081693 6107533 6137374 6171115 6207951 6246404 
3500.481 6283852 6318546 6349275 6376577 6402536 6430278 6463706 6505847 
3504.338 6558286 6620791 6691648 6767230 6843329 6916075 6982267 7040522 
3508.196 7091476 7137922 7184408 7235345 7294341 7363018 7440266 7523664 
3512.053 7609169 7694151 7776654 7856742 7935597 8014905 8095376 8177245 
3515.910 8259367 8340591 8419974 8496802 8571246 8642828 8710569 8772741 
3519.768 8826536 8869246 8899311 8916086 8920990 8916019 8904012 8887203 
3523.625 8866270 8841178 8810035 8770814 8720778 8657531 8579593 8486396 
3527.483 8379335 8261156 8135988 8008020 7881338 7758303 7639282 7523260 
3531.340 7408078 7291578 7171742 7047560 6918600 6784697 6645990 6503022 
3535.198 6356403 6207615 6058676 5912409 5771126 5636737 5510343 5391869 
3539.055 5281007 5176745 5078074 4984016 4893129 4803702 4713589 4621151 
3542.912 4524983 4425053 4321833 4217033 4112357 4009245 3908966 3812320 
3546.770 3720675 3635064 3556719 3486170 3422579 3363238 3304806 3243178 
3550.627 3175918 3102527 3025346 2948645 2877394 2815126 2763304 2720457 
3554.485 2684116 2650811 2618509 2585909 2553445 2520850 2488291 2454301 
3558.342 2417782 2377534 2333626 2287757 2242726 2201662 2166862 2139058 
3562.199 2117148 2098636 2079659 2056088 2023996 1979591 1920414 1845572 
3566.057 1757401 1661067 1565485 1480331 1413975 1370895 1350819 1348758 
3569.914 1357367 1368635 1376911 1378507 1372258 1359461 1341878 1321438 
3573.772 1299438 1276374 1252481 1228291 1204102 1180910 1159182 1139449 
3577.629 1121676 1105365 1090118 1075403 1061021 1047070 1033054 1019039 
3581.487 1004957 991108 977991 965837 954579 942592 927417 904738 870574 
3585.826 822469 760495 689436 617361 554487 509933 488372 489698 508607 
3590.166 537501 568090 592874 607008 607672 594665 569417 535046 495503 
3594.505 454870 417291 385851 362903 349174 344332 346521 352656 359487 
3598.845 363566 362770 356038 344332 329974 316379 306664 303282 306995 
3603.185 317606 333191 352092 371425 388504 401173 406413 402698 388968 
3607.524 365887 336374 304774 276226 253847 238166 226397 213767 194871 
3611.864 166530 128976 86687 47682 19549 8747 16335 38867 68592 95436 110648 
3617.168 106804 80556 33300 -28361 -94521 -154145 -197169 -218430 -217602 
3621.507 -199388 -170772 -139306 -110786 -87133 -67024 -46550 -22530 5632 
3625.847 32340 47450 36183 -15307 -113369 -249560 -399611 -530019 -610264 
3630.187 -626973 -585613 -505165 -407523 -312109 -231876 -171898 -130760 
3634.044 -103067 -83025 -66263 -52116 -41945 -38003 -40951 -49896 -61691 
3638.384 -73054 -81468 -86901 -90280 -93957 -99225 -105949 -111978 -114131 
3642.723 -109494 -97204 -78884 -58345 -41316 -33662 -40487 -65169 -108434 
3647.063 -168652 -242473 -325122 -411329 -494972 -568803 -624491 -652812 
3650.920 -646560 -603249 -526346 -425100 -313301 -207700 -124301 -75638 
3654.778 -68946 -102239 -163618 -233432 -290951 -320718 -317241 -284693 
3658.635 -233532 -176104 -122512 -79878 -50791 -35186 -30647 -34259 -43171 
3662.975 -54667 -66064 -74644 -77957 -73783 -61293 -41415 -17395 5500 20112 
3667.796 19218 -2948 -47677 -108964 -172362 -217172 -225153 -185676 -102239 
3672.136 10834 129971 228618 283620 277420 206606 85096 -54932 -176932 
3676.476 -256183 -287773 -284031 -264527 -247175 -241744 -248798 -262772 
3680.333 -275322 -280190 -275753 -264329 -250752 -238797 -228399 -217271 
3684.190 -201673 -180344 -156000 -136225 -131124 -150634 -200348 -278700 
3688.048 -375014 -473028 -556857 -614499 -642854 -644442 -625716 -592132 
3691.905 -548419 -498083 -444398 -391203 -343166 -304064 -276316 -260189 
3695.763 -253037 -250851 -249725 -246844 -242937 -241082 -245851 -262309 
3699.620 -293534 -339292 -395142 -453434 -504834 -539683 -551861 -539352 
3703.478 -504702 -454162 -395208 -336114 -282905 -239757 -208131 -188094 
3707.335 -178125 -176767 -183490 -199056 -224623 -261878 -310421 -367234 
3711.192 -426126 -477695 -512810 -523963 -507945 -466839 -407092 -338100 
3715.050 -269196 -209588 -165704 -140531 -133509 -140068 -154344 -169513 
3718.907 -181304 -188425 -192134 -196208 -204123 -217338 -234989 -254659 
3722.765 -272740 -287342 -298766 -309759 -323565 -341709 -362666 -381073 
3726.622 -388157 -375378 -337769 -276183 -198129 -114959 -40521 12458 36051 
3730.962 27866 -6626 -58080 -114496 -167857 -216344 -263401 -314493 -372432 
3735.301 -433210 -486400 -518966 -520919 -490305 -433475 -361275 -284031 
3739.159 -208230 -135662 -65070 4473 68692 117641 133252 94972 -11795 
3743.498 -185577 -398154 -599610 -734325 -770874 -713551 -594150 -453302 
3747.356 -327174 -243367 -214787 -241513 -310719 -403583 -499936 -584521 
3751.213 -649835 -691685 -706902 -692479 -646990 -573833 -481435 -382595 
3755.071 -291117 -217867 -169050 -145665 -143711 -156695 -178820 -206839 
3758.928 -239228 -274461 -308567 -334425 -344755 -334524 -304527 -261382 
3762.785 -216245 -180708 -162061 -161498 -173090 -186603 -191869 -184517 
3766.643 -167460 -150170 -144374 -158716 -195612 -249262 -307474 -355151 
3770.500 -380046 -376901 -347470 -299362 -242109 -185345 -135927 -97535 
3774.358 -71166 -55926 -49499 -49499 -54866 -65865 -83456 -108798 -141558 
3778.697 -178224 -212635 -236446 -242705 -228266 -195645 -152124 -106744 
3782.555 -68482 -42807 -29985 -26572 -26042 -22530 -13054 1623 17727 30550 
3787.376 36946 36382 30583 23061 16998 14877 17362 24619 36183 52023 71078 
3792.680 91194 108096 116249 109521 84665 42612 -9277 -58378 -90347 -94819 
3797.502 -69112 -21072 34029 76281 85626 48809 -36445 -156165 -283402 
3801.842 -383820 -430264 -413812 -344192 -244592 -141691 -61956 -23491 
3805.699 -33199 -83953 -156463 -224358 -263799 -263964 -227836 -168652 
3809.557 -101345 -37472 17925 66670 114029 164574 218341 268203 301922 
3813.896 305537 268402 190032 82909 -27235 -110984 -148050 -133874 -80972 
3818.236 -12259 44435 66471 40193 -34259 -140995 -250619 -330088 -357534 
3822.575 -328830 -256779 -163518 -72888 -4406 32108 35454 14247 -17858 
3826.915 -44794 -54965 -44331 -15904 22134 60308 90365 108030 112836 108229 
3831.737 99015 90465 86355 88476 96099 106704 115885 118370 108958 83870 
3836.559 42678 -10934 -68582 -119365 -153317 -164810 -153747 -125592 -88326 
3840.898 -50526 -18885 3214 14744 17428 14711 10834 10238 16534 32141 57922 
3846.202 92851 134412 180021 226762 273110 318634 362836 403295 434670 
3850.542 446014 422432 347715 210352 12259 -223597 -452772 -627039 -713452 
3854.881 -707001 -627072 -502882 -362964 -227173 -107572 -10039 65013 118768 
3859.221 153338 171171 175115 168320 154299 135705 113134 85494 50234 6560 
3864.043 -41978 -86603 -114827 -115953 -85477 -29156 38105 95105 122182 
3868.382 105113 42910 -51619 -152290 -230617 -269064 -265819 -233532 -191141 
3872.722 -156099 -137881 -135463 -138842 -134072 -109957 -61823 6162 83240 
3877.062 155227 209192 234950 227524 187910 124204 50797 -15307 -58245 
3881.401 -67455 -42144 9542 72138 127982 159967 156918 117807 53879 -13916 
3886.223 -63413 -77460 -52613 2551 70746 133683 175579 186783 166232 121850 
3891.045 68394 21968 -4075 -3313 23459 70316 128844 191556 251991 305106 
3895.866 347682 376532 389433 385055 363566 327686 282261 234851 192684 
3900.206 160663 140676 129639 121718 110018 90233 61368 28032 -2054 -20045 
3905.028 -19349 1888 40326 89703 142632 192584 235381 270259 298143 320922 
3909.850 341016 359520 377494 394540 410957 426014 439281 449397 454638 
3914.189 452183 440243 418087 387443 352026 317142 288030 268336 258820 
3918.529 258124 263396 272480 283720 296816 311836 328018 343537 355143 
3922.868 359686 355242 342310 324768 307891 297711 298474 311041 333058 
3927.208 359752 385984 406811 419149 421669 414771 399614 377328 350401 
3931.548 321287 293666 271485 258356 256500 265948 284416 307957 331632 
3935.887 351528 365821 374443 379417 383762 389897 398885 409862 420143 
3940.227 426976 427540 420674 407209 390162 373448 361178 355972 358956 
3944.566 368540 382037 396132 407939 415301 418154 417159 414074 410658 
3948.906 408138 406745 406380 406148 405915 405650 406015 407640 411122 
3953.246 416230 422167 428236 433576 437821 442034 446943 453742 462996 
3957.585 474373 486580 497693 506119 510630 511294 508971 505422 502436 
3961.925 501640 503664 508573 515739 524264 533288 542179 550307 557407 
3966.264 563511 568090 570910 571772 570644 568090 564938 562317 561720 
3970.604 564208 570080 578806 589390 599576 607639 612350 613711 612417 
3974.944 610725 610592 613645 620314 629605 639792 648884 655189 658209 
3979.283 658507 657711 657379 658972 663020 668629 675000 680476 683496 
3983.623 684093 682235 678717 674635 670852 667998 666206 665111 664547 
3987.962 663651 662224 660333 658142 656317 655289 655786 657777 660897 
3992.302 664447 667335 668828 668197 665642 661759 657512 653895 651472 
3996.642 650211 649614 649415 648718 647723 646661 645964 646428 648088 
##END=
