
##TITLE=mdmaHCL00385_7
##JCAMP-DX=5.01  $$ Nicolet v. 1
##DATATYPE=INFRARED SPECTRUM
##ORIGIN=UniL
##OWNER=Nicolet
##LONGDATE=2011/08/23
##TIME=16:14:32
##SPECTROMETER/DATA SYSTEM=Nicolet iS5
##DATA PROCESSING=
Ratio against background
%Transmittance->Absorbance
Truncated
ElementMultiply or ElementDivide
##COMMENTS=
Number of sample scans: 32
Collection length: 51.23 sec
Sample gain: 2.0
Background collected on: Mar Aout 23 16:12:45 2011 (GMT+02:00);
Number of background scans: 32
Background gain: 2.0
Sample spacing:  1.000
Number of scan points: 12415
Resolution points: 8192
Number of FFT points: 65536
Apodization: N-B fort;
Phase correction: Mertz;
Laser frequency: 15798.0 cm-1
Number of rejected sample scans: 0
Number of rejected background scans: 0
Bench serial number: ASB1000141;
##RESOLUTION=4.000
##XUNITS=1/CM
##YUNITS=ABSORBANCE
##FIRSTX=649.893372
##LASTX=4000.122314
##FIRSTY=0.053740
##MAXX=4000.122314
##MINX=649.893372
##MAXY=0.210042
##MINY=0.002890
##XFACTOR=1.000000
##YFACTOR=1.000000E-009
##NPOINTS=6950
##DELTAX=0.482117
##ZPD=6100
##XYDATA=(X++(Y..Y))
649.893 53740128 53332220 52964300 52657396 52417620 52239072 52110916 
653.268 52023952 51973944 51962328 51990672 52056712 52152420 52268108 
656.643 52397056 52541228 52711376 52923164 53189772 53513544 53883360 
660.018 54278304 54676728 55062500 55431752 55790956 56152120 56525356 
663.393 56913876 57312568 57711704 58096664 58448416 58742940 58949080 
666.767 59031972 58972800 58795328 58576484 58408616 58353924 58418356 
670.142 58565184 58738768 58884832 58964144 58955304 58860812 58701520 
673.517 58508120 58306476 58108216 57909820 57698384 57462728 57197908 
676.892 56908512 56604696 56295132 55981828 55661256 55327000 54975812 
680.267 54610516 54239520 53872068 53514596 53167080 52825228 52483984 
683.642 52141064 51799720 51466512 51147320 50844380 50554116 50269368 
687.016 49983692 49695268 49408112 49131200 48873968 48642608 48438156 
690.391 48256976 48095232 47950344 47824036 47720512 47643632 47594416 
693.766 47570052 47565212 47575196 47599888 47644148 47717516 47829400 
697.141 47986572 48190368 48436968 48720184 49034852 49379300 49754712 
700.516 50163212 50604188 51071620 51555004 52041056 52517672 52978300 
703.890 53421320 53849112 54263660 54663572 55043920 55397348 55718136 
707.265 56005804 56265824 56508600 56745664 56985988 57236356 57502408 
710.640 57792356 58121736 58513128 58991852 59579332 60280924 61078216 
714.015 61922068 62741524 63450544 63964352 64222992 64199104 63909300 
717.390 63408636 62788888 62162984 61641532 61330304 61308096 61616940 
720.765 62258196 63186348 64314200 65508484 66614272 67476584 67954488 
724.139 67963328 67489040 66599212 65424464 64135844 62907824 61867812 
727.514 61087828 60575172 60290936 60170732 60150748 60187784 60258272 
730.889 60355924 60480404 60628808 60792932 60962448 61129824 61294472 
734.264 61461784 61639012 61830024 62031824 62236512 62436396 62628800 
737.639 62818372 63014156 63223980 63448472 63679040 63900776 64099624 
741.013 64270020 64417304 64556448 64703292 64868568 65052740 65247804 
744.388 65441876 65627360 65804480 65980792 66164888 66361420 66566648 
747.763 66770816 66963368 67138448 67299320 67455640 67619080 67795072 
751.138 67981184 68168112 68345728 68509104 68661440 68812280 68972456 
754.513 69147376 69334376 69525152 69711488 69890920 70068928 70256320 
757.888 70462432 70690240 70933336 71180824 71422832 71657744 71893720 
761.262 72144928 72422936 72730624 73060248 73399152 73737208 74075376 
764.637 74428128 74820480 75278440 75820248 76453480 77175840 77980880 
768.012 78861592 79814176 80839000 81944760 83156728 84530584 86169824 
771.387 88214032 90817552 94097440 98056056 102516840 107074152 111166184 
774.762 114119408 115322000 114427496 111430336 106704552 100855552 94615880 
778.136 88634448 83342072 78959536 75483832 72771800 70610392 68801688 
781.511 67202920 65727532 64343132 63045608 61841640 60741556 59758492 
784.886 58911888 58224288 57719348 57414664 57316692 57424380 57735056 
788.261 58252440 58992876 59984328 61258876 62848544 64778476 67067528 
791.636 69735888 72809216 76318408 80292456 84740072 89629704 94863672 
795.010 100279072 105639976 110638744 114946784 118215968 120117424 
797.903 120409376 118953968 115765312 111009656 104997912 98138120 90849216 
801.278 83553960 76606368 70256320 64671948 59920192 55990124 52816096 
804.653 50303780 48353592 46871448 45786428 45048448 44622552 44483148 
808.028 44600628 44929636 45409168 45955932 46472412 46867276 47058588 
811.402 46989984 46637464 46004704 45119356 44023592 42771432 41420872 
814.777 40027920 38648980 37331384 36111200 35013332 34048656 33217554 
818.152 32513748 31929392 31458698 31099192 30850784 30713814 30687142 
821.527 30768476 30956628 31255442 31675446 32235586 32958954 33865432 
824.902 34966180 36254136 37700784 39248732 40815500 42299288 43575840 
828.277 44522244 45030916 45023752 44476984 43425424 41964788 40225396 
831.651 38358864 36514556 34807260 33318392 32087866 31117952 30383034 
835.026 29839012 29435460 29116812 28831042 28537146 28204660 27821592 
838.401 27393192 26939972 26490076 26071148 25704650 25400602 25158484 
841.776 24970264 24826362 24718566 24641760 24593332 24571312 24572644 
845.151 24593928 24632114 24686824 24760236 24856500 24979598 25130712 
848.525 25307974 25507866 25726868 25964132 26221690 26503424 26813074 
851.900 27152008 27519024 27912532 28332390 28782998 29273590 29815270 
855.275 30419494 31094354 31843920 32670148 33575948 34568348 35660268 
858.650 36869552 38215272 39716728 41390328 43248736 45301068 47549096 
862.025 49982908 52569576 55247332 57921444 60456904 62702632 64503052 
865.400 65714932 66241412 66038960 65129912 63596712 61578068 59253552 
868.774 56805440 54417428 52247404 50407104 48972540 47975468 47410596 
872.149 47241596 47408268 47834728 48424892 49074252 49675464 50118396 
875.524 50313008 50196984 49743752 48968608 47922000 46682952 45337700 
878.899 43974272 42672248 41492100 40480976 39672184 39085084 38729360 
882.274 38603168 38693460 38973544 39405980 39947812 40549684 41166164 
885.648 41760572 42306816 42795932 43236692 43656836 44096460 44602356 
889.023 45221160 45985476 46910796 47991456 49204560 50514660 51881968 
892.398 53271724 54654176 56006632 57311132 58549752 59702528 60746548 
895.773 61652072 62382572 62895528 63137868 63055872 62601276 61740524 
899.148 60467876 58811224 56834972 54627724 52295392 49950680 47690368 
902.523 45597076 43732428 42132224 40814808 39781508 39021316 38513728 
905.897 38231588 38148088 38236764 38477452 38858952 39376488 40030536 
909.272 40822996 41754260 42822404 44023516 45351604 46798888 48352260 
912.647 49988784 51675500 53367736 55014356 56572004 58011336 59328224 
916.022 60544884 61709548 62887760 64148320 65561844 67187720 69065872 
919.397 71213344 73613936 76215040 78918696 81595928 84103536 86300632 
922.771 88091488 89444632 90410616 91114368 91745872 92539496 93720432 
926.146 95497944 98029312 101389480 105556984 110384552 115607288 120804792 
929.521 125438600 128935232 130701256 130270480 127399024 122105672 
932.414 114699000 105707936 95829200 85757192 76102792 67356312 59808760 
935.789 53594768 48722408 45114064 42652436 41211884 40684844 40970660 
939.163 41964424 43544776 45538748 47719844 49835052 51602544 52772880 
942.538 53176256 52736700 51496656 49595116 47249424 44695632 42149388 
945.913 39788040 37717988 35984976 34586680 33490688 32651216 32020408 
949.288 31559274 31233936 31016198 30883408 30814074 30790102 30798140 
952.663 30828730 30876860 30941186 31022032 31120158 31236428 31371038 
956.037 31524568 31697366 31889808 32102172 32333664 32582816 32847226 
959.412 33124528 33412818 33710964 34019168 34338136 34668172 35009596 
962.787 35361784 35723864 36094924 36474948 36864036 37262964 37671908 
966.162 38090428 38516840 38949480 39387152 39829988 40279964 40740340 
969.537 41215272 41707756 42219752 42751504 43302548 43872724 44462884 
972.912 45075064 45712356 46377984 47074464 47803212 48565304 49361372 
976.286 50192596 51060664 51967368 52914444 53903316 54935536 56014432 
979.661 57145112 58334708 59592976 60928668 62348796 63857056 65453352 
983.036 67133840 68890440 70710944 72574936 74448928 76287288 78025928 
986.411 79586544 80891208 81863736 82446952 82612752 82364312 81738528 
989.786 80798256 79632680 78341976 77026184 75784232 74695680 73817984 
993.160 73187136 72815800 72698736 72819368 73157288 73691704 74403976 
996.535 75280208 76307384 77473480 78767400 80177544 81692896 83302816 
999.910 84992984 86742304 88521128 90285856 91983360 93558096 94954672 
1003.285 96132016 97067760 97761232 98233824 98526560 98698832 98817336 
1006.660 98955256 99186320 99571272 100159376 100982504 102053848 103373328 
1010.035 104931416 106716240 108716320 110922816 113329488 115930104 
1012.927 118717640 121685256 124825872 128133848 131602496 135215664 
1015.820 138941696 142723184 146468224 150063472 153378576 156283856 
1018.713 158681440 160514720 161784512 162548336 162921232 163064400 
1021.605 163153600 163380400 163918912 164899968 166412736 168488400 
1024.498 171106352 174200640 177676688 181427776 185333664 189278240 
1027.391 193146272 196816496 200176752 203125248 205579456 207492624 
1030.284 208853664 209687344 210041536 209982560 209585264 208921696 
1033.177 208065408 207080752 206011824 204875728 203649648 202272304 
1036.070 200641776 198638432 196147264 193067696 189338656 184941504 
1038.963 179897664 174265184 168132752 161619504 154857888 147992336 
1041.856 141170448 134516560 128136560 122108744 116479920 111278168 
1044.750 106515824 102195240 98314344 94867056 91843376 89229312 87006632 
1048.125 85155248 83652296 82475240 81602288 81009784 80673512 80566880 
1051.500 80659832 80922744 81326848 81844768 82453360 83129208 83845768 
1054.875 84572008 85268096 85885576 86375336 86686600 86775000 86609696 
1058.250 86173056 85466160 84508888 83343680 82031520 80645704 79272528 
1061.626 77995400 76888128 76013928 75415200 75116832 75126832 75438176 
1065.001 76030432 76870208 77914944 79110504 80393440 81701576 82971152 
1068.376 84146136 85184552 86053912 86733040 87209656 87476896 87533072 
1071.751 87381424 87031400 86497760 85800792 84967600 84030440 83028024 
1075.127 82009024 81025392 80133320 79387680 78830968 78492248 78381824 
1078.502 78492208 78800456 79271896 79868008 80543312 81248224 81932472 
1081.877 82540464 83020728 83335208 83465936 83426704 83263760 83059312 
1085.252 82916360 82948568 83274272 83993048 85180688 86879968 89090496 
1088.628 91762160 94786968 98014200 101242576 104241112 106793984 108704712 
1092.003 109836728 110132648 109613072 108372928 106555160 104343648 
1094.896 101926128 99469648 97119264 94972360 93080128 91452072 90059648 
1098.271 88846616 87734768 86641784 85484312 84185904 82691192 80965864 
1101.646 79004688 76830816 74495816 72072592 69639680 67279976 65066784 
1105.022 63055224 61287528 59789520 58572960 57641056 56989804 56610168 
1108.397 56488112 56606656 56945152 57478392 58179468 59017928 59957320 
1111.772 60959092 61977060 62958344 63850612 64600660 65161712 65501584 
1115.147 65601080 65457052 65080024 64491944 63723272 62807880 61784144 
1118.523 60689696 59557820 58418696 57295404 56204836 55160040 54170264 
1121.898 53242020 52379264 51581200 50841624 50147072 49481216 48826396 
1125.273 48170264 47510944 46860004 46242624 45691080 45242452 44929376 
1128.648 44773164 44783484 44955760 45274188 45712136 46236468 46810072 
1132.024 47389752 47934176 48405596 48774568 49027288 49167636 49218216 
1135.399 49214392 49200176 49221368 49313524 49501532 49794100 50183484 
1138.774 50646108 51145308 51638404 52075460 52408908 52598896 52613372 
1142.149 52432836 52049800 51467000 50695480 49752928 48663956 47457128 
1145.525 46164496 44821284 43460064 42110396 40797264 39537264 38341492 
1148.900 37215672 36161972 35181128 34273840 33441230 32685116 32007284 
1152.275 31409326 30892478 30458162 30107368 29841318 29660460 29564118 
1155.650 29549824 29613812 29751998 29960728 30238146 30584564 31001748 
1159.026 31491686 32055118 32690726 33395174 34162920 34986612 35857672 
1162.401 36764312 37690736 38618056 39521588 40374204 41149264 41819780 
1165.776 42362848 42760096 42997744 43068320 42970820 42711872 42304148 
1169.151 41766156 41120412 40389368 39594976 38757792 37894780 37022332 
1172.527 36156172 35310744 34501580 33743048 33047222 32424268 31881038 
1175.902 31421542 31047872 30760652 30560142 30446398 30419566 30479914 
1179.277 30627690 30864446 31192104 31614434 32135244 32758392 33486572 
1182.652 34321028 35262048 36310760 37469916 38745004 40143436 41672632 
1186.028 43337288 45136488 47061392 49091836 51195484 53328848 55431636 
1189.403 57433608 59259364 60830164 62081364 62970444 63482872 63635072 
1192.778 63470832 63054152 62452388 61730900 60943652 60124116 59289784 
1196.153 58442196 57573640 56672264 55728496 54738400 53705068 52637348 
1199.529 51546276 50442868 49334644 48224764 47113868 46001904 44891348 
1202.904 43789596 42708696 41664316 40674148 39752892 38911424 38154820 
1206.279 37482452 36889172 36367136 35908236 35504044 35147104 34831420 
1209.654 34551444 34303816 34087116 33902832 33755116 33650700 33597608 
1213.030 33603944 33677052 33823344 34047800 34354592 34747312 35227876 
1216.405 35796288 36450048 37184376 37993064 38870040 39810740 40812624 
1219.780 41874656 42995844 44175172 45410900 46702248 48051112 49463580 
1223.155 50950028 52524888 54203184 55996980 57914060 59954500 62110492 
1226.531 64363076 66683576 69029824 71343440 73556864 75590568 77359640 
1229.906 78787736 79806688 80366288 80441968 80035896 79184056 77952296 
1233.281 76442848 74783480 73110512 71572208 70304744 69422072 69022400 
1236.656 69176088 69930576 71316216 73344728 76012160 79293488 83143536 
1240.031 87488120 92217952 97202104 102276448 107251024 111933712 116117816 
1243.407 119604800 122231304 123869912 124456088 123993816 122555440 
1246.300 120270544 117303512 113855768 110134616 106337720 102654264 
1249.193 99226408 96140872 93418136 91006528 88791416 86610512 84300760 
1252.568 81717288 78768160 75435184 71771432 67891496 63936324 60062320 
1255.943 56407324 53067588 50101476 47521224 45303204 43396784 41737588 
1259.319 40259532 38896600 37595488 36316808 35034776 33738928 32430694 
1262.694 31119660 29819492 28544792 27309382 26124314 24999008 23941482 
1266.069 22957642 22052188 21226932 20480550 19808690 19205394 18664430 
1269.444 18180832 17751616 17374860 17048602 16769733 16533550 16334133 
1272.820 16166240 16026085 15911652 15822195 15756531 15712863 15687717 
1276.195 15677033 15677720 15688403 15709221 15741687 15786732 15844325 
1279.570 15912510 15989164 16071264 16155785 16238810 16313525 16369537 
1282.945 16393656 16371291 16291130 16148804 15949426 15706679 15441305 
1286.321 15177396 14936247 14735094 14586424 14497342 14472573 14515122 
1289.696 14626619 14806946 15053203 15359771 15717981 16116858 16544288 
1293.071 16985132 17422110 17835534 18203430 18505902 18728494 18865058 
1296.446 18920534 18909114 18852774 18774334 18695182 18633024 18599788 
1299.822 18603454 18648864 18737902 18868726 19035106 19226070 19425988 
1303.197 19617816 19785768 19916836 20002492 20038508 20023380 19958014 
1306.572 19845244 19691140 19505170 19300540 19093166 18898004 18727248 
1309.947 18588722 18484986 18415530 18379302 18376088 18406990 18474164 
1313.323 18578036 18716732 18886340 19081880 19299188 19536848 19795510 
1316.698 20077650 20384868 20717988 21076090 21458198 21864124 22295194 
1320.073 22752984 23237612 23744828 24266302 24788474 25294804 25770042 
1323.448 26201032 26580488 26908066 27191936 27449592 27705420 27991828 
1326.823 28342400 28784766 29335090 29990264 30726510 31498988 32252644 
1330.199 32933790 33496450 33916048 34189984 34337276 34391316 34394728 
1333.574 34393688 34428656 34535624 34742320 35065488 35512276 36078720 
1336.949 36753024 37516732 38349672 39233824 40152744 41092984 42042532 
1340.324 42989076 43920196 44823160 45683572 46485616 47209052 47825960 
1343.700 48304152 48606996 48698204 48551260 48151312 47498968 46607880 
1347.075 45502912 44217060 42785108 41246900 39644596 38020984 36423960 
1350.450 34902440 33501890 32265172 31224538 30398990 29795892 29410922 
1353.825 29232618 29243250 29421204 29739258 30161528 30647104 31150450 
1357.201 31624980 32032896 32345482 32546174 32630642 32604676 32483254 
1360.576 32288514 32053512 31821672 31641732 31567718 31645722 31904538 
1363.951 32353688 32983336 33771412 34688592 35704724 36786564 37891384 
1367.326 38968180 39953952 40776516 41370248 41680800 41675548 41348124 
1370.702 40716836 39823160 38722328 37486892 36200000 34945352 33808840 
1374.077 32861200 32146662 31679936 31446230 31414420 31548582 31822670 
1377.452 32225914 32763612 33453360 34321280 35398812 36716320 38300704 
1380.827 40165100 42295640 44632872 47056924 49402356 51456408 52996384 
1384.203 53836132 53831372 52916988 51118208 48572048 45517408 42251336 
1387.578 39093204 36290548 33981328 32198474 30891520 29969708 29330198 
1390.953 28885222 28563544 28309578 28084674 27859852 27616220 27346504 
1394.328 27053822 26750450 26451162 26168794 25909050 25671148 25450172 
1397.704 25241456 25042880 24856816 24688508 24543578 24425510 24334212 
1401.079 24266444 24217708 24184392 24165512 24164250 24187476 24245702 
1404.454 24350578 24511114 24731650 25010414 25340498 25711926 26115586 
1407.829 26545264 26997474 27471052 27964970 28476008 28999124 29527978 
1411.205 30057156 30583888 31107558 31628404 32145306 32654680 33150528 
1414.580 33627572 34083100 34518548 34939384 35352656 35764984 36181452 
1417.955 36607764 37052140 37526156 38044312 38616752 39243036 39911960 
1421.330 40604472 41301260 41987308 42660040 43331028 44024948 44771364 
1424.706 45594980 46509768 47515972 48605956 49770428 51003496 52299648 
1428.081 53647552 55025000 56392796 57698496 58889992 59925136 60785992 
1431.456 61481100 62044552 62524856 62971212 63431144 63944540 64548992 
1434.831 65290892 66228136 67426888 68949000 70820328 73018304 75477760 
1438.207 78109968 80817408 83490584 86013800 88241880 90009424 91167096 
1441.582 91588536 91206536 90021248 88092424 85522848 82431368 78949648 
1444.957 75197232 71271472 67259816 63240656 59301028 55556864 52139044 
1448.332 49171976 46744276 44881756 43554776 42700248 42253276 42162712 
1451.708 42395320 42929196 43737192 44779960 46013728 47390900 48874820 
1455.083 50447296 52098696 53820192 55586124 57350680 59054256 60642716 
1458.458 62087480 63380456 64527424 65540536 66436516 67233168 67946848 
1461.833 68588912 69159848 69646608 70028440 70284528 70408536 70417536 
1465.208 70350640 70253448 70156704 70069080 69976040 69851568 69664584 
1468.584 69386152 68987840 68431056 67663408 66618368 65228856 63462436 
1471.959 61355872 59035196 56677816 54454764 52471980 50754280 49273660 
1475.334 47990120 46883556 45966288 45275916 44851632 44721632 44892084 
1478.709 45352416 46089584 47099208 48390556 49983096 51895260 54132952 
1482.085 56684080 59521568 62612912 65928532 69452632 73177448 77091112 
1485.460 81167368 85340360 89486608 93434280 96951352 99769264 101629120 
1488.835 102301488 101650600 99679680 96553264 92570048 88076512 83403464 
1492.210 78782296 74329264 70082512 66022300 62114964 58350812 54754972 
1495.586 51393668 48357516 45727632 43547264 41809676 40474576 39485444 
1498.961 38790288 38353328 38151272 38169248 38395060 38814092 39406960 
1502.336 40150672 41011880 41947456 42902092 43789928 44495740 44873232 
1505.711 44759904 44038660 42699812 40862928 38716024 36428140 34099836 
1509.087 31767908 29441452 27131798 24861344 22674256 20624268 18754612 
1512.462 17094886 15651098 14409957 13348180 12438925 11657278 10979616 
1515.837 10385704 9861981 9401490 9006466 8683018 8435007 8256665 8131025 
1519.695 8029824 7923888 7793318 7640125 7489076 7376330 7327533 7344853 
1523.552 7409561 7492987 7570528 7628491 7669498 7707878 7762756 7846080 
1527.409 7957802 8088692 8227387 8368492 8514136 8671829 8848651 9045032 
1531.267 9252840 9457090 9642160 9801313 9941845 10085204 10253544 10460641 
1535.124 10703359 10966907 11230377 11474478 11686550 11858440 11986355 
1538.500 12068655 12103201 12088892 12028934 11936560 11832561 11738800 
1541.875 11669123 11622665 11586217 11539361 11465088 11357359 11224494 
1545.250 11086028 10963237 10869425 10802943 10750160 10692084 10613305 
1548.625 10508264 10384007 10255919 10141231 10048546 9975104 9908827 
1552.000 9836595 9750345 9652188 9553240 9469179 9412664 9386999 9384831 
1555.858 9390147 9384086 9344678 9249354 9079575 8829343 8520050 8200509 
1559.715 7929017 7742787 7646330 7621983 7641980 7679683 7711723 7723157 
1563.573 7709193 7675737 7636854 7608967 7603639 7622151 7656110 7691453 
1567.430 7715399 7720425 7707406 7684741 7665350 7661944 7681807 7727339 
1571.288 7797265 7888897 7998941 8121775 8249438 8369472 8467745 8533600 
1575.145 8565095 8575267 8589596 8637791 8738899 8895962 9099842 9338584 
1579.002 9603743 9894183 10215006 10574531 10979922 11434607 11936799 
1582.378 12480218 13056139 13652007 14250577 14829813 15360526 15811611 
1585.753 16156850 16378757 16476175 16464680 16377794 16260481 16164245 
1589.128 16143439 16243281 16499234 16931694 17542014 18308690 19183370 
1592.503 20097014 20957364 21662872 22123202 22264850 22049922 21482114 
1595.879 20607384 19504198 18263624 16981548 15736878 14585875 13566569 
1599.254 12696806 11980701 11412053 10978291 10663695 10452597 10334396 
1602.629 10303316 10358659 10501951 10733891 11051053 11445187 11901516 
1606.004 12398488 12909578 13398717 13824028 14143182 14314951 14309507 
1609.380 14113641 13733119 13193220 12535498 11814754 11084260 10389573 
1612.755 9761934 9212428 8737343 8322927 7952166 7609776 7287670 6988193 
1616.612 6722775 6507462 6354251 6266741 6238740 6257329 6305232 6364540 
1620.470 6419786 6458224 6473728 6467506 6448639 6429875 6423519 6436365 
1624.327 6468212 6513953 6566696 6621093 6673984 6723986 6770898 6814718 
1628.185 6856255 6897222 6941056 6992638 7055710 7132264 7220555 7315570 
1632.042 7408718 7490088 7550602 7581689 7577879 7538127 7469053 7384452 
1635.899 7303304 7244543 7218938 7227428 7262837 7313919 7367298 7412156 
1639.757 7441817 7455907 7460255 7463963 7476738 7503976 7544635 7591602 
1643.614 7633381 7657829 7653783 7615677 7544635 7450513 7350111 7263747 
1647.472 7211122 7204250 7246901 7334407 7456041 7595277 7729835 7833935 
1651.329 7876413 7829549 7685416 7474918 7266443 7126201 7084302 7126302 
1655.187 7218298 7326454 7428570 7513483 7578081 7624343 7656278 7676985 
1659.044 7687676 7687237 7673444 7643497 7595378 7528553 7444749 7349369 
1662.901 7251652 7162175 7092015 7047964 7030958 7035976 7052511 7067834 
1666.759 7067699 7040926 6981459 6890759 6777932 6657328 6545302 6454222 
1670.616 6390901 6356134 6345442 6350956 6361245 6363430 6343257 6289835 
1674.474 6200288 6084717 5965045 5865086 5801918 5777606 5781905 5797821 
1678.331 5810246 5811320 5802287 5792012 5791474 5807122 5835364 5861828 
1682.188 5863238 5816089 5706058 5540579 5351244 5183988 5073716 5027556 
1686.046 5030607 5059234 5092891 5117835 5127826 5122193 5103418 5076297 
1689.903 5046127 5020014 5005300 5008383 5032115 5073213 5122193 5162260 
1693.761 5175035 5144858 5067078 4955126 4839785 4755963 4723336 4738779 
1697.618 4778642 4811675 4805109 4736266 4603268 4432116 4270969 4162868 
1701.476 4127175 4153167 4215728 4287633 4347870 4384017 4391280 4373440 
1705.333 4340340 4305570 4280104 4270199 4276490 4295229 4321231 4350180 
1709.190 4379666 4409923 4442895 4481326 4526925 4579694 4637527 4697378 
1713.048 4756130 4811474 4862301 4907304 4944234 4968230 4972922 4953316 
1716.905 4909750 4850909 4793484 4757035 4753718 4785912 4845749 4920574 
1720.763 4996384 5061915 5110995 5142444 5159175 5166015 5168496 5170643 
1724.620 5174465 5181071 5190762 5203269 5217521 5231237 5240862 5243444 
1728.478 5237475 5225234 5212826 5206690 5211351 5224429 5236334 5229661 
1732.335 5183619 5082767 4925936 4735060 4549424 4411731 4344657 4345026 
1736.192 4391815 4458394 4522137 4566066 4582071 4570117 4537672 4496525 
1740.050 4458327 4431681 4419362 4420266 4431480 4449724 4472923 4499571 
1743.907 4529067 4561043 4595131 4631030 4668205 4705952 4742965 4778341 
1747.765 4810670 4838378 4860123 4874197 4879558 4876040 4865786 4853422 
1751.622 4845984 4849803 4868534 4901037 4941486 4979726 5004361 5005635 
1755.479 4978352 4925232 4856169 4786079 4728495 4689942 4668640 4655444 
1759.337 4639269 4609665 4561613 4496357 4421940 4349778 4290745 4252499 
1763.194 4236605 4240420 4258020 4282815 4307376 4325280 4332041 4325816 
1767.052 4309652 4290377 4277093 4277293 4292853 4318754 4344089 4356103 
1770.909 4344524 4307142 4252130 4196423 4158653 4150457 4173306 4219575 
1774.767 4278197 4339370 4397907 4453138 4506635 4560005 4612075 4658860 
1778.624 4695167 4716972 4724308 4720824 4714125 4711546 4717106 4730471 
1782.481 4747488 4763031 4772981 4776029 4774321 4771808 4772277 4778140 
1786.339 4790301 4808358 4831845 4859856 4891722 4924696 4953685 4972252 
1790.196 4972352 4948189 4898491 4828461 4748962 4673061 4611573 4569180 
1794.054 4544502 4532114 4525920 4520998 4514402 4504760 4491536 4473827 
1797.911 4450661 4421137 4385356 4344691 4302223 4261934 4227538 4201107 
1801.769 4183409 4173540 4170261 4171867 4177220 4185249 4194817 4205188 
1805.626 4216096 4227906 4241624 4258354 4278799 4301855 4325046 4345427 
1809.483 4360153 4368420 4371967 4374109 4379699 4391681 4411530 4437639 
1813.341 4467231 4496759 4523878 4547817 4568979 4588534 4607287 4625973 
1817.198 4644359 4662210 4679860 4697344 4715632 4735429 4756834 4779245 
1821.056 4801356 4820620 4834626 4840087 4834391 4816265 4787185 4751374 
1824.913 4716470 4690779 4680095 4686056 4704143 4725714 4739482 4736032 
1828.771 4710775 4666899 4614319 4566769 4537371 4532717 4552203 4589706 
1832.628 4637293 4688401 4739180 4789162 4839450 4891118 4944234 4997390 
1836.485 5048842 5097887 5145931 5196060 5252600 5319075 5397236 5486048 
1840.343 5582262 5680880 5777137 5865791 5943210 6008213 6063246 6114623 
1844.200 6171485 6243547 6336633 6450758 6580421 6716111 6847435 6965533 
1848.058 7065914 7147859 7214356 7268970 7313851 7347887 7367197 7366792 
1851.915 7342865 7295083 7226754 7143480 7051164 6954220 6854268 6751110 
1855.772 6643971 6533227 6420391 6308292 6199347 6094360 5992524 5892189 
1859.630 5792616 5694744 5601359 5516148 5441690 5378751 5325851 5280638 
1863.487 5242069 5210647 5188649 5178053 5178690 5187073 5196630 5199648 
1867.345 5190862 5169804 5141908 5116091 5101641 5103620 5121053 5148010 
1871.202 5176075 5198508 5211384 5214302 5209138 5198877 5186436 5173660 
1875.060 5161388 5149921 5139393 5129033 5117567 5102614 5081326 5051725 
1878.917 5013277 4968063 4919502 4871482 4826718 4785409 4745846 4704914 
1882.774 4661037 4614085 4566635 4522170 4483803 4452569 4426995 4404267 
1886.632 4381272 4356605 4330970 4306640 4286629 4273211 4267757 4270400 
1890.489 4280707 4298241 4322536 4352221 4384285 4415045 4440049 4457122 
1894.347 4466696 4472554 4480823 4496692 4523007 4558632 4598948 4638666 
1898.204 4674568 4706220 4736635 4769162 4806650 4848832 4892559 4933476 
1902.062 4967962 4995244 5017333 5038115 5060809 5086455 5113241 5137314 
1905.919 5154548 5162293 5160080 5148915 5130172 5105631 5076297 5043277 
1909.776 5008350 4974162 4943966 4920373 4904723 4895776 4891454 4889309 
1913.634 4887634 4885724 4883076 4878419 4868668 4849770 4818208 4773583 
1917.491 4720456 4667334 4624466 4598413 4589874 4591983 4594830 4587429 
1921.349 4563019 4521433 4468135 4412534 4362697 4323239 4293489 4269564 
1925.206 4247613 4225597 4205055 4189096 4180264 4178558 4181000 4183141 
1929.063 4181402 4174544 4164206 4153769 4145774 4140656 4136140 4128948 
1932.921 4116605 4098643 4077470 4055998 4036701 4020080 4004831 3989281 
1936.778 3972762 3957447 3946681 3943237 3947751 3956478 3963867 3962965 
1940.636 3949723 3924680 3892183 3859454 3832911 3815696 3807473 3806437 
1944.493 3810114 3818337 3832076 3852601 3878375 3905924 3928559 3940830 
1948.351 3939525 3925917 3905121 3884092 3868413 3860323 3859086 3862061 
1952.208 3866741 3872759 3880548 3890879 3903249 3914449 3920367 3917324 
1956.065 3904051 3881618 3853369 3821680 3786382 3745038 3693874 3631556 
1959.923 3561128 3490980 3431763 3393024 3379032 3387113 3409421 3435637 
1963.780 3458782 3475014 3484733 3489811 3491514 3489209 3480826 3465495 
1967.638 3445756 3426920 3415966 3416567 3427054 3441248 3449564 3444554 
1971.495 3423815 3391421 3355558 3324705 3303170 3290584 3283272 3279366 
1975.353 3280968 3295525 3332652 3399102 3493151 3603824 3714493 3809479 
1979.210 3878309 3919899 3939525 3945477 3945143 3942434 3937921 3931735 
1983.067 3924981 3922139 3927957 3945310 3974166 4010114 4046333 4077303 
1986.925 4101820 4120886 4138716 4157616 4177153 4192843 4199669 4195152 
1990.782 4182606 4170864 4171131 4193010 4239349 4304733 4377524 4444502 
1994.640 4495620 4526556 4538509 4536868 4526925 4513231 4498265 4483903 
1998.497 4472320 4466026 4467433 4476772 4490498 4501982 4503756 4490063 
2002.354 4459499 4416082 4366679 4317383 4271973 4229847 4187490 4140890 
2006.212 4089579 4036734 3988211 3949757 3924011 3908631 3897966 3886165 
2010.069 3869282 3847419 3822917 3799719 3781335 3768400 3761816 3762485 
2013.927 3772679 3795908 3834248 3885530 3944106 4001319 4048373 4080548 
2017.784 4099479 4111955 4127008 4150792 4185149 4225665 4265916 4298843 
2021.642 4320930 4332911 4337328 4336057 4329263 4314873 4290210 4254774 
2025.499 4211746 4167083 4127075 4095265 4071484 4051082 4028441 4000684 
2029.356 3969418 3939993 3919866 3915018 3927221 3954237 3991622 4036634 
2033.214 4087873 4146041 4212382 4285324 4359718 4430242 4491670 4542996 
2037.071 4587463 4631466 4680396 4735998 4795560 4852819 4901171 4936761 
2040.929 4960857 4977514 4992362 5008149 5025244 5040964 5052597 5059133 
2044.786 5062787 5066273 5072945 5082331 5091316 5095573 5092087 5081795 
2048.644 5069223 5060407 5059200 5065402 5074252 5079683 5076833 5066139 
2052.501 5052730 5045423 5051691 5074017 5108715 5146400 5176980 5192908 
2056.358 5192572 5180132 5163366 5149183 5141405 5140365 5143550 5147876 
2060.216 5152637 5158505 5167256 5179964 5195792 5211754 5224966 5234121 
2064.073 5240594 5247771 5259240 5276647 5298917 5322698 5344133 5361341 
2067.931 5374659 5386770 5400155 5415386 5430115 5440516 5442328 5433806 
2071.788 5416326 5394150 5371673 5351948 5334606 5317365 5297106 5273024 
2075.646 5246563 5221747 5203571 5194953 5195456 5201459 5208635 5213262 
2079.503 5213900 5212055 5210278 5210513 5213967 5219500 5225603 5231472 
2083.360 5237709 5245724 5256859 5270878 5285367 5297005 5302405 5300561 
2087.218 5292813 5282382 5272186 5263466 5254947 5243344 5225838 5201291 
2091.075 5171246 5140566 5114180 5095238 5084678 5080018 5077504 5074152 
2094.933 5068855 5062586 5057357 5054708 5054373 5054608 5053602 5050149 
2098.790 5045221 5041233 5040696 5044752 5052630 5062318 5071436 5079549 
2102.647 5087997 5100233 5119310 5146434 5179730 5215576 5248843 5275842 
2106.505 5295563 5308879 5319008 5328031 5337491 5347420 5357651 5368218 
2110.362 5380898 5397538 5420184 5448401 5480847 5513631 5543733 5569340 
2114.220 5591223 5612033 5634891 5662282 5694543 5730097 5766627 5801716 
2118.077 5834223 5863675 5890073 5912678 5930110 5940724 5943882 5940691 
2121.935 5934107 5928565 5928128 5934443 5946670 5961518 5974249 5980531 
2125.792 5977373 5963600 5938205 5901627 5853533 5794194 5724993 5649023 
2129.649 5570682 5495477 5427666 5369929 5321893 5281409 5245590 5212860 
2133.507 5182815 5155856 5132218 5111129 5089639 5065033 5034629 4998496 
2137.364 4959315 4920339 4883813 4850306 4817706 4782863 4744037 4703005 
2141.222 4664018 4632905 4614386 4608526 4610535 4611975 4604407 4581569 
2145.079 4542862 4491670 4435162 4379732 4329999 4287868 4253302 4224895 
2148.937 4202044 4183543 4166816 4147648 4120552 4080080 4023826 3952867 
2152.794 3872191 3788989 3708544 3633193 3561396 3490245 3418538 3350382 
2156.651 3294991 3265645 3272656 3320732 3403911 3509251 3622334 3732038 
2160.509 3834215 3930665 4026367 4124064 4223256 4319558 4407179 4481526 
2164.366 4540351 4584851 4616764 4638900 4653435 4663449 4672190 4683444 
2168.224 4701497 4727992 4760787 4794019 4820788 4833520 4829935 4812881 
2172.081 4790100 4770368 4761256 4764974 4778140 4794589 4807487 4812680 
2175.938 4809665 4801457 4790837 4779044 4766013 4750637 4733452 4717642 
2179.796 4707895 4710240 4727524 4758375 4797638 4836736 4868634 4889912 
2183.653 4900736 4903852 4903550 4902478 4901306 4900434 4901071 4905695 
2187.511 4919100 4945709 4987435 5042071 5104491 5168396 5228118 5281879 
2191.368 5330749 5378014 5425887 5474035 5520276 5560480 5591693 5613375 
2195.226 5627842 5637610 5645901 5652648 5655938 5652782 5641873 5624150 
2199.083 5604111 5587229 5578704 5581221 5594109 5614651 5638852 5664464 
2202.940 5690213 5716164 5742318 5768071 5791710 5811924 5828514 5842484 
2206.798 5856622 5873280 5893331 5915163 5935384 5950432 5958562 5960779 
2210.655 5961182 5964742 5975425 5994338 6019468 6045573 6067681 6081861 
2214.513 6086632 6082802 6073494 6062507 6053267 6049336 6053435 6067177 
2218.370 6089993 6120471 6154177 6185298 6208691 6220925 6221698 6214438 
2222.228 6203952 6195314 6190709 6189869 6189734 6186978 6178778 6164595 
2226.085 6146515 6127427 6110322 6096948 6087506 6081424 6078232 6077291 
2229.942 6078433 6081357 6084717 6086632 6085826 6081827 6075477 6069462 
2233.800 6066573 6068185 6074166 6082634 6091673 6100476 6110625 6125041 
2237.657 6147254 6177937 6215077 6252791 6284457 6304526 6311754 6308931 
2241.515 6301938 6297836 6301064 6312662 6330178 6349948 6368339 6383907 
2245.372 6397694 6411379 6426411 6443023 6460040 6476015 6490914 6505915 
2249.229 6523203 6544663 6570396 6597948 6623751 6643971 6656790 6663385 
2253.087 6667187 6672301 6681554 6694912 6709449 6721025 6725870 6722943 
2256.944 6713453 6700834 6688620 6679636 6674623 6672705 6672671 6673512 
2260.802 6675195 6678290 6684078 6692624 6704368 6719107 6737043 6758244 
2264.659 6783317 6811689 6841579 6870056 6893822 6909712 6916917 6916614 
2268.517 6912304 6907692 6905874 6908500 6915300 6924357 6933716 6942066 
2272.374 6948799 6953883 6958260 6962199 6966071 6970516 6976307 6984792 
2276.231 6997116 7013852 7034696 7057966 7081709 7103769 7123069 7139539 
2280.089 7153855 7167059 7180028 7192964 7205934 7219174 7232852 7247811 
2283.946 7264489 7282885 7301721 7319411 7334104 7345157 7353346 7360524 
2287.804 7369455 7382430 7399888 7420852 7443570 7465817 7486481 7505628 
2291.661 7524676 7544904 7567426 7592107 7617835 7643531 7668216 7691554 
2295.519 7714657 7738301 7763228 7789405 7815920 7841391 7864874 7885590 
2299.376 7903473 7918759 7931446 7941368 7947982 7950884 7950243 7946632 
2303.233 7941300 7935429 7930097 7925777 7922639 7920345 7918894 7918050 
2307.091 7917747 7917882 7917679 7916666 7914304 7910593 7906139 7902359 
2310.948 7900099 7900065 7901989 7904958 7907590 7909412 7910525 7911976 
2314.806 7914811 7919805 7926520 7933843 7939445 7941975 7940558 7936171 
2318.663 7930367 7925777 7924090 7926385 7932594 7941671 7952031 7961953 
2322.521 7969276 7971706 7967116 7953753 7931311 7900908 7865379 7828740 
2326.378 7795207 7768153 7749162 7737694 7731960 7729667 7729127 7729869 
2330.235 7732736 7738875 7748825 7762587 7778981 7796657 7814942 7833598 
2334.093 7853503 7875198 7899053 7924326 7949298 7972347 7992293 8008695 
2337.950 8022465 8034650 8046092 8057434 8068202 8078430 8087848 8097064 
2341.808 8106380 8115630 8123598 8128189 8127716 8122315 8115530 8114179 
2345.665 8127277 8163706 8228907 8323636 8443623 8581181 8726728 8870091 
2349.522 9002711 9118418 9212766 9284657 9335436 9368783 9388624 9399424 
2353.380 9405011 9407246 9408228 9409379 9412934 9421535 9438161 9464812 
2357.237 9501962 9548938 9603100 9661064 9720153 9778438 9834833 9889674 
2361.095 9943066 9995413 10046511 10096293 10143911 10190040 10234614 
2364.470 10277869 10319839 10359439 10395376 10426532 10451613 10469805 
2367.845 10481482 10486539 10484571 10475440 10458843 10435559 10407356 
2371.220 10378476 10353195 10336534 10332869 10344271 10371350 10413228 
2374.596 10468346 10535286 10613373 10702102 10802163 10913662 11036439 
2377.971 11170129 11313758 11466177 11626239 11792555 11963671 12137716 
2381.346 12312819 12487174 12659041 12827119 12989835 13145438 13291704 
2384.721 13425817 13544383 13644828 13725082 13784454 13823515 13843970 
2388.097 13847835 13836650 13812056 13774980 13726211 13666847 13598090 
2391.472 13521379 13438291 13350162 13257917 13162550 13065461 12968020 
2394.847 12872340 12780402 12694385 12615923 12546376 12487208 12439845 
2398.222 12405443 12385567 12381237 12392794 12419217 12459144 12510363 
2401.598 12570967 12639767 12716357 12800638 12893092 12993624 13101999 
2404.973 13217404 13339672 13469015 13606124 13752510 13909893 14079414 
2408.348 14261466 14455753 14661301 14876580 15099686 15328775 15561282 
2411.723 15794395 16024744 16248614 16462101 16661266 16842302 17001670 
2415.099 17136588 17244692 17325202 17378412 17406210 17411590 17398104 
2418.474 17369100 17327478 17274998 17212770 17141690 17062732 16977104 
2421.849 16886254 16792086 16696282 16600363 16506083 16415402 16330315 
2425.224 16254082 16189110 16138177 16103206 16085258 16084811 16102072 
2428.600 16136974 16189730 16260549 16349580 16456421 16580259 16720248 
2431.975 16875300 17044812 17228696 17426524 17637900 17861910 18096850 
2435.350 18341592 18594738 18856476 19127374 19409426 19704280 20013700 
2438.725 20338860 20680214 21038704 21414962 21810082 22225094 22660502 
2442.101 23116614 23592272 24086840 24599258 25128850 25675402 26238304 
2445.476 26816068 27406284 28005432 28610116 29216952 29824176 30431078 
2448.851 31037442 31642944 32246184 32844368 33433608 34009852 34568776 
2452.226 35107048 35621780 36110336 36570060 36997652 37388944 37739744 
2455.602 38044596 38297448 38492872 38624100 38685236 38671944 38581368 
2458.977 38412180 38165740 37843844 37448860 36982828 36447596 35845332 
2462.352 35178760 34452868 33673972 32849978 31990412 31104604 30202232 
2465.727 29293014 28385658 27489018 26611876 25761392 24944366 24166422 
2469.103 23431098 22741496 22099250 21505752 20961780 20467630 20022442 
2472.478 19623778 19267944 18949850 18663912 18404882 18168706 17952410 
2475.853 17753584 17570306 17400072 17240244 17087820 16940064 16795736 
2479.228 16654173 16516306 16383126 16255148 16132606 16014913 15901616 
2482.604 15792608 15688438 15590440 15500018 15418062 15344598 15278973 
2485.979 15220255 15167308 15119687 15077695 15041677 15011973 14988684 
2489.354 14971364 14959533 14952570 14950033 14951542 14956892 14965054 
2492.729 14974966 14985632 14996779 15008783 15023429 15042706 15068091 
2496.104 15099960 15137150 15176881 15215896 15251140 15280895 15304817 
2499.480 15324175 15340514 15355618 15370378 15385139 15399489 15412844 
2502.855 15424654 15434438 15442506 15449545 15456824 15465957 15478730 
2506.230 15496482 15519901 15548061 15579141 15610051 15637632 15659135 
2509.605 15672842 15678132 15675075 15663773 15644021 15615409 15576874 
2512.981 15528211 15470043 15404124 15333031 15259583 15185838 15113271 
2516.356 15042054 14971913 14902332 14833207 14765156 14699104 14635940 
2519.731 14576863 14522523 14473910 14431844 14397386 14370911 14352143 
2523.106 14340157 14332999 14328239 14324130 14319711 14315808 14313685 
2526.482 14315260 14322314 14335088 14353547 14376322 14402729 14431946 
2529.857 14463529 14497273 14532938 14569736 14606743 14642966 14677922 
2533.232 14712129 14746851 14783463 14823607 14868111 14917282 14970644 
2536.607 15027648 15087678 15150222 15214765 15280826 15347482 15414182 
2539.983 15480584 15546720 15613486 15681945 15753061 15827006 15903300 
2543.358 15980398 16056754 16130922 16202351 16271625 16339259 16406216 
2546.733 16473010 16539022 16603220 16664501 16721454 16773624 16821394 
2550.108 16865620 16907164 16947196 16986750 17026064 17065248 17103742 
2553.484 17141002 17176298 17209390 17240142 17268378 17294238 17317478 
2556.859 17337410 17352754 17361894 17363446 17356306 17340202 17315994 
2560.234 17284790 17248382 17208048 17164648 17118322 17069280 17017452 
2563.609 16962942 16906268 16848708 16790844 16733781 16678687 16626012 
2566.985 16577093 16532380 16492661 16458176 16428823 16404323 16384400 
2570.360 16369363 16359696 16356841 16361726 16375281 16397338 16426483 
2573.735 16460620 16497687 16536027 16574821 16614547 16655963 16699484 
2577.110 16745213 16792360 16839856 16886564 16932278 16977688 17023894 
2580.486 17072726 17125216 17181676 17241832 17304444 17368480 17433320 
2583.861 17498338 17564198 17631102 17699914 17771152 17845200 17922194 
2587.236 18001828 18083652 18166356 18248592 18328596 18404502 18475270 
2590.611 18540238 18599512 18653776 18704382 18752538 18799556 18846650 
2593.987 18894888 18945454 18999106 19056536 19117852 19182988 19251456 
2597.362 19322812 19396362 19471868 19549394 19629222 19711976 19798494 
2600.737 19889746 19986288 20088858 20197456 20311914 20431128 20553986 
2604.112 20679170 20805470 20932396 21059952 21188728 21319144 21451512 
2607.488 21585594 21720378 21854856 21987700 22117938 22244832 22367540 
2610.863 22485120 22596030 22698414 22790066 22869062 22933818 22983598 
2614.238 23018394 23038624 23045402 23040056 23024018 22998828 22966548 
2617.613 22928648 22886768 22842136 22795548 22747328 22697890 22647514 
2620.989 22596866 22546748 22498414 22453018 22411952 22375878 22345598 
2624.364 22321702 22304578 22294286 22290484 22292858 22301020 22314240 
2627.739 22332518 22355994 22385332 22421476 22465124 22516526 22575540 
2631.114 22641266 22712902 22789054 22869202 22952646 23039496 23129230 
2634.490 23221952 23317458 23415500 23515666 23617882 23722118 23828198 
2637.865 23935738 24044570 24154196 24264026 24374058 24483734 24592806 
2641.240 24700888 24807208 24910746 25010836 25106804 25198862 25287602 
2644.615 25373834 25458640 25542830 25627106 25712278 25798874 25888124 
2647.990 25981156 26078958 26182274 26291420 26405806 26524520 26646928 
2651.366 26772508 26901438 27034006 27170738 27312170 27458062 27608346 
2654.741 27762814 27921366 28084568 28253102 28427328 28607780 28793760 
2658.116 28984212 29178184 29374192 29571744 29770308 29969780 30170054 
2661.491 30370382 30570272 30768868 30965524 31160064 31352804 31544484 
2664.867 31735864 31927646 32120402 32314248 32509428 32706122 32904912 
2668.242 33106006 33310164 33517856 33729512 33945464 34165716 34389992 
2671.617 34617612 34847756 35078952 35309452 35537696 35762108 35981412 
2674.992 36194780 36401440 36600844 36792804 36976980 37153984 37324844 
2678.368 37491408 37656116 37822008 37991764 38167984 38352820 38548236 
2681.743 38755728 38976768 39212572 39464180 39731796 40015492 40314940 
2685.118 40629724 40959412 41303740 41662528 42035232 42420748 42817504 
2688.493 43223884 43638188 44059528 44487628 44922836 45365948 45817468 
2691.869 46277564 46745900 47222164 47706088 48197736 48697648 49205596 
2695.244 49721756 50244928 50773796 51307076 51843884 52384124 52928216 
2698.619 53476780 54030160 54587784 55148304 55709960 56270836 56829572 
2701.994 57385204 57936364 58482004 59019636 59546460 60058664 60552428 
2705.370 61024256 61470600 61888060 62273452 62623092 62933444 63200988 
2708.745 63423320 63599280 63728532 63812076 63850916 63846544 63799984 
2712.120 63712420 63585164 63419528 63216968 62978648 62704964 62396076 
2715.495 62051128 61669180 61249796 60793424 60301328 59775944 59220664 
2718.871 58638864 58034968 57413304 56778288 56135116 55488788 54844476 
2722.246 54207200 53581576 52971640 52381096 51813048 51270236 50754912 
2725.621 50268924 49813904 49390776 49000244 48643016 48319260 48029828 
2728.996 47774876 47554600 47368912 47217028 47097620 47009292 46950148 
2732.372 46918584 46913196 46933092 46977136 47044484 47134216 47244916 
2735.747 47375232 47523476 47687484 47864764 48052184 48246276 48443192 
2739.122 48639308 48831180 49016232 49192276 49357804 49511704 49653364 
2742.497 49782620 49899944 50006776 50104976 50196944 50285364 50372200 
2745.873 50459316 50547600 50637692 50729964 50824784 50922388 51023064 
2749.248 51127004 51234072 51344068 51456852 51572840 51693148 51819692 
2752.623 51954748 52101312 52262092 52439192 52635140 52851084 53088256 
2755.998 53347548 53628884 53932128 54256000 54598680 54957984 55330388 
2759.374 55711960 56097788 56482072 56858576 57220212 57560020 57871960 
2762.749 58150416 58391176 58591348 58748668 58861536 58929232 58951700 
2766.124 58930104 58866124 58763464 58626160 58459104 58267520 58056740 
2769.499 57831724 57597548 57359000 57120584 56886336 56659844 56443772 
2772.875 56239760 56048436 55869896 55703668 55548620 55403556 55267164 
2776.250 55137392 55012064 54888236 54762340 54630132 54487064 54328240 
2779.625 54148944 53944920 53713616 53453324 53164456 52848764 52509708 
2783.000 52151376 51778664 51397136 51011808 50627940 50250172 49882216 
2786.375 49526780 49185076 48857468 48542628 48239644 47947160 47664264 
2789.751 47390936 47127572 46874400 46631896 46399736 46177612 45964736 
2793.126 45760732 45564880 45377208 45196964 45023420 44854752 44689020 
2796.501 44523160 44354692 44180784 43999320 43808508 43606684 43392720 
2799.876 43165508 42924624 42669504 42400364 42117696 41822188 41514232 
2803.252 41194360 40862860 40520112 40167028 39805584 39438016 39067936 
2806.627 38698964 38334688 37979032 37634620 37304268 36989936 36693240 
2810.002 36415740 36158260 35921484 35705264 35509400 35333176 35176060 
2813.377 35037576 34917340 34815052 34730620 34663400 34612876 34578500 
2816.753 34559804 34556648 34569388 34598520 34644812 34708904 34791212 
2820.128 34892168 35012004 35150984 35309452 35487612 35685192 35901436 
2823.503 36134388 36381512 36639668 36905048 37173800 37442324 37707072 
2826.878 37964644 38211292 38443280 38656696 38847068 39010296 39143092 
2830.254 39242420 39306908 39336184 39331176 39293524 39225736 39130984 
2833.629 39012252 38873268 38717980 38550880 38376092 38197944 38019864 
2837.004 37844060 37671584 37502064 37334632 37167844 37001048 36833992 
2840.379 36667500 36503056 36342964 36189340 36044768 35911696 35793336 
2843.755 35692748 35613400 35559096 35532988 35537304 35573084 35638612 
2847.130 35730268 35840368 35958840 36072492 36166004 36224200 36233280 
2850.505 36182532 36066408 35885240 35644832 35355532 35030464 34685184 
2853.880 34333688 33989892 33665560 33369768 33109546 32888934 32708698 
2857.256 32567066 32459292 32378856 32317780 32268490 32224342 32179880 
2860.631 32131750 32077554 32016308 31947508 31871338 31788338 31700254 
2864.006 31608980 31517870 31429984 31348922 31277980 31219554 31175336 
2867.381 31146394 31133364 31135998 31154474 31188150 31236180 31297748 
2870.757 31371142 31454280 31544912 31640414 31738284 31836540 31934026 
2874.132 32030684 32127716 32227450 32332808 32446902 32572850 32712660 
2877.507 32867632 33038106 33223488 33423192 33635876 33860096 34094460 
2880.882 34337416 34586824 34840896 35097060 35353264 35607108 35856416 
2884.258 36098884 36332804 36555824 36766584 36963560 37145644 37312752 
2887.633 37465364 37604988 37733816 37855232 37972672 38089704 38210352 
2891.008 38338344 38477164 38631236 38805216 39004788 39236832 39508628 
2894.383 39827956 40201480 40634012 41126712 41675076 42268140 42887608 
2897.759 43506136 44092388 44610872 45026468 45311628 45447432 45428300 
2901.134 45261648 44966968 44572652 44108780 43606976 43095028 42594028 
2904.509 42120980 41687184 41299584 40962356 40677312 40444388 40262804 
2907.884 40130684 40046488 40008992 40017892 40073300 40175348 40323044 
2911.260 40514364 40745184 41009876 41300604 41608120 41922564 42232496 
2914.635 42526052 42792272 43020756 43203424 43335788 43416852 43448856 
2918.010 43437032 43388036 43308260 43203056 43076328 42930076 42765176 
2921.385 42582220 42382024 42166328 41938072 41700788 41458820 41216620 
2924.760 40977580 40744308 40518296 40299884 40088856 39885012 39688336 
2928.136 39499560 39319964 39151616 38996344 38856160 38732328 38626092 
2931.511 38537880 38468364 38417540 38385540 38372292 38377360 38400488 
2934.886 38441068 38498412 38571664 38659556 38760332 38871924 38991920 
2938.261 39118224 39249344 39384900 39525544 39672912 39828424 39992896 
2941.637 40165720 40343916 40522656 40694856 40851720 40983512 41079836 
2945.012 41130212 41125768 41060204 40930864 40740524 40496908 40212860 
2948.387 39903352 39584952 39272488 38976768 38704652 38458480 38236872 
2951.762 38036352 37852632 37681772 37519908 37363992 37211448 37059500 
2955.138 36905552 36747220 36582496 36409976 36229028 36040128 35844360 
2958.513 35643360 35438968 35232980 35026876 34821548 34617540 34415064 
2961.888 34214540 34016764 33823380 33637024 33460770 33298430 33153426 
2965.263 33028596 32926072 32846406 32789410 32753892 32737420 32737348 
2968.639 32749746 32770790 32796164 32821640 32844152 32861058 32871102 
2972.014 32874104 32870852 32862916 32852266 32841008 32831288 32824464 
2975.389 32820318 32816778 32808918 32788478 32744780 32665576 32538068 
2978.764 32352154 32101172 31783808 31404230 30972142 30501986 30009364 
2982.140 29511558 29024274 28560006 28128438 27735546 27383910 27074066 
2985.515 26805248 26576544 26388132 26240942 26136664 26075756 26055878 
2988.890 26069810 26103378 26136736 26145322 26102462 25985658 25779746 
2992.265 25480458 25095464 24643792 24152374 23649160 23160788 22707666 
2995.641 22301020 21944764 21636124 21369086 21135886 20929894 20745652 
2999.016 20579206 20427340 20287404 20156744 20033164 19914894 19800540 
3002.391 19689546 19581454 19476094 19373150 19272586 19174468 19079420 
3005.766 18988270 18902330 18822150 18748180 18680064 18616700 18557286 
3009.142 18501304 18448648 18399870 18355556 18315914 18280454 18247936 
3012.517 18216838 18185810 18154056 18121652 18089940 18060580 18035640 
3015.892 18017094 18006422 18004488 18011534 18026904 18049112 18075708 
3019.267 18103862 18130150 18151604 18166080 18172162 18169224 18157686 
3022.643 18137888 18110562 18075882 18034536 17987428 17936008 17882418 
3026.018 17829354 17779472 17734944 17697188 17666646 17642214 17622372 
3029.393 17604876 17586900 17566164 17540564 17508860 17470950 17427696 
3032.768 17381068 17333134 17286134 17241796 17200980 17164094 17131178 
3036.144 17102502 17078170 17059044 17045672 17038610 17037886 17043054 
3039.519 17053322 17067936 17085924 17106948 17130592 17156442 17184156 
3042.894 17213320 17243314 17273928 17304754 17335478 17365516 17394346 
3046.269 17421006 17444942 17466018 17484506 17501616 17518590 17536528 
3049.645 17555642 17575032 17592870 17607086 17615540 17617022 17611432 
3053.020 17599460 17582656 17562404 17540046 17516278 17491716 17466604 
3056.395 17441184 17415902 17391206 17367582 17345616 17326100 17309548 
3059.770 17296790 17288100 17283342 17281412 17280964 17280308 17278068 
3063.146 17273792 17268102 17262174 17258002 17256968 17259724 17266138 
3066.521 17275654 17287308 17300652 17315374 17331686 17349858 17369688 
3069.896 17390966 17413038 17435560 17458394 17482126 17507446 17535080 
3073.271 17565164 17597354 17630930 17665128 17699570 17734290 17769566 
3076.646 17805914 17843234 17880934 17917984 17952998 17985286 18014470 
3080.022 18041098 18066038 18090492 18115158 18140412 18166254 18192200 
3083.397 18217978 18243064 18267114 18289888 18311386 18331396 18350442 
3086.772 18368934 18387978 18408270 18430880 18455700 18482668 18511330 
3090.147 18540756 18570636 18601068 18632194 18664396 18698086 18733096 
3093.523 18769006 18805092 18840870 18876200 18911744 18948188 18986608 
3096.898 19027768 19071978 19118824 19167474 19216616 19264794 19310826 
3100.273 19353854 19393730 19431048 19466842 19502432 19538926 19577226 
3103.648 19617228 19658688 19700570 19742214 19783410 19824260 19865674 
3107.024 19908512 19953608 20001278 20050894 20101768 20152890 20203080 
3110.399 20251922 20299070 20344450 20388030 20430050 20470756 20510630 
3113.774 20550336 20590810 20633164 20677990 20725738 20776412 20829176 
3117.149 20883096 20937300 20991060 21043782 21095326 21145764 21195130 
3120.525 21243840 21292138 21340408 21389134 21438564 21488346 21538308 
3123.900 21587822 21635916 21682342 21726648 21768938 21809838 21850048 
3127.275 21890154 21930928 21972678 22015482 22059718 22105352 22152142 
3130.650 22200298 22249714 22300462 22352784 22407102 22463520 22521970 
3134.026 22581962 22642348 22701764 22758920 22812870 22863194 22910800 
3137.401 22956838 23002812 23050118 23099316 23150512 23203044 23256104 
3140.776 23309136 23361652 23413892 23466454 23519478 23573486 23628378 
3144.151 23684080 23740106 23795926 23851196 23905456 23958638 24011196 
3147.527 24063654 24116822 24172096 24230320 24292268 24357762 24426142 
3150.902 24496040 24565982 24634534 24700748 24764340 24825592 24885202 
3154.277 24944154 25003290 25063802 25126254 25191558 25259648 25330592 
3157.652 25403376 25477224 25550630 25622922 25693506 25762976 25832454 
3161.028 25903142 25976372 26052782 26132020 26212998 26294342 26374716 
3164.403 26453344 26529908 26605148 26679766 26754536 26829672 26904788 
3167.778 26979106 27051460 27120652 27186046 27247288 27304548 27358290 
3171.153 27408932 27456862 27502044 27544054 27582288 27616220 27645210 
3174.529 27668798 27687446 27701394 27711564 27719124 27725198 27731308 
3177.904 27738442 27747554 27759246 27773516 27790260 27808698 27828234 
3181.279 27848016 27867376 27885926 27903592 27920446 27936914 27953556 
3184.654 27971224 27990838 28012642 28037240 28064352 28093546 28123842 
3188.030 28154138 28183588 28211486 28238146 28263784 28289314 28315696 
3191.405 28343356 28372288 28402282 28432670 28462704 28491680 28518924 
3194.780 28544260 28567366 28588458 28607886 28626360 28644730 28664160 
3198.155 28685470 28709290 28735346 28762888 28790396 28816384 28839684 
3201.531 28859512 28875944 28889860 28902468 28915324 28929842 28946984 
3204.906 28967386 28990800 29016906 29044466 29072310 29099166 29124146 
3208.281 29146858 29167446 29186406 29204726 29222480 29240096 29257036 
3211.656 29272668 29286882 29299854 29312366 29325660 29340726 29357990 
3215.031 29377134 29397024 29415746 29431914 29444678 29454110 29461628 
3218.407 29469002 29478152 29490988 29508260 29529822 29555252 29583130 
3221.782 29611932 29640452 29667734 29693204 29716870 29738976 29760194 
3225.157 29781202 29802422 29824036 29846324 29869144 29892216 29915394 
3228.532 29938468 29960834 29982348 30002548 30021366 30039012 30056552 
3231.908 30074770 30095364 30119016 30146114 30175772 30206958 30238146 
3235.283 30268482 30297828 30326856 30356596 30387900 30420772 30454394 
3238.658 30487198 30517698 30544890 30569314 30592280 30615886 30641948 
3242.033 30671922 30705526 30742086 30779858 30817454 30854022 30889348 
3245.409 30923930 30958336 30993280 31029008 31065416 31102362 31139488 
3248.784 31176830 31214320 31251882 31289696 31327338 31364556 31401026 
3252.159 31436290 31470098 31501946 31531696 31558882 31583786 31606880 
3255.534 31628724 31650710 31673666 31698472 31725384 31754326 31784628 
3258.910 31815540 31846128 31875402 31902540 31926752 31947720 31964946 
3262.285 31978574 31989164 31997584 32004752 32011636 32018412 32024976 
3265.660 32030574 32034464 32036178 32036032 32034642 32033108 32032750 
3269.035 32034178 32037388 32041740 32045700 32047876 32047198 32042668 
3272.411 32034106 32021836 32006248 31987916 31967658 31945902 31923436 
3275.786 31900756 31878826 31858108 31839036 31821814 31806518 31792652 
3279.161 31779852 31767376 31754862 31742244 31729802 31717968 31707454 
3282.536 31698578 31691630 31686246 31681828 31677444 31672452 31666108 
3285.912 31658340 31648718 31637240 31624128 31609480 31593696 31577408 
3289.287 31561874 31548012 31536826 31528488 31522680 31518512 31514950 
3292.662 31511064 31506934 31503226 31501446 31502802 31508286 31518300 
3296.037 31532374 31549796 31569642 31591520 31614792 31639128 31663720 
3299.413 31687744 31709626 31728520 31744168 31757288 31769872 31784128 
3302.788 31802274 31825770 31855114 31889488 31927824 31969122 32012492 
3306.163 32057508 32104206 32152194 32201328 32250858 32300290 32349050 
3309.538 32397386 32445834 32494750 32544780 32596104 32648608 32702084 
3312.914 32756392 32811564 32867882 32925534 32984660 33044684 33105184 
3316.289 33165694 33225528 33284656 33343044 33400934 33458658 33516172 
3319.664 33573552 33630976 33688584 33746376 33804468 33862384 33919236 
3323.039 33973696 34024436 34070772 34112704 34151200 34187976 34224900 
3326.415 34263800 34305756 34350972 34398672 34447484 34495768 34541292 
3329.790 34582268 34617036 34644736 34665160 34679404 34688844 34695412 
3333.165 34700652 34705104 34708404 34709376 34706180 34697604 34683208 
3336.540 34663364 34638748 34610436 34578572 34542908 34502656 34457100 
3339.916 34405988 34349788 34289764 34227484 34163672 34099012 34033000 
3343.291 33964992 33893908 33819296 33740612 33657968 33571152 33480130 
3346.666 33384942 33285518 33182680 33077184 32970178 32862630 32755356 
3350.041 32648108 32540280 32431230 32320280 32207500 32093682 31980000 
3353.417 31867664 31758140 31651854 31549260 31450398 31355008 31263028 
3356.792 31174160 31087982 31004240 30922364 30841608 30761610 30682200 
3360.167 30603266 30524984 30447606 30371520 30297332 30225854 30157870 
3363.542 30094122 30035142 29981070 29931156 29884408 29839402 29794864 
3366.917 29750402 29706120 29662944 29621652 29583130 29547376 29513792 
3370.293 29481130 29448080 29413474 29376354 29336614 29294432 29250056 
3373.668 29203592 29155150 29104056 29049744 28991648 28928852 28860928 
3377.043 28787388 28708548 28624414 28535200 28441088 28342010 28237368 
3380.418 28126352 28007908 27881262 27745966 27601920 27449804 27290436 
3383.794 27125238 26955412 26782200 26606556 26429188 26250342 26069846 
3387.169 25887630 25703384 25516720 25327784 25136892 24944750 24752098 
3390.544 24559778 24368732 24179488 23992602 23808700 23628448 23452150 
3393.919 23280120 23111862 22946218 22781826 22616902 22450436 22282150 
3397.295 22112812 21944032 21777508 21614950 21456666 21302370 21150914 
3400.670 21000658 20850382 20699290 20547072 20394004 20239910 20084798 
3404.045 19928458 19771028 19612720 19454368 19297456 19143580 18993808 
3407.420 18848622 18707878 18570842 18436548 18304230 18173404 18044312 
3410.796 17916670 17790276 17664402 17537874 17409726 17279412 17147274 
3414.171 17014558 16883188 16755028 16631966 16514825 16403394 16296290 
3417.546 16191758 16087905 15983285 15877111 15769586 15661644 15554997 
3420.921 15450953 15351155 15256493 15167102 15082738 15002301 14924896 
3424.297 14848636 14772492 14695300 14616304 14535131 14451883 14367246 
3427.672 14281668 14196277 14111998 14029413 13948999 13871029 13795228 
3431.047 13721697 13649922 13579765 13510509 13441777 13372713 13302704 
3434.422 13231169 13158211 13084549 13011309 12940095 12872511 12809305 
3437.798 12750237 12694043 12638710 12581540 12520185 12453245 12380418 
3441.173 12302900 12222839 12142997 12066202 11994190 11927399 11865080 
3444.548 11805528 11746120 11684916 11620895 11554673 11487780 11422428 
3447.923 11361236 11305392 11254859 11208174 11163534 11118797 11072296 
3451.299 11023795 10973534 10922462 10871259 10820336 10769724 10719015 
3454.674 10668347 10617922 10568759 10521978 10478360 10438410 10401350 
3458.049 10365751 10330087 10292764 10252865 10209884 10164091 10115963 
3461.424 10066145 10015757 9965577 9916658 9870184 9826969 9787384 9751192 
3465.282 9717409 9684407 9650629 9614347 9574782 9531562 9485062 9436536 
3469.139 9387168 9338008 9290582 9245359 9202952 9162814 9124340 9086207 
3472.997 9047197 9006567 8964183 8921328 8879696 8841685 8809325 8783966 
3476.854 8765776 8753537 8745017 8737309 8727979 8714423 8695289 8670173 
3480.711 8639685 8605582 8569927 8535289 8504405 8478625 8458792 8444636 
3484.569 8434872 8427812 8421528 8414603 8406056 8395550 8383253 8369640 
3488.426 8355420 8341402 8328465 8317387 8308843 8303135 8300332 8300129 
3492.284 8301886 8304925 8309012 8313909 8319684 8326608 8334478 8343463 
3496.141 8353292 8363628 8375079 8387814 8402779 8420312 8440649 8463319 
3499.999 8487308 8511500 8534816 8556816 8578376 8600411 8624982 8653678 
3503.856 8687987 8728384 8774769 8826130 8881150 8937596 8993645 9048076 
3507.713 9100180 9150971 9202478 9257714 9319220 9389166 9467418 9552427 
3511.571 9641482 9731234 9819547 9905708 9990293 10074759 10160564 10247912 
3515.428 10335651 10421677 10503478 10579623 10649432 10713955 10774581 
3518.803 10832463 10887296 10937922 10981757 11016149 11039056 11049864 
3522.179 11049320 11039395 11022538 11000380 10973670 10942067 10903672 
3525.554 10856209 10797237 10725299 10640332 10543841 10438919 10329781 
3528.929 10220060 10112436 10007924 9906149 9805176 9702940 9598256 9489939 
3532.787 9378467 9263874 9146606 9026763 8904045 8778286 8649824 8520219 
3536.644 8390989 8264297 8141322 8022669 7908906 7799525 7694893 7595547 
3540.501 7502291 7415459 7334912 7258626 7183869 7107575 7026951 6940483 
3544.359 6848142 6751547 6653257 6555999 6462932 6375837 6296694 6226236 
3548.216 6164427 6110053 6060760 6013151 5964138 5910394 5850544 5785329 
3552.074 5717205 5649795 5587296 5532424 5486316 5448300 5416661 5389118 
3555.931 5363756 5338799 5313172 5285971 5256255 5223088 5186503 5146669 
3559.789 5105095 5063893 5025478 4992228 4965549 4945541 4931164 4919636 
3563.646 4907404 4890147 4863708 4824607 4771473 4705583 4631566 4556556 
3567.503 4488691 4434660 4397840 4377624 4370261 4370093 4371767 4371198 
3571.361 4366278 4356505 4342984 4327322 4310489 4293288 4275854 4257986 
3575.218 4239249 4219374 4198297 4176049 4152431 4127644 4101520 4074862 
3579.076 4048206 4023157 4000952 3982994 3970120 3963031 3962196 3967111 
3582.933 3977276 3990752 4004396 4014060 4014629 4000651 3968649 3918160 
3586.791 3852835 3780600 3712254 3658387 3626544 3618759 3632725 3662162 
3590.648 3699154 3735714 3765727 3784644 3790059 3782004 3762317 3733709 
3594.505 3699923 3664702 3631288 3602455 3580004 3564268 3554814 3549770 
3598.363 3546964 3543891 3538579 3530128 3518704 3506044 3494587 3487072 
3602.220 3485635 3491380 3504173 3522745 3544559 3566974 3586218 3599013 
3606.078 3602054 3593634 3573322 3543891 3509551 3477085 3452002 3438376 
3609.935 3435670 3440546 3446959 3448996 3442717 3427254 3405814 3384776 
3613.792 3370183 3367078 3376361 3395228 3417603 3435971 3442951 3433032 
3617.650 3403510 3355825 3295224 3230359 3170277 3123952 3096754 3089713 
3621.507 3100559 3124920 3157828 3195477 3236435 3280635 3328946 3381236 
3625.365 3433967 3479790 3507814 3505042 3460919 3372020 3247718 3110904 
3629.222 2990847 2913418 2889602 2914019 2970563 3040127 3106298 3157561 
3633.080 3189502 3203388 3204490 3199917 3195177 3194009 3196812 3202453 
3636.937 3209096 3215338 3220746 3225185 3229158 3232329 3234666 3235533 
3640.794 3234999 3233631 3233531 3237036 3246416 3263509 3288447 3319597 
3644.652 3353688 3386045 3411658 3425284 3422712 3401005 3359732 3300099 
3648.509 3225753 3142642 3059147 2985242 2931932 2907881 2917321 2958686 
3652.367 3024411 3102594 3178822 3239272 3273190 3274459 3244947 3194075 
3656.224 3137903 3092082 3068456 3070725 3095019 3133431 3176786 3217775 
3660.082 3251891 3277029 3293121 3301434 3304105 3303070 3301434 3302102 
3663.939 3308379 3323170 3347778 3381937 3422913 3466063 3504741 3531197 
3667.796 3537978 3519873 3476316 3414263 3348946 3302269 3293255 3333353 
3671.654 3420308 3540383 3670249 3783474 3855710 3867310 3811785 3698786 
3675.511 3557220 3422378 3321233 3263241 3240541 3237103 3236602 3230059 
3679.369 3215538 3197547 3182660 3176118 3179356 3190270 3205057 3221146 
3683.226 3238538 3259736 3287412 3322101 3359899 3392490 3409554 3400571 
3687.083 3359698 3288580 3197079 3100625 3015536 2952715 2915887 2902411 
3690.941 2906513 2923559 2950213 2984675 3025479 3070225 3115609 3157794 
3694.798 3193608 3221647 3242644 3259536 3275594 3292887 3311651 3329280 
3698.656 3341434 3342969 3330248 3301968 3260237 3210531 3160498 3118479 
3702.513 3090714 3080436 3087778 3109769 3141941 3179122 3217174 3252759 
3706.371 3283973 3310315 3331183 3346676 3355658 3356192 3345474 3320565 
3710.228 3280267 3225352 3160932 3095720 3040294 3003692 2991915 3005160 
3714.085 3039226 3086276 3137769 3186098 3225419 3253426 3270252 3278398 
3717.943 3281402 3282504 3283506 3284641 3284775 3282771 3277997 3270886 
3721.800 3263008 3256131 3251290 3247952 3244180 3237103 3224584 3205992 
3725.658 3183828 3163802 3153088 3159396 3186932 3235567 3299732 3370384 
3729.515 3436271 3486437 3513660 3515964 3497693 3467967 3437674 3413929 
3733.373 3397365 3381704 3357160 3316392 3258234 3190203 3126389 3082071 
3737.230 3066287 3080603 3119914 3176652 3244847 3320465 3402742 3489410 
3741.087 3574625 3647159 3689597 3681677 3608168 3468334 3285776 3104329 
3744.945 2976034 2932299 2973232 3073495 3198248 3315357 3400338 3440079 
3748.802 3433065 3387581 3317260 3236735 3157594 3086376 3028449 2989713 
3752.660 2976134 2992482 3038325 3107166 3188167 3268082 3336525 3385911 
3756.517 3414096 3422645 3415632 3397432 3370784 3338195 3302770 3269885 
3760.375 3247384 3242344 3258167 3292553 3337160 3380468 3410723 3421243 
3764.232 3411491 3388549 3363572 3347611 3347143 3360199 3378531 3391054 
3768.089 3388316 3366009 3326509 3278231 3233030 3201919 3190938 3200851 
3771.947 3227555 3264510 3304806 3342969 3375660 3401673 3421343 3435904 
3775.804 3446491 3453204 3454607 3447894 3431128 3403477 3367579 3329513 
3779.662 3297662 3279934 3280334 3298129 3327377 3360333 3388282 3405681 
3783.519 3410690 3405180 3393458 3380668 3370183 3363271 3359398 3357294 
3787.376 3355992 3355591 3356960 3360266 3365675 3372287 3379199 3386345 
3791.234 3394727 3405948 3421377 3440479 3460218 3475515 3480558 3471707 
3795.091 3449296 3418939 3390553 3375960 3383273 3414063 3461621 3513392 
3798.949 3552677 3563133 3534136 3464092 3364874 3259703 3177954 3143009 
3802.806 3162767 3228991 3321634 3416567 3489643 3523213 3509451 3452937 
3806.664 3370617 3286711 3225352 3199616 3210031 3247317 3299264 3355391 
3810.521 3410089 3463023 3516766 3572854 3629751 3680641 3714326 3719405 
3814.378 3687525 3619126 3526053 3431395 3361067 3333520 3352753 3408586 
3818.236 3480692 3544191 3577866 3567008 3508649 3413929 3307344 3219143 
3822.093 3172013 3174583 3219043 3288847 3363605 3425918 3465862 3480725 
3825.951 3475448 3460552 3447560 3445189 3456611 3478855 3505509 3529359 
3829.808 3544525 3548668 3543022 3531664 3520574 3514929 3519171 3534470 
3833.666 3559825 3590995 3621532 3643450 3648329 3630085 3586685 3522244 
3837.523 3446858 3374591 3319196 3288981 3286043 3305441 3339263 3378498 
3841.380 3416167 3447860 3472142 3489376 3501067 3509651 3517334 3526320 
3845.238 3539014 3556518 3579803 3608769 3643283 3682980 3728328 3779731 
3849.095 3837156 3898267 3956611 4000717 4014328 3980018 3883089 3720909 
3852.953 3510353 3289749 3104329 2988678 2953215 2986210 3064285 3163602 
3856.810 3267214 3363839 3448562 3519806 3577598 3622301 3654444 3675060 
3860.667 3685720 3688561 3685654 3677968 3664134 3641747 3609337 3568411 
3864.525 3526086 3492449 3478053 3488742 3522178 3567576 3608134 3627413 
3868.382 3612812 3561897 3484333 3400905 3335557 3303538 3307511 3337226 
3872.240 3377129 3411458 3430828 3435103 3431229 3430627 3443886 3476550 
3876.097 3526754 3586685 3644954 3690499 3714192 3710917 3680942 3631155 
3879.955 3573890 3523547 3494153 3493618 3521643 3569781 3623670 3667174 
3883.812 3685353 3669413 3619962 3549336 3478053 3427655 3413996 3440045 
3887.669 3497192 3568545 3635999 3683782 3701293 3686221 3644687 3590260 
3891.527 3538278 3502737 3491681 3506211 3541719 3591129 3647594 3704501 
3895.384 3757204 3802393 3836856 3858117 3864401 3855041 3831106 3796209 
3899.242 3756302 3717434 3685119 3661494 3645221 3631890 3615451 3591763 
3903.099 3559257 3521510 3484900 3457913 3447526 3456711 3484433 3525752 
3906.957 3574191 3622969 3666907 3702763 3728796 3745506 3753862 3756268 
3910.814 3755332 3754062 3755867 3762986 3776355 3794270 3813356 3828566 
3914.671 3834248 3827429 3807005 3775954 3739925 3705470 3678436 3661561 
3918.529 3655012 3656849 3665036 3677901 3694709 3715428 3739591 3764858 
3922.386 3788187 3805234 3812655 3808877 3795507 3776155 3756669 3742465 
3926.244 3736449 3739424 3749484 3763521 3777993 3789323 3795641 3794872 
3930.101 3786349 3769904 3746810 3719739 3692571 3670382 3657585 3656582 
3933.958 3667241 3686556 3709747 3731670 3748681 3759544 3765927 3770539 
3937.816 3777124 3788020 3803295 3820476 3835452 3844043 3842572 3830036 
3941.673 3807774 3779898 3751489 3728228 3714292 3711552 3719405 3735146 
3945.531 3754397 3773046 3787218 3794839 3795641 3791028 3783942 3777023 
3949.388 3773080 3772779 3776121 3781937 3788989 3796443 3804030 3811585 
3953.246 3819407 3827396 3835218 3842338 3848288 3852935 3856980 3861326 
3957.103 3866541 3873193 3880883 3888538 3894757 3898468 3899170 3896963 
3960.960 3892818 3887736 3883056 3879311 3877072 3876136 3876370 3877473 
3964.818 3878977 3880950 3883357 3886432 3890411 3895793 3902413 3910069 
3968.675 3917792 3924546 3929194 3931066 3930097 3927455 3924714 3922975 
3972.533 3923543 3926419 3930632 3934878 3937887 3939057 3938656 3937653 
3976.390 3937151 3938121 3940796 3944541 3948620 3952432 3955775 3959353 
3980.248 3963634 3969519 3976641 3984566 3991655 3997073 4000182 4001119 
3984.105 4000852 4000784 4001955 4004931 4009044 4013191 4016067 4016301 
3987.962 4013325 4007004 3998511 3989114 3980486 3973866 3970221 3969519 
3991.820 3971324 3974133 3976307 3976273 3973096 3967111 3959353 3952164 
3995.677 3947416 3946915 3951261 3959587 3970054 3980253 3987876 3991588 
3999.535 3991087 3986940 3980453 
##END=
