
##TITLE=mdmaHCL00385_9
##JCAMP-DX=5.01  $$ Nicolet v. 1
##DATATYPE=INFRARED SPECTRUM
##ORIGIN=UniL
##OWNER=Nicolet
##LONGDATE=2011/08/23
##TIME=16:23:43
##SPECTROMETER/DATA SYSTEM=Nicolet iS5
##DATA PROCESSING=
Ratio against background
%Transmittance->Absorbance
Truncated
ElementMultiply or ElementDivide
##COMMENTS=
Number of sample scans: 32
Collection length: 51.24 sec
Sample gain: 2.0
Background collected on: Mar Aout 23 16:21:52 2011 (GMT+02:00);
Number of background scans: 32
Background gain: 2.0
Sample spacing:  1.000
Number of scan points: 12415
Resolution points: 8192
Number of FFT points: 65536
Apodization: N-B fort;
Phase correction: Mertz;
Laser frequency: 15798.0 cm-1
Number of rejected sample scans: 0
Number of rejected background scans: 0
Bench serial number: ASB1000141;
##RESOLUTION=4.000
##XUNITS=1/CM
##YUNITS=ABSORBANCE
##FIRSTX=649.893372
##LASTX=4000.122314
##FIRSTY=0.061530
##MAXX=4000.122314
##MINX=649.893372
##MAXY=0.221897
##MINY=0.000316
##XFACTOR=1.000000
##YFACTOR=1.000000E-009
##NPOINTS=6950
##DELTAX=0.482117
##ZPD=6100
##XYDATA=(X++(Y..Y))
649.893 61530384 61106136 60695220 60314616 59970020 59659760 59380984 
653.268 59138420 58942856 58811796 58760464 58793392 58901112 59063364 
656.643 59255340 59457388 59662804 59874284 60099720 60344080 60605148 
660.018 60873504 61141148 61405292 61674180 61965096 62297508 62683492 
663.393 63122124 63596636 64080036 64542180 64947596 65260580 65445876 
666.767 65474696 65348120 65121480 64901584 64788520 64827988 64997508 
670.142 65236248 65474464 65652220 65734052 65706492 65583044 65393836 
673.517 65176844 64959608 64751096 64544528 64325728 64084336 63821016 
676.892 63545964 63271656 63005000 62742220 62470564 62175220 61848248 
680.267 61492936 61122612 60752760 60395256 60052692 59718876 59384712 
683.642 59044120 58697764 58352444 58016904 57695128 57385128 57078940 
687.016 56768132 56449168 56126104 55809984 55515484 55253656 55029176 
690.391 54840340 54680896 54543828 54424300 54320244 54231600 54158816 
693.766 54101428 54059880 54037780 54041868 54083076 54172628 54316864 
697.141 54515388 54759256 55035384 55330236 55637420 55958912 56304900 
700.516 56688160 57116840 57590284 58097460 58619828 59135840 59630072 
703.890 60093708 60526336 60932560 61318664 61688696 62045664 62390376 
707.265 62724448 63050056 63368648 63679956 63981168 64269364 64545648 
710.640 64820336 65116056 65465332 65904200 66462724 67151408 67952744 
714.015 68815232 69663880 70407256 70954672 71241912 71237936 70956472 
717.390 70452336 69818456 69171544 68626632 68294968 68260112 68566296 
720.765 69215800 70162232 71315784 72541056 73680704 74576656 75084256 
724.139 75114584 74648816 73750600 72549008 71215960 69930144 68824864 
727.514 67978824 67406888 67074752 66922160 66887408 66927456 67017376 
730.889 67147576 67313056 67504680 67707824 67907256 68092984 68265264 
734.264 68432376 68606064 68793064 68991024 69190152 69379464 69553152 
737.639 69715816 69878968 70056504 70256320 70475560 70702248 70920968 
741.013 71121608 71302824 71473296 71644064 71824136 72014320 72208856 
744.388 72399768 72583984 72765144 72953856 73160736 73389688 73634896 
747.763 73883104 74119592 74334616 74529168 74711888 74894968 75085560 
751.138 75282584 75478200 75664072 75836224 75999880 76166400 76347240 
754.513 76547008 76761184 76977560 77183872 77375360 77557104 77741016 
757.888 77939528 78158120 78392024 78630056 78861032 79082040 79300648 
761.262 79532264 79791032 80083072 80403488 80741504 81088128 81445384 
764.637 81828016 82261432 82771408 83374072 84073144 84860584 85723976 
768.012 86651488 87636688 88679600 89790200 90994928 92349288 93956320 
771.387 95955312 98503032 101723504 105629880 110058152 114613224 118736456 
774.762 121746616 123013328 122165808 119173288 114392664 108426552 
777.654 102016256 95830112 90320896 85730832 82072144 79208832 76927640 
781.029 75024624 73348496 71803920 70352976 68988960 67720528 66561124 
784.404 65528556 64646028 63938164 63428156 63131280 63050896 63182472 
787.779 63520804 64068556 64842492 65872496 67192552 68836824 70831952 
791.154 73196824 75950744 79116584 82721936 86791184 91328448 96298336 
794.528 101600776 107073680 112485520 117535768 121904392 125250488 
797.421 127248528 127653328 126316816 123237000 118562408 112587840 
800.314 105708992 98340112 90904928 83763384 77175880 71323136 66285416 
803.689 62064776 58607616 55829504 53638856 51948136 50689932 49815988 
807.063 49291028 49087420 49171976 49493844 49985624 50557172 51103004 
810.438 51524748 51734092 51669228 51302488 50634828 49692664 48517692 
813.813 47165428 45695940 44169304 42647244 41183760 39821164 38591472 
817.188 37510772 36582420 35801256 35157704 34642728 34249928 33975776 
820.563 33818720 33777712 33851784 34041924 34353988 34798568 35393092 
823.938 36158012 37109880 38257536 39593776 41091672 42697944 44333888 
827.312 45900136 47271776 48321264 48933152 49018644 48543740 47535712 
830.687 46085972 44325300 42409676 40495672 38705992 37130380 35815644 
834.062 34768672 33966280 33364366 32910630 32546104 32215566 31875580 
837.437 31494464 31060788 30581826 30080592 29587564 29131764 28735132 
840.812 28407270 28146750 27944650 27791072 27677522 27598708 27551962 
844.186 27534698 27543064 27573322 27622294 27690234 27780334 27898116 
847.561 28048058 28231180 28444768 28682778 28939724 29211990 29500456 
850.936 29808846 30142136 30503834 30895644 31318612 31774648 32268920 
854.311 32809704 33406590 34068512 34801480 35608112 36490480 37452616 
857.686 38503156 39656864 40933012 42351376 43931820 45691192 47642040 
861.060 49793804 52147304 54690668 57387700 60172288 62945700 65570444 
864.435 67895560 69768488 71050656 71649416 71522672 70689488 69225472 
867.810 67259744 64961992 62508552 60081644 57843456 55914100 54380848 
871.185 53287008 52636188 52399152 52518496 52918488 53501216 54158364 
874.560 54778692 55247480 55469928 55379692 54946144 54181036 53132028 
877.935 51876104 50497912 49085084 47718364 46460392 45362416 44463256 
881.309 43788020 43352740 43160824 43202728 43454060 43877232 44427244 
884.684 45052128 45702784 46339200 46932024 47470064 47961036 48432188 
888.059 48923808 49483372 50157372 50978012 51959228 53093272 54355276 
891.434 55707852 57110228 58527532 59930652 61297072 62609924 63851608 
894.809 65002432 66040776 66938012 67659464 68164696 68402200 68318080 
898.183 67863056 66999784 65718324 64041332 62027892 59763092 57350980 
901.558 54904292 52522460 50293216 48284748 46540304 45086052 43930316 
904.933 43067184 42479204 42140696 42023116 42097544 42340780 42738596 
908.308 43284096 43976808 44818604 45810360 46950520 48234796 49656408 
911.683 51205700 52867772 54617092 56418944 58226864 59988548 61659212 
915.058 63208608 64631112 65948008 67206360 68472056 69814328 71306376 
918.432 73010264 74968744 77201288 79692376 82388304 85188264 87958832 
921.807 90552336 92823256 94673104 96069304 97063952 97785216 98428048 
925.182 99232112 100427400 102225008 104782168 108170680 112364728 117213928 
928.557 122452992 127666624 132326080 135868928 137710752 137384704 
931.450 134633872 129450248 122108088 113103512 103107344 92804912 82813904 
934.824 73646552 65624164 58916100 53564592 49518908 46680556 44934152 
938.199 44174072 44297228 45193620 46737744 48752548 51006704 53240636 
941.574 55160004 56497656 57062804 56755896 55599684 53720668 51333216 
944.949 48679264 45988164 43455120 41203980 39295264 37737828 36505004 
948.324 35553268 34834472 34307688 33936720 33690588 33543732 33472184 
951.698 33455114 33476728 33526122 33597180 33687976 33798200 33927800 
955.073 34075968 34241252 34422200 34618436 34830776 35060492 35309308 
958.448 35577580 35864656 36168596 36487416 36819200 37163224 37519512 
961.823 37888056 38268788 38660464 39061844 39471544 39889296 40315920 
965.198 40753116 41202632 41665192 42139928 42624872 43117932 43618040 
968.573 44125652 44643116 45173360 45718944 46281360 46860928 47457904 
971.947 48073056 48709212 49370468 50061580 50786720 51548068 52346068 
975.322 53179996 54049076 54954152 55897104 56880900 57908116 58980656 
978.697 60099152 61265476 62483152 63758656 65101428 66521384 68027336 
982.072 69624864 71315320 73095416 74957448 76889160 78869704 80865144 
985.447 82828984 84695008 86382080 87808576 88893744 89575736 89822632 
988.821 89634144 89044536 88115392 86936312 85609512 84239448 82931352 
992.196 81771768 80825624 80135312 79716944 79567640 79670968 80005696 
995.571 80550328 81286296 82199688 83277968 84508768 85879568 87376280 
998.946 88984584 90690688 92477920 94324528 96201072 98065112 99865040 
1002.321 101545928 103052520 104341880 105388944 106188888 106758392 
1005.213 107133848 107371080 107535128 107700352 107944056 108332824 
1008.106 108922568 109751864 110838680 112186272 113786352 115627088 
1010.999 117695800 119982832 122480792 125181872 128077280 131157968 
1013.891 134414576 137839488 141424464 145153488 148994896 152892160 
1016.784 156753648 160465760 163897168 166916400 169423920 171361024 
1019.677 172726896 173577472 174026448 174234736 174379024 174653360 
1022.570 175235680 176260896 177822336 179953424 182634672 185798672 
1025.462 189348704 193174848 197154144 201167120 205095648 208814592 
1028.355 212208560 215172144 217620976 219508624 220826880 221605392 
1031.249 221897408 221773328 221309856 220578368 219649024 218582512 
1034.142 217420128 216177776 214833632 213329088 211566304 209429152 
1037.035 206806240 203599008 199747408 195232432 190074016 184328176 
1039.928 178081328 171450816 164567424 157574752 150619216 143824368 
1042.821 137294736 131107184 125307336 119922472 114966384 110444288 
1045.714 106358632 102709160 99491312 96696184 94308968 92311256 90680968 
1049.089 89395000 88430744 87763528 87368008 87216664 87278480 87523344 
1052.464 87921504 88445408 89071376 89775456 90529440 91300440 92044960 
1055.840 92711048 93245936 93596112 93715696 93573384 93151240 92450280 
1059.215 91489408 90309392 88969616 87542312 86114672 84772656 83594408 
1062.590 82649224 81985768 81634512 81608160 81902744 82498952 83362752 
1065.965 84449440 85701248 87049944 88428192 89767224 91006440 92100664 
1069.341 93015064 93726880 94223384 94496704 94544936 94371632 93986728 
1072.716 93407368 92656208 91764208 90767368 89707584 88636480 87607776 
1076.091 86678352 85903264 85324552 84970416 84850272 84955792 85263176 
1079.466 85737856 86341336 87028856 87751312 88458168 89092376 89599896 
1082.842 89939640 90090352 90063272 89903736 89694672 89541368 89560624 
1086.217 89875288 90588664 91781032 93499656 95748192 98480544 101592152 
1089.592 104933520 108301616 111460408 114185904 116270176 117563216 
1092.485 117995520 117576680 116394184 114588376 112345336 109859304 
1095.378 107306552 104843760 102579520 100574104 98843824 97363312 96076120 
1098.753 94901280 93751792 92538800 91179592 89613208 87800464 85731960 
1102.129 83428912 80942824 78349200 75730928 73177520 70769784 68569592 
1105.504 66625400 64967184 63609100 62555396 61802064 61340036 61155876 
1108.879 61232968 61551264 62085532 62807492 63683988 64675488 65738716 
1112.254 66823176 67871736 68828400 69636768 70247176 70625320 70750048 
1115.630 70617024 70236112 69629888 68830064 67872816 66799372 65650448 
1119.005 64461620 63265256 62085568 60939688 59840628 58797340 57816352 
1122.380 56901560 56052396 55262760 54519296 53804932 53101288 52394852 
1125.755 51682700 50976036 50300208 49688576 49180288 48810488 48603364 
1129.131 48571532 48712624 49011780 49442936 49971684 50559028 51159620 
1132.506 51728684 52225956 52618868 52891164 53044860 53101360 53095668 
1135.881 53072868 53080316 53156816 53330612 53613512 54000108 54467232 
1139.256 54976600 55481976 55929104 56265448 56447468 56440604 56224672 
1142.632 55792880 55149132 54305600 53280976 52100752 50793836 49393928 
1146.007 47938356 46462492 44999384 43577084 42214780 40924748 39712880 
1149.382 38580572 37527348 36552796 35657496 34843156 34112308 33467248 
1152.757 32910056 32442260 32064822 31778534 31583146 31477292 31458340 
1156.133 31522680 31666502 31886958 32183162 32555782 33006928 33538186 
1159.508 34149696 34839316 35602828 36433868 37324704 38266036 39245392 
1162.883 40245972 41247336 42223000 43144024 43981864 44708080 45298388 
1166.258 45733748 45999400 46087704 45997224 45734628 45313024 44751456 
1169.634 44073208 43301484 42459036 41567352 40644492 39708016 38775436 
1173.009 37863044 36987300 36163984 35405568 34722080 34120304 33604408 
1176.384 33176958 32840080 32595888 32446582 32394208 32440334 32585960 
1179.759 32832504 33181820 33637132 34202496 34881432 35676740 36589452 
1183.135 37619548 38767392 40035004 41427364 42951472 44614436 46421416 
1186.510 48371184 50454812 52651112 54926360 57234124 59510092 61678688 
1189.885 63658392 65363332 66723020 67689736 68246536 68409872 68226376 
1193.260 67765488 67101052 66306332 65443336 64552180 63655600 62758528 
1196.635 61853448 60926572 59964124 58957236 57903460 56806836 55675156 
1200.011 54517604 53341064 52149168 50943472 49725472 48499280 47274992 
1203.386 46067588 44896196 43782344 42743900 41794208 40939636 40180148 
1206.761 39510156 38920952 38403604 37949092 37549096 37197008 36886720 
1210.136 36613676 36375856 36174180 36013304 35900252 35844216 35854328 
1213.512 35937932 36101584 36349700 36685636 37112192 37631328 38243204 
1216.887 38946144 39736264 40608036 41555652 42574436 43660976 44813280 
1220.262 46029424 47306872 48643016 50035924 51486884 53001848 54591200 
1223.637 56269860 58053144 59953816 61980000 64131996 66401804 68770280 
1227.013 71207488 73669832 76096472 78416904 80549128 82405608 83908792 
1230.388 84990160 85600104 85715008 85338704 84508248 83290896 81790488 
1233.763 80137264 78470608 76943072 75695072 74845480 74496800 74723616 
1237.138 75576640 77089216 79275552 82132752 85635584 89735944 94354256 
1240.514 99372416 104648832 110006752 115243144 120154344 124523880 
1243.407 128146264 130854040 132519408 133080736 132547008 130997864 
1246.300 128570480 125437008 121805600 117889840 113892856 110008760 
1249.193 106384408 103110408 100210248 97633352 95264304 92937736 90485608 
1252.568 87756792 84652368 81149352 77297320 73211096 69034368 64928896 
1255.943 61039776 57469916 54283744 51497664 49089832 47009332 45190056 
1259.319 43563128 42059252 40622044 39209596 37793452 36361768 34914608 
1262.694 33461128 32015346 30592670 29208838 27876704 26607790 25411982 
1266.069 24296858 23268058 22328052 21475534 20706310 20013700 19391444 
1269.444 18834088 18338238 17901686 17522212 17196326 16919120 16684335 
1272.820 16486535 16321611 16187288 16082576 16006077 15955305 15926328 
1276.195 15914470 15915776 15927942 15950698 15984351 16029421 16085016 
1279.570 16149044 16219342 16293813 16370395 16446441 16515892 16568488 
1282.945 16590381 16565217 16479308 16326254 16109327 15841713 15544935 
1286.321 15244757 14965123 14726662 14544758 14429514 14387898 14424274 
1289.696 14540989 14737836 15011116 15354176 15757047 16207648 16693080 
1293.071 17197188 17701606 18185568 18624828 18996888 19284570 19479214 
1296.446 19583812 19611890 19585372 19528460 19464694 19414242 19391478 
1299.822 19406792 19467396 19576360 19732642 19929464 20154730 20390774 
1303.197 20617458 20816558 20972142 21073622 21115744 21096822 21018462 
1306.572 20885252 20705616 20491424 20257928 20023034 19802656 19609982 
1309.947 19452878 19334452 19254644 19212876 19209620 19246470 19325516 
1313.323 19446778 19607868 19803940 20029798 20281362 20557424 20859038 
1316.698 21188382 21546524 21932704 22344656 22780326 23239010 23722468 
1320.073 24233334 24772654 25337196 25918406 26502048 27070572 27607392 
1323.448 28098602 28535660 28918192 29254166 29561776 29866342 30202020 
1326.823 30604722 31104034 31718216 32444440 33258044 34111376 34945420 
1330.199 35702064 36331580 36806832 37124640 37305100 37384068 37407468 
1333.574 37425416 37482016 37616228 37858848 38228588 38733632 39370136 
1336.949 40125232 40978960 41908260 42892696 43913048 44953448 45999732 
1340.324 47037800 48053516 49032776 49959524 50816184 51580600 52222704 
1343.700 52708268 52999076 53057892 52858272 52385768 51642136 50642756 
1347.075 49414384 47992048 46413084 44719980 42958420 41174396 39419804 
1350.450 37747512 36206700 34843948 33694668 32780048 32108844 31677194 
1353.825 31472698 31476438 31665076 32009282 32470864 33006288 33566680 
1357.201 34101880 34570316 34939244 35188064 35309632 35307512 35196148 
1360.576 34998608 34750792 34500288 34300880 34212356 34285600 34552524 
1363.951 35024392 35690768 36528032 37504736 38588356 39744180 40927768 
1367.326 42087140 43157824 44065064 44740584 45125460 45181416 44896160 
1370.702 44282000 43375108 42227784 40912732 39517016 38131412 36853212 
1374.077 35765920 34925420 34356100 34048408 33972336 34089836 34371948 
1377.452 34804964 35392340 36151384 37109228 38299328 39754056 41501836 
1380.827 43555580 45898516 48464308 51121228 53689208 55937168 57624596 
1384.203 58549828 58556272 57571556 55620508 52848576 49513004 45935604 
1387.578 42464700 39372348 36812352 34824024 33355460 32309570 31575448 
1390.953 31057694 30678716 30377490 30111736 29849234 29569048 29262744 
1394.328 28933952 28595924 28265126 27955004 27670988 27410378 27165518 
1397.704 26928584 26695902 26469790 26257910 26069916 25914184 25794268 
1401.079 25708974 25654136 25624962 25618460 25635436 25680852 25763784 
1404.454 25895158 26083990 26335074 26647280 27014154 27426296 27874338 
1407.829 28352162 28856042 29384332 29936196 30508454 31096132 31693372 
1411.205 32294400 32895688 33495378 34091380 34680552 35257160 35814132 
1414.580 36346388 36852636 37336332 37804660 38265640 38725880 39189796 
1417.955 39662456 40153652 40677460 41252980 41893740 42600312 43359512 
1421.330 44147880 44941468 45720716 46480376 47232136 48003332 48827400 
1424.706 49733976 50740280 51847580 53047444 54328092 55680616 57096432 
1428.081 58560636 60048392 61517364 62912724 64181164 65280416 66194176 
1431.456 66934296 67539368 68062376 68556752 69072976 69652680 70333808 
1434.831 71162752 72197432 73504464 75146848 77151224 79495024 82111648 
1438.207 84909016 87784368 90621848 93298592 95662200 97540888 98781600 
1441.582 99256016 98896456 97702552 95731128 93079760 89861472 86202104 
1444.957 82218584 78009512 73668536 69284816 64961032 60833636 57054868 
1448.332 53768628 51076724 49009296 47533788 46579220 46072636 45956196 
1451.708 46192648 46758188 47624624 48750100 50088056 51586012 53201572 
1455.083 54911248 56699564 58553580 60445180 62329976 64151168 65857148 
1458.458 67419304 68826448 70079400 71185000 72155688 73006936 73753504 
1461.833 74405984 74963160 75409528 75722296 75880808 75884328 75760712 
1465.208 75564224 75353952 75169232 75020336 74889448 74743960 74545736 
1468.584 74259400 73851096 73277184 72479512 71385688 69923104 68056320 
1471.959 65825344 63365928 60869044 58517336 56423020 54610328 53047184 
1475.334 51688708 50513060 49533912 48793288 48335076 48190960 48367776 
1478.709 48853984 49634452 50703448 52070756 53757976 55786660 58165452 
1482.085 60882996 63910948 67214104 70758984 74526456 78505544 82681256 
1485.460 87024320 91463600 95868328 100056984 103785248 106770600 108740160 
1488.835 109452744 108765096 106681000 103374544 99161584 94408328 89463480 
1492.210 84570400 79849656 75338816 71013976 66837168 62796808 58920576 
1495.586 55282592 51986376 49126152 46755748 44873160 43437872 42389840 
1498.961 41672740 41246900 41085700 41170608 41485684 42010632 42719916 
1502.336 43583972 44562080 45603148 46642888 47583108 48293224 48609960 
1505.711 48355888 47411264 45782892 43622364 41150720 38557684 35948836 
1509.087 33357176 30784552 28237156 25735516 23325078 21063606 18997650 
1512.462 17159718 15556302 14173101 12984714 11961934 11077327 10304605 
1515.837 9620987 9010525 8464941 7986589 7583374 7261456 7018027 6837741 
1519.695 6693364 6555494 6402670 6234572 6073528 5953052 5897093 5906531 
1523.552 5961618 6033074 6096041 6137676 6162142 6186441 6232286 6312898 
1527.409 6427823 6565788 6712814 6860631 7009946 7168104 7343034 7536981 
1531.267 7743462 7948556 8136933 8301210 8447575 8595882 8767196 8974431 
1535.124 9214493 9472803 9728726 9964255 10167686 10332597 10457722 10542925 
1538.982 10588078 10590217 10550155 10476323 10386349 10300941 10234275 
1542.357 10187428 10148929 10099650 10024063 9915912 9783691 9646090 9523908 
1546.214 9429391 9360590 9303614 9240046 9155675 9046284 8920043 8793062 
1550.072 8682409 8595105 8526673 8463184 8390144 8299049 8191596 8079273 
1553.929 7978118 7901313 7852424 7824962 7803843 7771796 7709530 7597503 
1557.787 7420380 7174100 6878640 6578402 6325337 6152429 6063347 6041205 
1561.644 6060020 6094159 6120806 6124974 6102089 6058441 6008919 5971125 
1565.501 5957654 5970453 6001427 6036401 6062372 6071747 6065262 6051184 
1569.359 6042011 6049772 6080886 6137105 6217396 6319386 6440400 6576149 
1573.216 6719342 6858274 6979607 7072650 7135531 7180197 7230730 7315806 
1577.074 7453513 7647106 7888897 8168838 8480753 8825319 9208739 9639754 
1580.931 10124849 10665732 11258327 11893753 12560122 13241076 13914990 
1584.306 14555654 15129807 15604419 15953895 16164485 16240563 16205069 
1587.682 16098943 15973385 15884671 15890341 16037226 16360968 16881190 
1591.057 17596734 18482184 19482124 20518726 21489076 22280440 22793420 
1594.432 22947722 22702814 22064632 21084960 19851278 18463928 17028236 
1597.807 15630420 14331971 13174538 12178741 11350387 10684444 10169382 
1601.183 9789791 9529835 9378602 9329545 9381310 9534780 9789926 10142316 
1605.040 10583426 11097721 11662621 12249524 12819372 13324946 13718140 
1608.415 13950505 13985920 13806002 13413378 12832580 12107119 11295971 
1611.791 10458910 9648698 8903877 8242009 7664102 7160019 6714598 6313301 
1615.648 5946368 5613241 5320954 5080688 4901607 4786515 4730605 4722566 
1619.505 4747119 4787788 4829399 4859420 4871516 4866389 4852283 4841058 
1623.363 4843270 4864647 4904154 4956098 5014115 5073917 5133156 5191298 
1627.220 5248307 5303579 5356712 5408408 5461453 5520444 5589847 5672118 
1631.078 5766023 5866865 5966153 6054174 6121680 6160562 6165435 6135122 
1634.935 6074872 5996892 5918522 5857966 5826667 5827204 5854473 5898101 
1638.792 5945897 5986645 6013420 6025246 6027598 6029816 6041810 6069092 
1642.650 6110557 6158613 6201363 6226673 6224354 6189970 6126250 6043355 
1646.507 5956580 5882920 5837782 5830663 5864951 5938105 6042818 6166780 
1650.365 6291080 6392885 6442283 6410842 6286843 6094865 5896791 5756856 
1654.222 5707099 5737013 5815753 5911468 6002132 6076787 6131863 6169334 
1658.080 6192961 6205934 6209228 6201968 6181601 6145439 6091303 6018695 
1661.937 5929002 5827372 5722140 5624016 5543901 5489504 5463063 5460379 
1665.794 5472022 5485411 5486182 5462224 5406294 5318405 5206287 5083001 
1669.652 4963974 4861396 4782361 4728763 4697645 4682908 4674836 4661506 
1673.509 4628954 4565195 4465457 4337362 4201375 4081819 3997340 3952566 
1677.367 3939091 3940963 3942534 3934878 3917625 3898635 3888472 3894724 
1681.224 3915151 3937486 3939860 3899036 3799384 3644820 3463224 3297027 
1685.082 3180390 3122117 3110036 3122351 3140573 3151753 3150185 3135166 
1688.939 3108835 3074863 3037124 3000789 2972398 2957619 2960254 2979070 
1692.796 3006661 3029150 3030317 2995618 2920090 2814926 2707187 2628442 
1696.654 2597109 2611275 2650011 2684983 2686049 2631409 2517217 2365108 
1700.511 2217214 2113719 2074032 2090546 2142288 2205025 2259346 2293053 
1704.369 2300215 2282861 2248954 2211120 2180582 2164598 2165131 2179450 
1708.226 2202694 2229703 2257480 2285292 2315005 2349450 2391194 2441206 
1712.083 2498321 2560211 2624009 2687783 2750767 2812425 2871090 2922358 
1715.941 2959053 2974033 2963624 2931899 2891437 2859450 2849311 2866287 
1719.798 2906513 2960187 3016037 3064152 3099290 3120615 3131028 3135600 
1723.656 3139238 3145112 3154490 3167073 3182126 3198848 3215839 3231060 
1727.513 3241776 3245181 3240073 3228423 3215405 3207527 3209062 3219243 
1731.371 3230426 3227522 3192006 3108668 2973966 2804721 2634243 2500454 
1735.228 2425945 2410952 2438840 2487291 2536414 2570010 2579076 2562144 
1739.085 2524349 2476061 2429177 2393226 2373003 2368806 2377768 2396092 
1742.943 2419981 2446437 2473928 2502287 2532714 2566377 2604508 2647111 
1746.800 2692884 2739696 2784646 2825365 2859383 2884932 2900743 2906280 
1750.658 2902944 2894272 2886367 2885866 2897174 2920790 2952481 2983474 
1754.515 3002558 2999622 2968361 2909849 2832502 2750767 2678715 2624309 
1758.373 2587709 2561844 2536414 2501387 2450602 2383764 2306411 2227772 
1762.230 2157705 2104263 2070770 2057120 2059883 2074066 2092910 2109457 
1766.087 2117282 2112454 2095773 2072701 2052759 2044603 2052459 2073766 
1769.945 2098936 2116249 2114651 2090280 2048531 2004356 1974931 1971869 
1773.802 1998032 2046966 2108825 2174022 2237164 2296251 2351815 2404788 
1777.660 2453968 2496622 2529382 2550312 2561044 2566043 2571643 2583409 
1781.517 2602608 2626642 2649878 2666813 2674014 2671780 2663746 2655445 
1785.375 2651411 2654678 2665013 2681415 2702486 2727126 2754734 2783379 
1789.232 2809257 2826632 2828700 2809657 2767373 2705187 2631876 2558311 
1793.089 2494156 2444238 2408386 2382798 2362876 2345119 2327297 2308876 
1796.947 2289423 2268239 2244058 2215183 2180782 2140423 2095973 2050129 
1800.804 2006220 1967542 1936689 1915089 1903175 1900745 1906669 1918816 
1804.662 1935091 1952897 1971037 1989045 2007519 2027492 2049596 2072900 
1808.519 2095606 2115317 2130634 2141655 2150779 2161335 2176886 2199331 
1812.376 2227905 2260411 2294019 2326264 2356313 2384631 2412151 2439973 
1816.234 2468330 2496522 2523749 2549279 2573543 2597175 2621375 2646410 
1820.091 2672481 2698419 2723091 2745131 2762737 2773708 2775776 2766939 
1823.949 2746832 2718190 2686783 2660579 2646410 2647477 2661512 2682082 
1827.806 2699019 2703520 2690817 2662746 2627776 2597842 2583909 2591542 
1831.664 2619109 2660379 2707787 2755602 2800620 2843441 2885866 2929797 
1835.521 2976201 3024645 3074296 3125721 3180824 3243178 3316492 3403543 
1839.378 3504674 3617957 3739591 3864501 3987943 4105132 4212081 4306674 
1843.236 4389773 4466361 4544536 4634346 4742363 4870712 5014886 5165915 
1847.093 5313474 5447730 5563064 5657817 5733958 5794631 5842081 5875497 
1850.951 5891652 5886715 5857832 5805544 5733824 5648385 5554506 5455145 
1854.808 5350707 5239487 5120014 4992630 4860190 4726954 4597006 4472521 
1858.666 4353627 4239349 4128781 4023090 3924747 3837190 3762585 3700758 
1862.523 3649331 3604893 3565003 3529760 3500766 3480224 3468701 3463792 
1866.380 3460485 3452603 3436004 3410690 3381470 3355892 3340866 3339931 
1870.238 3351818 3371753 3394160 3415198 3433232 3448829 3462856 3475148 
1874.095 3484633 3489443 3488474 3482028 3471975 3460686 3449196 3436372 
1877.953 3418471 3391254 3352185 3300967 3241075 3177954 3116911 3061282 
1881.810 3012000 2967160 2924260 2881597 2839205 2798452 2760937 2727359 
1885.667 2697252 2669613 2642710 2616842 2593342 2574176 2561511 2556311 
1889.525 2558711 2568143 2584542 2608108 2639410 2677948 2721091 2764871 
1893.382 2804088 2835303 2857449 2873692 2889002 2908949 2936836 2972398 
1897.240 3013001 3054608 3094785 3133531 3172847 3215104 3261539 3310716 
1901.097 3359197 3403343 3441415 3474045 3504340 3535840 3570282 3606965 
1904.955 3642515 3672955 3695211 3708010 3712822 3711986 3707208 3698920 
1908.812 3687157 3672220 3656014 3642381 3635331 3637537 3648262 3663231 
1912.669 3676330 3681978 3677600 3664669 3646692 3627914 3610172 3592298 
1916.527 3570449 3540851 3502537 3458347 3413996 3374725 3342736 3315557 
1920.384 3288113 3254395 3211466 3161299 3109836 3065119 3032853 3014435 
1924.242 3006695 3004426 3002925 3000456 2998621 2999955 3006361 3016871 
1928.099 3027681 3034488 3034722 3028649 3019774 3012434 3009431 3010765 
1931.957 3013334 3013268 3008363 2999889 2991614 2987844 2991581 3001790 
1935.814 3014302 3024345 3028215 3025980 3020841 3016604 3015937 3018206 
1939.671 3020474 3018940 3012066 3001690 2993216 2993049 3004960 3029350 
1943.529 3061415 3096187 3128792 3157928 3185097 3212701 3241476 3269852 
1947.386 3293956 3310115 3317661 3320031 3323838 3335690 3360199 3397265 
1951.244 3442517 3489176 3531397 3565939 3592432 3612077 3625842 3633527 
1955.101 3633560 3625140 3609103 3588423 3567709 3550873 3537711 3525251 
1958.958 3509017 3485301 3454607 3421744 3394493 3380668 3383707 3402441 
1962.816 3431429 3464794 3498595 3532065 3566941 3605194 3646157 3686589 
1966.673 3721745 3747411 3764490 3776656 3789791 3808075 3831440 3855576 
1970.531 3874731 3884460 3885998 3884694 3888070 3902279 3928726 3963031 
1974.388 3998879 4031886 4062988 4098409 4146911 4213653 4297137 4387129 
1978.246 4468437 4527963 4558632 4561411 4542493 4510653 4472923 4431781 
1982.103 4388569 4343084 4298575 4260027 4232055 4217668 4214222 4216296 
1985.960 4215226 4206025 4188461 4168555 4155007 4155007 4171432 4200404 
1989.818 4233996 4263842 4285291 4300115 4313668 4333580 4364236 4406107 
1993.675 4455716 4507974 4559369 4608358 4655746 4701933 4745512 4782662 
1997.533 4809028 4821760 4821525 4813049 4802797 4795829 4793349 4791172 
2001.390 4782562 4759782 4719987 4664688 4601829 4540987 4491905 4461808 
2005.248 4453138 4464185 4491938 4530808 4573834 4614219 4643924 4655913 
2009.105 4647239 4619644 4579794 4537873 4503287 4482698 4477107 4482531 
2012.962 4492641 4503388 4514068 4527828 4548621 4578958 4616864 4657621 
2016.820 4693492 4720992 4740755 4758409 4781925 4818275 4870343 4934783 
2020.677 5005568 5074252 5134699 5183753 5220003 5244048 5256524 5259073 
2024.535 5252935 5242338 5231807 5225603 5225737 5229795 5231673 5224262 
2028.392 5202397 5166485 5123165 5081393 5050753 5036406 5039087 5054138 
2032.250 5076900 5104793 5139259 5184223 5242505 5313809 5391634 5467257 
2036.107 5531249 5578704 5610858 5632709 5651674 5672084 5694946 5718279 
2039.964 5738793 5755513 5769951 5785632 5805981 5831334 5858134 5880031 
2043.822 5890678 5887117 5871030 5847991 5824988 5808399 5800407 5801280 
2047.679 5807794 5817129 5826263 5832040 5830394 5815988 5783617 5729962 
2051.537 5655837 5568199 5477391 5395928 5334036 5295697 5277754 5272320 
2055.394 5269436 5261185 5245356 5224228 5203437 5188146 5181171 5182278 
2059.251 5189789 5201425 5216281 5234658 5256624 5280806 5304451 5323671 
2063.109 5335847 5340879 5341918 5343763 5351076 5365769 5385662 5406261 
2066.966 5422063 5429444 5427431 5418070 5403979 5386971 5366742 5341952 
2070.824 5311294 5275473 5237743 5203034 5176075 5158773 5150525 5147171 
2074.681 5144523 5139259 5130843 5120450 5110056 5100602 5090075 5075760 
2078.539 5054407 5025177 4989781 4952110 4917156 4888471 4866825 4850641 
2082.396 4836904 4823804 4810938 4800050 4793215 4791540 4794287 4798777 
2086.253 4801289 4798676 4789698 4774857 4755762 4733921 4710340 4685051 
2090.111 4657789 4628954 4599819 4572026 4547248 4525954 4507506 4491235 
2093.968 4476639 4464587 4457657 4457423 4464654 4477040 4490465 4499102 
2097.826 4499404 4490365 4474730 4458294 4446409 4443430 4450560 4466361 
2101.683 4487987 4513130 4540752 4570519 4602833 4636456 4669009 4698181 
2105.541 4721795 4739884 4754556 4769195 4786649 4808191 4832347 4856304 
2109.398 4877715 4894670 4908309 4921244 4936492 4955696 4979190 5005166 
2113.255 5031578 5057122 5081661 5105799 5130508 5155822 5180132 5202263 
2117.113 5220841 5236502 5251493 5268765 5290666 5318572 5350808 5384924 
2120.970 5417634 5446958 5472190 5493833 5513027 5529873 5544237 5555077 
2124.828 5561554 5563668 5561688 5556318 5546653 5530712 5504940 5466083 
2128.685 5412837 5346246 5270542 5191298 5114717 5046160 4989010 4945507 
2132.542 4917759 4907237 4914911 4939542 4977145 5019512 5056150 5077873 
2136.400 5078677 5058831 5023835 4983413 4945541 4916419 4897050 4885355 
2140.257 4878151 4873694 4872153 4875168 4884249 4898792 4914844 4927746 
2144.115 4933610 4930762 4921982 4911090 4902679 4898390 4896949 4894268 
2147.972 4886293 4871013 4849066 4823837 4798676 4775024 4752713 4729969 
2151.830 4704445 4675272 4642484 4606952 4568343 4524782 4474931 4419965 
2155.687 4366211 4327556 4323038 4373038 4489829 4674501 4911493 5173090 
2159.544 5429444 5652950 5827775 5949122 6021349 6053468 6056761 6042818 
2163.402 6020643 5998470 5981807 5971394 5966523 5962088 5954295 5940456 
2167.259 5921209 5900485 5882818 5871500 5863776 5854137 5833719 5795840 
2171.117 5738725 5667016 5591156 5524202 5476115 5451555 5449306 5462929 
2174.974 5484236 5505443 5521450 5528699 5525007 5508128 5477760 5435450 
2178.832 5386501 5339638 5304888 5290163 5298716 5326925 5365702 5404215 
2182.689 5434275 5451521 5457661 5456588 5452024 5446488 5439643 5430182 
2186.546 5419178 5409515 5406865 5417332 5444207 5486115 5538431 5594210 
2190.404 5647244 5694677 5736073 5772973 5806283 5835297 5856924 5868242 
2194.261 5867806 5857966 5843894 5831872 5826868 5831099 5842853 5857999 
2198.119 5871903 5881543 5885842 5885304 5880938 5872911 5861022 5845271 
2201.976 5826767 5808634 5796075 5793489 5804000 5827439 5860249 5897328 
2205.833 5932831 5962223 5983286 5994674 5996253 5988661 5973611 5953926 
2209.691 5934678 5922015 5921075 5935686 5965011 6005089 6048597 6087943 
2213.548 6118286 6137810 6148430 6153101 6155958 6158747 6161705 6164057 
2217.406 6164494 6163217 6160797 6157941 6154580 6150245 6144196 6135559 
2221.263 6125410 6115262 6106525 6100241 6094965 6088043 6076518 6058811 
2225.121 6036132 6012950 5994137 5984394 5984764 5993028 6003745 6011237 
2228.978 6011505 6003476 5989064 5972032 5955975 5943210 5934242 5929002 
2232.835 5926382 5926583 5930010 5936660 5945662 5955471 5964070 5969647 
2236.693 5972502 5974048 5976500 5981875 5990038 5999277 6006567 6009826 
2240.550 6008247 6004081 6000352 6000822 6007944 6021719 6040432 6061902 
2244.408 6083709 6104576 6124436 6142986 6159689 6173333 6182609 6186743 
2248.265 6186911 6185600 6185500 6189096 6196961 6207682 6218808 6228017 
2252.123 6234269 6238841 6243547 6250101 6259514 6270506 6280658 6287684 
2255.980 6290104 6287717 6282440 6275952 6269666 6264153 6258976 6253396 
2259.837 6248018 6244051 6242807 6246471 6255513 6270035 6289129 6311822 
2263.695 6337642 6366591 6397929 6430345 6461251 6487551 6506016 6515198 
2267.552 6515500 6509144 6499524 6489266 6479580 6470130 6460007 6448135 
2271.410 6434953 6421905 6411480 6405159 6403276 6404654 6406907 6407781 
2275.267 6406100 6401796 6396416 6391708 6389388 6390464 6395878 6405966 
2279.125 6421400 6442956 6469759 6500500 6532049 6560944 6584054 6599798 
2282.982 6609083 6614264 6618402 6623751 6630917 6638655 6645014 6648177 
2286.839 6647874 6644913 6641347 6639564 6640203 6643265 6648143 6653358 
2290.697 6658775 6665000 6673210 6684212 6698210 6714294 6731053 6747273 
2294.554 6762888 6777865 6793750 6810915 6829091 6846863 6862684 6875004 
2298.412 6883285 6888335 6891331 6893149 6894091 6892846 6887931 6877832 
2302.269 6862280 6842252 6819936 6797587 6776721 6757369 6738523 6718669 
2306.126 6696629 6671897 6645519 6618704 6592800 6568849 6546749 6526533 
2309.984 6507899 6490880 6475813 6463134 6452944 6444637 6437307 6430211 
2313.841 6422241 6413364 6403141 6391641 6378191 6362051 6342416 6318915 
2317.699 6292021 6263009 6234034 6207380 6184928 6167989 6156933 6151085 
2321.556 6148665 6147220 6142818 6131224 6108474 6071377 6019434 5954564 
2325.414 5881307 5805813 5733958 5670406 5617437 5574140 5538666 5508631 
2329.271 5482592 5460983 5445414 5438234 5440751 5452897 5472895 5498296 
2333.128 5526484 5555211 5583268 5609885 5633783 5654192 5669567 5679436 
2336.986 5684203 5685110 5684640 5684975 5687762 5693402 5701896 5712605 
2340.843 5724725 5738155 5752323 5766257 5778882 5788889 5796814 5805544 
2344.701 5821596 5853533 5909823 5996757 6114993 6259951 6421972 6589369 
2348.558 6750336 6893587 7011192 7098010 7152339 7175616 7173190 7152642 
2352.416 7121149 7086256 7052713 7022640 6996914 6975802 6960314 6952739 
2356.273 6955903 6972435 7003211 7047257 7101344 7161063 7222543 7282312 
2360.130 7339495 7394023 7447176 7500201 7554277 7610282 7669531 7733174 
2363.988 7802359 7877357 7956891 8038465 8118298 8192338 8258049 8313807 
2367.845 8360318 8398455 8429940 8455481 8475685 8490822 8502750 8514238 
2371.703 8529376 8552085 8586520 8634648 8697249 8774228 8865323 8970542 
2375.560 9090910 9227489 9381006 9551072 9736147 9933573 10140858 10355876 
2379.417 10576874 10803215 11034365 11269175 11506051 11742477 11974979 
2382.793 12200483 12415330 12616093 12799648 12963240 13104082 13221161 
2386.168 13314081 13383750 13432242 13461497 13473698 13469904 13451107 
2389.543 13417888 13371073 13312339 13243739 13167433 13085539 12998814 
2392.918 12907974 12812923 12713900 12612443 12510670 12411409 12317863 
2396.294 12232381 12156968 12092708 12040891 12002228 11978249 11970006 
2399.669 11978351 12003216 12043616 12098363 12165964 12245161 12335351 
2403.044 12436333 12548014 12669684 12801115 12941529 13090662 13249137 
2406.419 13418060 13598739 13792150 13998615 14217093 14446127 14683989 
2409.795 14928908 15179455 15434369 15691873 15949495 16204175 16452121 
2413.170 16688844 16910608 17113152 17292964 17446874 17572202 17667404 
2416.545 17732666 17769876 17782578 17775088 17752030 17716550 17670372 
2419.920 17613952 17546742 17468500 17379792 17282172 17178192 17070968 
2423.296 16963218 16857698 16757095 16663469 16579468 16507873 16450984 
2426.671 16411066 16389424 16387016 16404735 16443139 16503399 16586214 
2430.046 16692048 16820258 16968626 17135142 17316892 17511862 17719310 
2433.421 17939530 18173336 18421510 18684526 18961860 19253362 19558474 
2436.797 19877154 20210058 20558292 20922454 21303240 21700906 22115812 
2440.172 22549120 23002044 23476632 23974252 24495444 25039828 25606018 
2443.547 26192408 26796686 27417896 28054208 28704584 29366818 30038232 
2446.922 30715984 31396896 32078340 32758572 33435718 34108188 34774016 
2450.298 35430556 36074760 36703444 37313940 37903280 38468436 39005584 
2453.673 39510448 39977748 40401624 40776844 41097680 41358804 41554992 
2457.048 41680184 41728984 41696196 41578548 41374476 41084500 40711084 
2460.423 40257240 39726168 39120508 38442880 37696772 36886936 36019820 
2463.799 35104208 34150520 33169552 32172174 31168750 30168880 29180770 
2467.174 28212652 27271984 26365702 25500556 24681704 23913578 23199128 
2470.549 22539768 21935598 21385446 20887406 20438074 20033928 19670476 
2473.924 19342976 19046980 18778692 18534292 18310762 18104622 17912390 
2477.300 17730596 17555952 17386104 17219872 17057460 16899966 16748657 
2480.675 16604701 16468329 16339706 16218275 16104065 15997345 15899038 
2484.050 15809411 15728254 15654670 15586971 15523884 15464824 15409925 
2487.425 15360629 15317963 15282748 15254538 15232163 15213529 15197881 
2490.801 15184465 15174686 15169916 15172112 15182063 15199906 15223823 
2494.176 15251963 15282165 15312712 15342436 15370961 15397978 15423486 
2497.551 15447622 15470592 15492568 15514132 15535113 15555101 15573337 
2500.926 15588620 15599988 15607064 15610224 15610841 15610670 15611666 
2504.302 15615203 15622073 15632721 15646838 15664013 15683834 15705615 
2507.677 15728392 15750587 15770651 15786422 15796078 15797934 15790718 
2511.052 15773710 15746703 15709771 15663566 15609056 15547511 15480137 
2514.427 15408312 15332928 15254709 15174205 15091555 15007274 14922393 
2517.802 14838042 14755489 14676346 14601672 14532560 14469764 14413861 
2521.178 14365123 14323958 14289749 14261945 14239552 14221954 14208533 
2524.553 14199700 14196106 14198366 14206788 14220996 14239449 14260781 
2527.928 14283345 14306528 14330499 14356321 14384816 14416533 14451060 
2531.303 14487098 14523619 14560074 14596806 14635597 14678299 14726593 
2534.679 14781199 14842224 14908230 14978429 15051968 15128298 15207387 
2538.054 15288789 15371751 15455279 15537826 15618638 15697645 15775634 
2541.429 15853362 15931381 16009996 16088214 16165001 16239600 16311977 
2544.804 16382851 16453324 16524600 16596818 16669702 16741391 16810750 
2548.180 16876266 16937722 16995260 17049224 17100054 17147928 17192844 
2551.555 17234834 17274792 17313582 17352548 17392482 17433490 17474780 
2554.930 17514690 17551778 17584762 17613020 17636450 17655602 17670166 
2558.305 17679828 17683520 17680138 17668544 17648182 17618956 17581414 
2561.681 17536286 17484402 17426488 17363548 17296928 17227904 17157926 
2565.056 17088234 17019862 16953674 16890112 16829834 16773831 16723072 
2568.431 16678480 16641194 16611552 16589452 16575063 16568143 16569003 
2571.806 16577678 16594717 16619815 16652623 16691772 16735710 16782922 
2575.182 16832174 16882500 16933658 16985338 17037024 17088992 17140794 
2578.557 17192638 17245072 17298720 17354686 17413418 17475986 17542050 
2581.932 17612124 17686074 17763800 17845374 17930448 18018406 18108214 
2585.307 18198766 18288680 18377400 18464552 18550094 18634096 18716732 
2588.683 18797342 18875820 18951718 19025102 19096628 19167058 19236806 
2592.058 19306462 19375714 19444006 19511060 19576844 19641806 19707018 
2595.433 19773596 19842330 19913402 19987018 20063040 20141644 20223700 
2598.808 20310214 20402094 20499794 20603076 20711072 20822642 20937022 
2602.184 21054214 21174674 21300004 21431496 21570272 21716650 21870014 
2605.559 22028902 22191406 22355504 22519178 22680748 22839026 22993170 
2608.934 23142860 23288196 23429106 23565652 23697096 23822178 23939102 
2612.309 24045900 24140674 24222052 24289254 24341676 24379596 24402904 
2615.685 24411912 24406864 24388498 24358148 24317602 24269070 24214976 
2619.060 24157664 24098994 24040612 23983604 23928984 23877450 23829422 
2622.435 23785356 23745318 23709450 23677956 23651016 23629358 23613544 
2625.810 23604342 23602418 23608610 23622990 23645976 23677538 23717848 
2629.186 23766562 23823472 23887600 23958322 24034588 24115314 24200438 
2632.561 24289850 24383626 24482018 24584636 24690646 24799174 24908606 
2635.936 25018452 25128746 25239878 25352968 25469110 25588938 25712102 
2639.311 25838186 25965820 26093666 26220318 26344930 26466726 26585208 
2642.687 26700306 26812050 26920616 27026776 27130740 27233176 27334612 
2646.062 27435436 27536144 27637370 27739960 27845190 27954190 28068062 
2649.437 28187548 28312902 28443920 28580458 28721928 28868116 29018820 
2652.812 29173896 29333494 29497408 29665428 29837734 30014300 30195696 
2656.188 30382216 30574112 30771392 30973708 31180498 31391054 31605098 
2659.563 31821706 32040778 32261532 32483180 32704872 32925892 33145666 
2662.938 33364118 33581352 33797880 34013972 34229528 34444616 34659272 
2666.313 34873676 35088800 35305824 35526264 35751064 35980764 36215056 
2669.688 36453324 36694756 36938596 37184556 37432716 37682572 37933940 
2673.064 38185420 38435856 38683464 38927008 39165392 39397924 39624556 
2676.439 39844948 40058948 40266692 40468284 40665092 40858088 41049936 
2679.814 41243144 41440628 41645208 41859804 42086848 42328876 42587740 
2683.189 42864972 43161300 43477092 43811404 44163836 44533368 44919124 
2686.565 45320744 45737388 46168180 46611348 47065268 47527688 47997080 
2689.940 48472568 48954032 49442008 49937408 50441116 50953944 51476216 
2693.315 52008188 52549944 53101772 53663748 54235540 54816956 55406756 
2696.690 56003880 56606960 57214884 57826804 58441932 59059568 59679108 
2700.066 60299500 60920244 61540192 62158932 62775104 63387476 63993952 
2703.441 64591512 65177032 65746732 66296764 66823296 67322336 67789648 
2706.816 68220952 68611848 68958480 69257616 69507496 69707144 69856512 
2710.191 69956072 70007024 70010024 69966656 69878496 69747792 69576128 
2713.567 69365120 69115360 68825944 68495600 68122800 67706080 67245696 
2716.942 66743076 66201164 65623508 65014712 64379140 63721164 63045496 
2720.317 62356944 61660092 60960236 60261852 59569908 58888780 58222812 
2723.692 57576284 56953312 56357300 55791332 55257792 54757940 54292608 
2727.068 53862388 53467672 53109560 52788672 52505856 52261156 52054356 
2730.443 51884320 51749660 51648816 51580600 51544184 51538812 51563996 
2733.818 51618328 51700280 51807524 51937644 52087824 52255664 52438440 
2737.193 52633496 52838324 53049916 53265132 53480788 53693672 53901104 
2740.569 54100228 54288588 54464264 54625848 54773168 54906472 55027708 
2743.944 55139160 55243116 55342204 55438192 55532464 55626344 55721148 
2747.319 55818200 55919076 56024876 56136432 56253076 56374424 56499052 
2750.694 56626624 56757140 56891740 57032572 57181808 57341944 57515456 
2754.070 57704552 57912016 58140676 58393336 58672544 58979632 59314360 
2757.445 59674852 60057828 60458696 60872248 61293332 61716308 62134960 
2760.820 62543072 62933868 63300332 63636528 63936748 64196832 64413532 
2764.195 64584592 64708016 64782828 64808636 64786368 64718096 64607964 
2767.571 64460540 64281696 64077428 63853332 63614704 63367188 63115104 
2770.946 62863060 62615096 62374004 62142608 61922412 61714628 61519884 
2774.321 61338512 61170140 61014036 60868704 60731264 60598368 60465588 
2777.696 60328776 60183444 60024844 59848880 59650680 59426196 59171872 
2781.072 58885136 58565828 58215348 57837740 57438148 57023280 56599788 
2784.447 56173652 55750572 55335088 54930648 54539392 54162676 53800504 
2787.822 53452272 53116972 52793460 52480844 52178908 51887904 51608288 
2791.197 51340188 51083880 50839016 50605116 50381728 50168416 49964768 
2794.573 49769984 49582676 49400500 49220220 49038008 48850052 48653060 
2797.948 48444380 48222540 47986940 47737488 47474536 47198116 46908396 
2801.323 46605188 46288328 45957484 45612460 45253412 44880692 44495632 
2804.698 44099504 43695088 43284976 42872576 42461228 42054504 41656072 
2808.073 41269376 40897736 40544592 40212276 39902808 39617152 39355700 
2811.449 39117640 38902184 38708492 38535744 38383476 38251420 38139188 
2814.824 38046264 37971980 37915648 37876164 37853676 37848328 37860692 
2818.199 37891784 37942800 38014328 38107248 38222036 38358828 38517640 
2821.574 38698604 38900840 39123480 39364912 39623212 39896084 40181092 
2824.950 40475376 40775752 41078416 41379504 41674056 41956904 42223036 
2828.325 42467368 42685112 42872100 43024412 43139196 43214328 43249028 
2831.700 43243540 43199764 43120792 43010404 42873236 42714140 42537488 
2835.075 42348420 42151504 41950812 41750104 41552076 41357636 41166964 
2838.451 40978888 40791876 40604836 40417220 40229724 40044016 39862528 
2841.826 39687792 39522564 39369444 39231212 39111184 39012652 38939876 
2845.201 38896708 38886492 38911024 38969304 39057928 39169060 39291600 
2848.576 39411928 39513020 39578492 39593704 39546412 39430836 39246372 
2851.952 38999096 38699652 38362520 38004024 37639348 37282784 36945920 
2855.327 36637000 36361844 36123332 35922024 35756240 35622824 35516880 
2858.702 35432348 35362684 35301652 35242932 35181700 35114628 35039696 
2862.077 34956304 34865096 34767232 34664800 34559844 34454944 34353052 
2865.453 34257384 34171844 34099980 34045112 34009708 33995052 34001216 
2868.828 34027052 34070808 34130912 34205328 34292020 34389308 34494836 
2872.203 34605804 34719600 34833936 34947396 35059956 35173508 35290908 
2875.578 35415884 35552228 35702748 35869440 36053120 36253484 36469324 
2878.954 36699480 36941880 37194552 37455684 37723440 37996320 38273564 
2882.329 38554572 38838336 39123696 39408484 39689500 39963000 40224528 
2885.704 40470864 40699404 40908800 41099472 41272660 41431044 41577416 
2889.079 41715304 41848528 41980884 42116236 42259116 42413624 42584852 
2892.455 42778564 43000744 43259316 43562504 43918256 44334288 44815372 
2895.830 45362640 45971292 46629752 47318624 48009328 48668664 49258408 
2899.205 49740072 50082440 50262744 50271972 50115464 49812416 49391888 
2902.580 48886688 48331816 47758380 47190800 46648940 46146180 45691004 
2905.956 45288860 44942532 44652700 44418916 44239884 44114540 44041740 
2909.331 44021244 44053112 44137204 44272648 44457016 44685752 44953040 
2912.706 45250580 45568960 45897488 46224708 46538204 46826716 47079228 
2916.081 47287220 47445520 47551868 47607692 47616600 47584620 47517820 
2919.457 47422128 47303220 47164872 47010104 46840408 46656208 46457732 
2922.832 46244984 46018632 45780904 45535036 45285036 45035180 44789252 
2926.207 44549192 44316160 44090188 43871408 43660504 43459404 43270700 
2929.582 43097736 42943276 42809312 42696704 42605428 42534568 42483332 
2932.958 42450928 42436676 42439932 42460496 42497768 42551376 42621436 
2936.333 42707672 42809496 42925940 43054928 43193580 43339340 43489652 
2939.708 43643428 43801068 43963788 44133428 44310948 44495080 44682336 
2943.083 44866144 45036760 45183216 45292944 45353224 45353884 45287096 
2946.458 45149908 44944556 44679100 44366728 44023116 43665596 43310232 
2949.834 42969028 42650388 42357876 42091044 41846924 41620884 41407860 
2953.209 41203396 41003468 40805456 40607380 40408240 40207624 40005324 
2956.584 39801044 39594428 39384612 39170904 38952848 38730552 38505004 
2959.959 38278016 38051472 37827288 37607048 37391652 37181704 36977704 
2963.335 36780400 36591148 36411960 36245524 36094528 35962408 35851772 
2966.710 35765132 35704152 35668828 35657676 35667316 35692856 35728292 
2970.085 35767252 35804636 35836624 35861164 35877756 35887148 35890640 
2973.460 35889452 35884848 35877900 35869156 35858576 35844544 35823524 
2976.836 35789160 35732464 35642928 35508464 35319012 35066744 34748392 
2980.211 34365460 33924436 33436540 32915276 32376572 31836220 31308356 
2983.586 30805396 30337018 29909432 29526560 29190266 28901654 28661648 
2986.961 28471692 28333098 28245996 28207278 28209010 28235776 28266648 
2990.337 28275310 28232702 28114016 27900942 27586560 27176028 26687270 
2993.712 26147080 25584650 25029366 24504908 24025798 23598640 23222722 
2997.087 22893126 22602556 22344412 22113372 21905452 21717174 21545618 
3000.462 21387150 21238726 21097274 20960806 20828482 20700786 20578442 
3003.838 20462074 20351706 20246786 20146018 20048258 19952462 19858596 
3007.213 19767180 19679108 19595702 19517784 19445946 19380322 19320632 
3010.588 19266282 19216338 19170106 19126718 19085548 19046392 19009212 
3013.963 18974528 18943134 18915862 18893746 18877760 18868726 18866892 
3017.339 18872464 18884680 18902640 18924514 18948394 18972140 18993704 
3020.714 19011288 19023302 19028320 19024894 19011844 18988304 18953898 
3024.089 18909286 18856234 18797342 18736244 18676156 18620124 18570254 
3027.464 18527376 18491692 18462236 18437620 18415876 18394822 18372286 
3030.840 18346120 18315014 18278208 18236048 18189644 18140896 18091632 
3034.215 18043448 17997444 17954276 17914494 17878482 17846720 17819724 
3037.590 17797974 17781750 17770670 17764698 17763558 17767390 17776574 
3040.965 17791864 17813648 17842162 17877066 17917328 17961286 18007528 
3044.341 18054190 18099404 18141656 18179520 18212068 18239192 18261412 
3047.716 18280316 18297526 18314980 18333470 18353274 18373080 18391262 
3051.091 18405988 18416014 18420610 18419850 18413768 18402670 18386250 
3054.466 18364438 18337236 18305406 18270604 18235150 18201218 18171090 
3057.842 18145868 18126038 18111530 18101546 18095606 18092532 18091320 
3061.217 18090320 18087764 18082272 18072738 18059680 18044588 18030080 
3064.592 18018890 18012984 18013468 18019892 18030840 18044656 18059854 
3067.967 18075604 18091426 18107662 18124208 18141414 18159690 18179520 
3071.343 18202012 18228274 18258994 18294450 18333712 18375570 18418226 
3074.718 18460402 18501824 18543040 18585158 18629116 18674946 18722026 
3078.093 18768522 18812462 18852532 18888072 18919670 18948708 18976640 
3081.468 19004574 19033064 19062040 19090778 19118718 19145380 19170730 
3084.844 19195144 19219006 19243284 19268360 19295240 19324094 19355308 
3088.219 19388740 19423910 19460050 19496124 19531544 19565822 19598924 
3091.594 19631336 19663576 19696272 19730076 19765550 19803384 19844100 
3094.969 19888254 19936124 19987712 20042498 20099720 20158234 20216686 
3098.344 20274142 20329590 20382056 20431162 20476764 20519176 20559230 
3101.720 20598350 20638098 20679656 20723618 20769946 20817670 20865434 
3105.095 20912232 20957886 21003056 21048996 21097412 21149452 21205464 
3108.470 21264718 21325860 21387534 21448380 21507738 21565712 21622542 
3111.845 21678616 21734242 21789458 21844194 21898342 21951872 22004954 
3115.221 22057626 22109954 22162148 22214456 22267326 22321564 22377762 
3118.596 22436236 22497158 22559802 22622906 22685322 22745828 22803720 
3121.971 22859144 22912616 22965048 23017030 23068952 23120528 23171272 
3125.346 23220974 23269458 23317318 23365532 23415220 23467504 23522836 
3128.722 23581078 23641114 23701960 23761804 23819832 23875698 23929998 
3132.097 23983988 24039140 24096962 24157700 24221282 24286346 24351524 
3135.472 24415346 24477250 24537092 24595822 24654314 24713200 24773038 
3138.847 24833590 24894464 24955242 25015994 25076930 25138190 25200162 
3142.223 25262598 25324904 25386654 25447184 25506494 25565074 25623802 
3145.598 25683698 25745570 25810020 25877116 25946894 26019394 26094616 
3148.973 26172666 26253404 26336270 26420524 26504796 26588132 26669440 
3152.348 26748088 26823858 26896786 26967398 27035980 27103548 27170772 
3155.724 27238748 27308182 27379782 27453472 27529330 27606332 27683808 
3159.099 27760942 27837382 27913310 27989284 28066046 28144804 28226408 
3162.474 28311382 28400160 28492528 28587750 28684654 28781862 28877998 
3165.849 28971990 29063030 29150968 29235770 29317756 29396458 29471450 
3169.225 29542164 29607818 29668514 29724252 29775772 29823964 29869286 
3172.600 29911808 29951142 29987034 30019094 30047640 30073206 30096716 
3175.975 30118590 30138798 30156556 30171402 30182662 30190902 30197188 
3179.350 30203156 30210828 30221202 30234842 30251468 30270366 30290864 
3182.726 30312466 30335064 30358478 30382428 30406450 30430084 30452866 
3186.101 30475186 30497578 30521110 30546490 30573934 30602766 30632170 
3189.476 30661042 30688920 30716196 30744006 30773562 30805752 30840540 
3192.851 30877038 30913862 30949442 30982782 31013954 31043280 31071752 
3196.227 31099942 31128098 31155934 31182954 31209014 31233936 31258468 
3199.602 31283218 31308714 31335458 31363272 31392158 31421580 31451002 
3202.977 31480108 31508322 31535008 31559878 31582824 31603672 31623166 
3206.352 31642054 31661048 31681220 31703104 31726986 31752828 31780388 
3209.728 31808834 31837252 31864316 31888810 31909708 31926576 31939946 
3213.103 31951468 31963236 31977576 31996120 32019128 32045844 32074098 
3216.478 32101958 32127612 32150016 32169818 32187876 32205504 32223738 
3219.853 32243188 32263816 32285620 32308538 32332808 32358828 32386926 
3223.229 32416984 32448546 32480716 32512638 32543566 32573208 32601818 
3226.604 32629854 32658004 32686584 32715696 32744818 32773472 32800664 
3229.979 32825998 32849372 32871350 32893010 32915850 32941512 32971040 
3233.354 33004750 33041860 33080940 33119988 33157394 33191908 33223632 
3236.729 33253248 33282116 33311524 33342398 33375316 33410132 33446956 
3240.105 33485536 33525694 33566784 33608276 33648876 33687364 33723100 
3243.480 33756120 33787528 33819152 33853432 33891728 33934680 33981828 
3246.855 34031496 34081988 34132132 34181024 34229384 34277676 34325976 
3250.230 34374032 34421016 34465384 34505992 34542372 34574516 34603620 
3253.606 34631068 34657912 34685648 34714688 34745372 34777392 34810204 
3256.981 34843088 34874756 34904376 34930984 34954252 34974400 34992392 
3260.356 35009200 35026156 35043792 35061892 35079960 35096988 35111968 
3263.731 35124040 35133164 35139164 35142580 35143764 35143692 35143188 
3267.107 35143440 35145128 35148828 35154432 35160540 35165680 35167692 
3270.482 35165424 35158028 35145920 35130504 35113336 35095660 35078308 
3273.857 35061496 35044796 35027952 35010672 34993360 34976304 34959892 
3277.232 34944268 34928936 34913568 34897592 34881184 34864452 34847824 
3280.608 34831744 34816200 34801300 34786868 34773084 34760272 34749288 
3283.983 34740816 34735144 34732020 34730116 34727964 34723912 34716944 
3287.358 34707184 34695520 34683680 34673232 34665160 34659812 34656044 
3290.733 34652848 34648864 34643628 34637348 34631460 34627872 34628732 
3294.109 34635232 34648400 34667632 34691896 34719496 34748748 34778468 
3297.484 34807976 34836876 34864916 34892348 34918740 34943948 34968044 
3300.859 34991532 35014948 35039660 35066888 35097956 35133488 35173616 
3304.234 35217816 35264816 35313404 35362324 35410492 35457336 35502784 
3307.610 35547192 35591352 35636348 35683284 35733072 35786396 35843028 
3310.985 35902768 35964924 36029184 36094924 36162580 36232272 36303948 
3314.360 36377084 36450840 36523888 36595040 36663784 36729984 36794284 
3317.735 36857720 36920736 36983764 37046764 37109012 37170476 37230944 
3321.111 37291160 37351712 37413212 37475552 37538296 37600544 37660852 
3324.486 37718596 37773356 37824904 37873488 37919336 37962364 38002940 
3327.861 38040984 38077008 38111516 38145120 38177756 38208904 38237596 
3331.236 38262384 38281924 38295676 38303528 38306060 38304288 38298644 
3334.612 38289304 38276132 38258436 38236076 38208940 38177464 38142336 
3337.987 38104064 38062684 38017980 37968908 37914488 37854436 37788612 
3341.362 37717336 37641700 37562824 37481548 37398368 37313224 37225092 
3344.737 37133088 37035940 36932716 36823492 36709072 36590824 36470804 
3348.113 36350676 36231624 36113644 35996028 35877648 35757104 35633432 
3351.488 35506488 35376740 35245372 35113404 34982016 34852208 34724628 
3354.863 34600496 34480308 34364740 34254372 34148868 34047656 33949904 
3358.238 33854720 33761560 33670428 33581676 33495844 33412710 33332344 
3361.614 33254072 33177170 33101142 33026020 32952092 32879856 32809884 
3364.989 32742638 32677938 32616068 32556780 32500214 32446440 32395172 
3368.364 32345622 32296758 32247112 32195366 32140810 32083336 32023408 
3371.739 31962168 31900148 31838070 31776108 31713658 31650000 31584784 
3375.115 31517264 31446728 31372320 31293224 31208516 31117346 31019364 
3378.490 30914538 30803226 30685612 30561884 30431754 30294952 30150626 
3381.865 29998430 29838088 29669542 29492584 29307758 29114862 28914402 
3385.240 28707132 28494370 28277786 28059508 27841412 27624906 27410908 
3388.615 27199592 26990882 26784032 26578164 26372498 26165734 25956954 
3391.991 25745958 25533024 25319352 25107014 24897974 24693908 24495268 
3395.366 24301448 24110588 23920964 23731460 23542110 23353818 23168302 
3398.741 22986566 22808924 22633866 22459018 22281974 22101064 21916012 
3402.116 21727972 21539038 21351442 21166916 20985772 20807798 20632294 
3405.492 20458460 20286292 20115858 19947850 19782472 19619306 19457658 
3408.867 19296728 19135788 18974770 18814158 18654954 18498020 18344426 
3412.242 18194274 18047522 17903308 17761038 17619990 17479506 17339582 
3415.617 17200428 17062628 16926800 16793496 16663022 16535029 16409036 
3418.993 16284594 16161012 16038738 15918765 15802400 15691116 15585769 
3422.368 15486044 15390838 15298124 15205842 15111865 15015335 14915979 
3425.743 14813871 14709900 14604722 14498986 14393345 14288516 14185288 
3429.118 14084377 13986433 13891418 13798990 13708599 13619218 13530881 
3432.494 13443759 13358328 13275134 13194245 13115078 13036746 12958358 
3435.869 12879235 12799716 12720689 12643519 12569091 12497473 12427809 
3439.244 12358225 12286879 12212547 12134581 12054075 11972322 11891266 
3442.619 11812337 11736145 11662384 11589961 11517551 11443724 11368005 
3445.995 11290360 11211778 11133856 11058156 10986174 10918486 10854986 
3449.370 10794689 10736574 10679248 10621793 10563939 10505922 10447914 
3452.745 10389946 10331851 10273187 10213276 10152118 10090087 10028370 
3456.120 9968086 9910488 9856050 9804431 9754648 9705550 9655948 9605065 
3459.978 9552596 9498879 9444358 9389605 9335436 9282593 9231889 9183966 
3463.835 9138653 9095410 9052678 9008597 8961341 8909761 8853859 8794752 
3467.693 8734639 8675717 8619236 8565872 8515590 8467035 8419839 8373626 
3471.550 8328365 8284222 8241232 8199057 8156988 8114449 8071240 8027900 
3475.407 7985475 7945619 7909243 7876548 7846958 7819092 7791597 7763228 
3479.265 7733275 7701605 7668351 7633954 7599188 7564628 7531621 7501583 
3483.122 7475491 7454019 7436862 7422604 7409291 7394900 7378251 7359344 
3486.980 7339394 7319984 7302765 7288479 7277090 7267251 7258020 7248754 
3490.837 7239422 7230831 7223991 7218938 7216041 7214120 7212571 7210617 
3494.695 7208663 7207618 7209404 7215198 7226316 7242724 7264050 7289422 
3498.552 7317659 7348055 7379936 7412527 7445188 7477244 7508561 7539072 
3502.409 7570090 7603369 7641339 7686023 7738402 7798176 7864232 7933876 
3506.267 8004375 8073434 8139364 8201826 8261832 8321609 8383997 8451900 
3510.124 8527517 8611801 8704315 8802935 8905466 9009239 9111718 9211988 
3513.982 9309030 9402675 9492648 9578711 9660217 9737028 9809142 9876963 
3517.839 9941506 10003686 10063670 10121085 10174606 10222469 10262839 
3521.214 10294800 10317634 10331512 10336466 10332258 10318211 10293103 
3524.590 10255545 10204728 10140009 10062008 9971883 9871709 9763053 9648326 
3528.447 9528819 9405620 9279140 9149414 9016310 8880339 8741975 8602642 
3532.304 8463758 8326675 8191731 8058413 7925102 7790214 7651962 7510078 
3536.162 7364939 7218365 7072515 6929239 6789846 6655141 6525053 6399778 
3540.019 6279582 6164830 6055552 5951440 5851417 5753666 5656374 5557560 
3543.877 5456151 5351714 5244853 5136912 5029098 4923590 4822296 4727021 
3547.734 4639436 4560273 4489092 4424015 4362362 4300851 4236304 4166950 
3551.592 4092522 4014195 3935179 3858217 3786282 3720976 3662864 3611475 
3555.449 3565905 3524716 3486203 3448462 3409154 3366677 3319764 3267982 
3559.306 3212634 3155992 3101560 3052873 3012767 2983040 2963957 2953716 
3563.164 2948712 2943774 2933200 2910516 2870890 2811224 2732694 2639710 
3567.021 2541513 2448236 2368639 2308309 2267639 2243891 2231235 2223842 
3570.879 2217248 2208256 2195301 2178184 2157272 2133031 2106161 2077295 
3574.736 2047266 2017239 1988312 1960952 1935557 1911728 1888898 1866635 
3578.594 1844906 1824176 1805311 1789041 1776132 1766817 1761394 1759597 
3582.451 1761560 1766783 1774202 1781355 1784815 1779459 1759963 1722504 
3586.308 1665590 1592122 1509290 1427238 1357134 1307081 1281027 1278069 
3590.166 1293721 1320441 1350487 1376479 1392468 1394362 1380634 1352681 
3594.023 1313927 1269595 1225732 1187356 1157986 1138651 1128818 1125762 
3597.881 1126094 1126659 1124998 1119616 1110746 1099485 1088092 1078359 
3601.738 1071948 1069856 1072247 1078824 1088955 1101943 1116826 1132140 
3605.595 1145295 1153435 1153302 1142837 1121908 1093074 1061751 1033885 
3609.453 1014455 1005090 1003363 1004127 1001138 989348 967065 936880 904838 
3613.792 878044 862041 859319 867685 881729 894412 899293 891125 867619 
3618.132 829507 781141 728200 678186 637403 609928 597220 597851 608833 
3622.472 626618 648320 673142 701649 735601 775597 819581 861245 890528 
3626.811 894313 860747 784029 670719 541084 423327 344067 316114 335976 
3631.151 388736 455765 519985 568919 597519 606345 601268 589655 578474 
3635.490 571739 570876 574526 580830 588063 595230 601965 608369 613678 
3639.830 617527 619252 618688 616896 615702 617792 626121 642347 666970 
3644.170 698463 733643 767565 795514 812410 814601 799862 768029 720766 
3648.509 660864 592376 521212 455069 402964 374410 375372 407441 466380 
3652.849 543108 623864 694315 741343 755416 734473 685188 622172 562649 
3657.188 520682 503233 508242 528411 553890 576550 590916 595097 590518 
3661.528 580465 568654 558767 553989 556411 567592 588594 619484 659702 
3665.868 706992 758138 807962 849890 876517 880700 858755 812842 753425 
3670.207 699691 670819 682633 739219 832926 946344 1056603 1140179 1175794 
3674.547 1151574 1070421 952454 827946 722757 650178 607473 583584 565933 
3678.886 546724 524165 501773 485187 478752 483462 496930 515009 534748 
3683.226 554918 577247 604188 636241 670354 700488 718210 715157 686947 
3687.566 635047 567360 496698 434969 389897 363068 351031 348610 352191 
3691.905 360548 374145 393877 419414 448700 478387 504294 523302 534283 
3696.245 537932 537136 534880 533487 533819 534449 532591 525027 509569 
3700.584 485519 455102 422730 394374 375537 370032 379285 401737 434571 
3704.924 473810 516104 558435 598879 636241 669624 697633 719040 730922 
3709.264 730955 716982 688208 645499 593206 538098 488471 452316 436163 
3713.603 442200 469000 511260 562284 613943 658574 690930 707922 709813 
3717.943 699326 681007 659569 638000 618224 600704 585110 571407 560426 
3722.282 552961 549842 550672 553392 555084 552961 545397 533487 521843 
3726.622 516369 524032 549643 593239 650709 714194 773938 820344 847135 
3730.962 852579 840263 817987 794684 775929 761026 743501 714261 667036 
3735.301 602131 528909 462300 417656 403727 420475 461039 516402 579071 
3739.641 645433 715688 790435 867851 940467 994330 1010703 973474 877114 
3743.980 736664 588196 478055 438120 473312 564606 682069 796145 881995 
3748.320 925258 922137 879405 810053 730191 652368 584679 531032 495470 
3752.660 481970 493447 529307 585375 652468 720268 779913 825091 853044 
3756.999 864996 863535 851351 829905 799929 763648 725545 693319 675133 
3761.339 676427 697766 733643 774602 809921 832063 838105 832063 821407 
3765.678 815464 819581 833889 852480 867021 869611 855634 826154 786087 
3770.018 744430 709614 687379 679547 684790 699658 720069 743003 766038 
3774.358 788576 810419 832196 853575 873097 887772 893317 885946 863635 
3778.697 828146 785224 744198 714294 701682 707656 728034 755549 782004 
3783.037 801688 812244 815066 813805 812643 813904 818087 823332 827249 
3787.376 828411 826320 822037 816361 810219 803746 796908 790435 785821 
3791.716 785456 791431 803879 820676 837209 847732 847932 836810 817855 
3796.056 799464 791862 803116 835781 885182 940666 987621 1009573 995060 
3800.395 938640 847766 741144 646329 587631 577777 614175 681870 760794 
3804.735 828478 867320 867752 831233 770552 706495 660167 643575 657545 
3809.074 693684 740281 787481 830469 869345 908225 951093 998714 1046705 
3813.414 1085733 1104867 1094569 1051986 984301 909354 849226 821407 832826 
3817.754 877347 939703 999046 1036077 1035147 990013 906166 803282 707988 
3822.093 643741 622935 643707 693684 755483 812012 851617 868582 865494 
3826.433 850256 834586 828079 835416 855601 882759 909487 929276 938541 
3830.772 938042 931933 925823 925956 936249 958431 990776 1029268 1067929 
3835.112 1099253 1115264 1109617 1078824 1024286 952886 876517 808427 758968 
3839.452 733245 730324 744828 768992 795315 818452 835250 845574 850953 
3843.791 854704 860381 870972 888270 912707 943322 978024 1015385 1054643 
3848.131 1096595 1143502 1197390 1258330 1322569 1380401 1416435 1412911 
3851.988 1352381 1227859 1049562 849724 669923 545463 491224 499683 552430 
3856.328 627979 710411 789306 859419 919547 969589 1010105 1040893 1062283 
3860.667 1074905 1079987 1079455 1074174 1063412 1045841 1020334 988286 
3864.525 955443 930970 924096 940433 977891 1026943 1071948 1096928 1089088 
3868.865 1044812 972810 892885 828976 797672 802651 834520 877048 912940 
3873.204 930970 928645 912076 893682 885780 897367 929442 976530 1028238 
3877.544 1073211 1101013 1104867 1082910 1039099 984068 931169 894778 885049 
3881.883 904838 949067 1005522 1059160 1093772 1097027 1065804 1007149 
3885.741 938541 881630 855235 867021 913172 979917 1050658 1108255 1139581 
3890.080 1138684 1108255 1058430 1003861 958265 931667 927184 943023 974006 
3894.420 1015186 1061618 1109683 1156624 1199450 1235103 1260490 1273317 
3898.277 1272852 1260623 1240951 1218921 1199051 1183635 1171807 1159747 
3902.135 1142438 1116327 1080983 1040029 999942 968626 952653 954446 972578 
3906.474 1002466 1038368 1074705 1107790 1135694 1158285 1176359 1190778 
3910.332 1202473 1212275 1220848 1229121 1238292 1248693 1260025 1270692 
3914.189 1277870 1278667 1270858 1254110 1230451 1203703 1178219 1158219 
3918.047 1145295 1139515 1139548 1144199 1152770 1165461 1182804 1204633 
3921.904 1229055 1252681 1271090 1280362 1278634 1266903 1249092 1230716 
3925.761 1217525 1213073 1218223 1231215 1248726 1266970 1282622 1293389 
3929.619 1298008 1295150 1284948 1267302 1243443 1215664 1187921 1164232 
3933.476 1148186 1141708 1144697 1154564 1167654 1180877 1192207 1201144 
3937.334 1209218 1218422 1230384 1245437 1261985 1276972 1287241 1289667 
3941.191 1283021 1268033 1247696 1225898 1207590 1196061 1193469 1199516 
3945.049 1212142 1227992 1243410 1254907 1260324 1259161 1252681 1243343 
3948.906 1234305 1228490 1227261 1230816 1238425 1247796 1257300 1265242 
3952.763 1270625 1273417 1273915 1272818 1271124 1269994 1270226 1272951 
3956.621 1279132 1288604 1301431 1316221 1331775 1346332 1358663 1367538 
3960.478 1372823 1375017 1374452 1372191 1369067 1365643 1362752 1361056 
3964.336 1361056 1363383 1367804 1374119 1381432 1388711 1394961 1399382 
3968.193 1402041 1403437 1404700 1407227 1411847 1419293 1428635 1439106 
3972.051 1448880 1456626 1461347 1463176 1462976 1462345 1462910 1466201 
3975.908 1472352 1481062 1491037 1500712 1508791 1514577 1518002 1519631 
3979.765 1520030 1520063 1519697 1519298 1518334 1516938 1515142 1513513 
3983.623 1511950 1510720 1509689 1508625 1506763 1504137 1500911 1496922 
3987.480 1493331 1490571 1489008 1488743 1489707 1491768 1494361 1497287 
3991.338 1499980 1501743 1501842 1499548 1494860 1487945 1479633 1471255 
3995.195 1464406 1459884 1458289 1459386 1462411 1466334 1470490 1474047 
3999.052 1476773 1479068 1480564 1481262 
##END=
