
##TITLE=mdmaHCL00385_6
##JCAMP-DX=5.01  $$ Nicolet v. 1
##DATATYPE=INFRARED SPECTRUM
##ORIGIN=UniL
##OWNER=Nicolet
##LONGDATE=2011/08/23
##TIME=16:10:45
##SPECTROMETER/DATA SYSTEM=Nicolet iS5
##DATA PROCESSING=
Ratio against background
%Transmittance->Absorbance
Truncated
ElementMultiply or ElementDivide
##COMMENTS=
Number of sample scans: 32
Collection length: 51.24 sec
Sample gain: 2.0
Background collected on: Mar Aout 23 16:08:52 2011 (GMT+02:00);
Number of background scans: 32
Background gain: 2.0
Sample spacing:  1.000
Number of scan points: 12415
Resolution points: 8192
Number of FFT points: 65536
Apodization: N-B fort;
Phase correction: Mertz;
Laser frequency: 15798.0 cm-1
Number of rejected sample scans: 0
Number of rejected background scans: 0
Bench serial number: ASB1000141;
##RESOLUTION=4.000
##XUNITS=1/CM
##YUNITS=ABSORBANCE
##FIRSTX=649.893372
##LASTX=4000.122314
##FIRSTY=0.062134
##MAXX=4000.122314
##MINX=649.893372
##MAXY=0.220704
##MINY=0.000040
##XFACTOR=1.000000
##YFACTOR=1.000000E-009
##NPOINTS=6950
##DELTAX=0.482117
##ZPD=6100
##XYDATA=(X++(Y..Y))
649.893 62134312 61808556 61476712 61155112 60850368 60562636 60290936 
653.268 60039448 59819444 59647180 59537340 59498352 59527456 59615368 
656.643 59750012 59924944 60139752 60399480 60705620 61052056 61420256 
660.018 61786628 62131404 62446228 62738268 63026608 63334988 63680112 
663.393 64065488 64480448 64904272 65313532 65681704 65983028 66190972 
666.767 66283444 66257240 66147992 66029900 65977512 66029900 66176116 
670.142 66374308 66570820 66717460 66784224 66758068 66649424 66482268 
673.517 66286608 66083244 65877436 65660508 65419800 65147696 64848916 
676.892 64538068 64232288 63942580 63668676 63399740 63121200 62822776 
680.267 62503120 62169792 61832700 61499424 61170560 60841716 60506380 
683.642 60162664 59814692 59470380 59136864 58816040 58502588 58186816 
687.016 57861628 57526880 57191712 56871608 56582688 56333304 56122408 
690.391 55939804 55772764 55612220 55456972 55314956 55199204 55122612 
693.766 55091500 55105720 55159176 55244324 55354772 55488484 55646116 
697.141 55829952 56040936 56278572 56542076 56832364 57152628 57508764 
700.516 57905504 58344484 58821088 59325564 59844548 60364680 60876592 
703.890 61375068 61857532 62321564 62761896 63171440 63543588 63876016 
707.265 64173596 64447896 64715020 64989620 65281496 65594220 65927684 
710.640 66283212 66668472 67099152 67595688 68177800 68851808 69603472 
714.015 70390344 71149328 71801808 72268928 72494312 72451288 72155456 
717.390 71659856 71054648 70451832 69960664 69685232 69701416 70046000 
720.765 70715032 71658288 72786184 73967008 75050776 75889688 76349968 
724.139 76352264 75884008 75010136 73856000 72585704 71367336 70324456 
727.514 69527680 68986048 68664664 68504992 68450024 68462480 68523232 
730.889 68627176 68772536 68952072 69151648 69356024 69554856 69747440 
734.264 69941704 70148360 70372496 70610272 70849040 71075016 71279984 
737.639 71466224 71645080 71831408 72034776 72255032 72482016 72701592 
741.013 72903184 73084752 73254080 73422144 73599840 73791472 73994512 
744.388 74204016 74417112 74635632 74865040 75109584 75367464 75628888 
747.763 75879552 76106936 76305808 76481968 76649104 76822352 77009448 
751.138 77208488 77409168 77599848 77774584 77937112 78098936 78273088 
754.513 78466720 78677680 78895008 79106368 79304832 79491720 79675584 
757.888 79866256 80069400 80283056 80500632 80716368 80930936 81153632 
761.262 81397864 81673544 81981888 82313448 82654040 82993280 83333320 
764.637 83689176 84086976 84552968 85103976 85745728 86473504 87278760 
768.012 88154360 89097376 90109712 91200040 92391376 93733088 95319424 
771.387 97280232 99762888 102882800 106649656 110902064 115256928 119175984 
774.762 122005656 123144768 122243864 119280368 114603216 108794128 
777.654 102565712 96557032 91199632 86722040 83132736 80299440 78017120 
781.029 76090912 74376648 72784696 71279632 69856744 68525400 67300280 
784.404 66200508 65250112 64474188 63896976 63534728 63392192 63465848 
787.779 63750908 64248344 64971880 65946004 67199672 68762240 70657136 
791.154 72902752 75518560 78528616 81961248 85840928 90171736 94918304 
794.528 99983400 105209792 110374344 115188024 119343824 122515064 124390384 
797.903 124735208 123408032 120406232 115870824 110082096 103417632 96274472 
801.278 89060688 82126696 75728720 70047360 65166368 61090536 57768624 
804.653 55116252 53040292 51449692 50274352 49463992 48982328 48802076 
808.028 48890652 49199324 49662872 50194268 50692912 51066028 51231236 
811.402 51132896 50747132 50077568 49151272 48008108 46700328 45284520 
814.777 43815840 42351484 40940948 39623612 38428580 37371248 36455884 
818.152 35679292 35035172 34517616 34122488 33848128 33693132 33655676 
821.527 33733808 33926616 34237844 34676680 35258884 36003912 36928460 
824.902 38041884 39338176 40792456 42352764 43941828 45461408 46787968 
828.277 47795924 48372220 48431156 47941460 46932316 45494340 43756176 
831.651 41869836 39986868 38225876 36673272 35374436 34336340 33537470 
835.026 32935936 32481894 32119476 31796108 31470560 31113254 30712746 
838.401 30274878 29819210 29371250 28954494 28586192 28272800 28012642 
841.776 27798878 27625506 27488382 27386876 27320992 27289872 27289872 
845.151 27316262 27364890 27434556 27527460 27648282 27801140 27986950 
848.525 28202540 28442186 28700016 28972700 29261112 29569084 29901978 
851.900 30263580 30655744 31079334 31535898 32029436 32567422 33158824 
855.275 33812384 34535120 35331160 36204068 37159400 38206372 39358964 
858.650 40634668 42050672 43623972 45368340 47294460 49409520 51713976 
862.025 54196012 56821300 59526924 62218656 64764940 67021012 68839808 
865.400 70087152 70673232 70556864 69757088 68348288 66458052 64253764 
868.774 61909228 59603544 57495144 55700204 54302032 53340428 52816512 
872.149 52698504 52927548 53425816 54092572 54816508 55483140 55975268 
875.524 56196656 56082068 55603636 54777376 53656176 52322260 50865236 
878.899 49377148 47942352 46625364 45478920 44540452 43832992 43368776 
882.274 43147356 43155736 43367752 43746060 44247916 44824812 45431572 
885.648 46031300 46596520 47116120 47596344 48062584 48552596 49112348 
889.023 49787856 50611144 51597244 52739244 54012752 55379996 56799248 
892.398 58234288 59655164 61039168 62370524 63634000 64813444 65889812 
895.773 66837244 67621936 68201880 68522608 68525248 68154888 67368152 
899.148 66149884 64518848 62532240 60274640 57851936 55380408 52963364 
902.523 50692652 48640648 46853252 45358300 44165376 43268904 42652288 
905.897 42290272 42155632 42219640 42459256 42859232 43411032 44112304 
909.272 44963296 45964072 47112720 48405448 49835128 51391504 53057628 
912.647 54806056 56599864 58391328 60127844 61765696 63275336 64652108 
916.022 65916308 67113576 68306368 69561824 70950504 72533816 74355144 
919.397 76435896 78763984 81289896 83918600 86523600 88964496 91103328 
922.771 92846352 94163288 95103456 95788632 96403232 97174504 98320792 
926.146 100043760 102494560 105743184 109766672 114421848 119454968 
929.039 124466816 128948824 132359344 134135168 133825872 131180960 
931.932 126188624 119108032 110413352 100749192 90777208 81096720 72207368 
935.306 64424568 57916332 52726600 48807300 46063828 44384600 43667392 
938.681 43812908 44714908 46251248 48248644 50479896 52689004 54586396 
942.056 55909276 56470560 56173880 55042828 53203592 50867324 48272676 
945.431 45644700 43175132 40984900 39133232 37628116 36442876 35533996 
948.806 34853536 34360656 34019488 33799740 33676696 33627036 33630508 
952.181 33671324 33737856 33823128 33924360 34041280 34174464 34324756 
955.555 34492720 34679012 34884520 35110388 35357544 35626312 35915832 
958.930 36224384 36549588 36889536 37243072 37610192 37991220 38386516 
962.305 38795364 39216160 39646448 40083764 40526840 40975720 41431516 
965.680 41895780 42369640 42853376 43346444 43848388 44359868 44882564 
969.055 45419288 45973284 46546428 47139792 47752612 48384516 49035856 
972.429 49708828 50406844 51134124 51894288 52689004 53518456 54382240 
975.804 55280632 56215548 57190692 58210196 59277596 60394876 61562300 
979.179 62780192 64050548 65377892 66770352 68237856 69789352 71432008 
982.554 73168424 74996944 76909680 78893616 80925416 82968016 84971264 
985.929 86865888 88568744 89997032 91070392 91728032 91939264 91705520 
989.304 91062384 90073552 88830600 87438640 86004920 84638040 83427264 
992.678 82439424 81718216 81280304 81122432 81227368 81572944 82136072 
996.053 82896712 83839456 84950552 86216696 87624808 89160520 90809024 
999.428 92555944 94383000 96266160 98173424 100059568 101870816 103551016 
1002.803 105045008 106311304 107326576 108088400 108616024 108947992 
1005.695 109142504 109266448 109395840 109609056 109972816 110542616 
1008.588 111356128 112430488 113768144 115360976 117197736 119266720 
1011.481 121558992 124067480 126783800 129698064 132799760 136077600 
1014.374 139522128 143123056 146861664 150703088 154587392 158419520 
1017.266 162082688 165444096 168372848 170771248 172584736 173817696 
1020.159 174531328 174845168 174925008 174950992 175119904 175610544 
1023.052 176556928 178049936 180119280 182740928 185842944 189324416 
1025.945 193072720 196963200 200876736 204696608 208300800 211577616 
1028.838 214425808 216765216 218552528 219781200 220481136 220704176 
1031.731 220518640 219999440 219216400 218239696 217130944 215931984 
1034.624 214659680 213291936 211769568 209993856 207848416 205222704 
1037.517 202020528 198184592 193698592 188584576 182898672 176725632 
1040.410 170179504 163387488 156489568 149629808 142930448 136495712 
1043.303 130403368 124700016 119414216 114560424 110143840 106166672 
1046.196 102627488 99520520 96835264 94556344 92664824 91139096 89957288 
1049.571 89097256 88534744 88243872 88195520 88356264 88693816 89177072 
1052.947 89777328 90471576 91236584 92045248 92865104 93652720 94355168 
1056.322 94918920 95289144 95418936 95276472 94843768 94122216 93132720 
1059.697 91918704 90543240 89083056 87629512 86271376 85088168 84148424 
1063.072 83498824 83167200 83164192 83484328 84108448 85002736 86123000 
1066.448 87410848 88796656 90210768 91581744 92846968 93959944 94885280 
1069.823 95600712 96093040 96354592 96382800 96180432 95757568 95131504 
1073.198 94326552 93375696 92316784 91194072 90060664 88972304 87987280 
1076.573 87162600 86542320 86156648 86016552 86114344 86425904 86915392 
1079.948 87542112 88258280 89011672 89748736 90409216 90936584 91287640 
1083.324 91440048 91404960 91228896 90996800 90816864 90808616 91097408 
1086.699 91788032 92961376 94663872 96897584 99614240 102706640 106023432 
1090.074 109360808 112483504 115169104 117213056 118468944 118869880 
1092.967 118427080 117227944 115410808 113158320 110661360 108092640 
1095.860 105606216 103309472 101262080 99480944 97941784 96589808 95345920 
1099.236 94125632 92842456 91416976 89791632 87930352 85826832 83504688 
1102.611 81016328 78437032 75848416 73337160 70980664 68837904 66954592 
1105.986 65358712 64064256 63075796 62390340 61999568 61889820 62043444 
1109.361 62438540 63047180 63839056 64779556 65828196 66942028 68070968 
1112.737 69158328 70148016 70982928 71613240 72003480 72132488 71996136 
1116.112 71604568 70981288 70158488 69173016 68067136 66882388 65655724 
1119.487 64420952 63203284 62020932 60886964 59809600 58794340 57844136 
1122.862 56958148 56130588 55349956 54601536 53869628 53143708 52422928 
1126.238 51719540 51059060 50474168 50002352 49676764 49519724 49541412 
1129.613 49737212 50090584 50573396 51150044 51780268 52417544 53016972 
1132.988 53537680 53947504 54230624 54389864 54447776 54440416 54413708 
1136.363 54416152 54486688 54653728 54929372 55307768 55765452 56264240 
1139.739 56757480 57190424 57510160 57672388 57641324 57396020 56928684 
1143.114 56242664 55350936 54272896 53035952 51671168 50214316 48704764 
1146.489 47178612 45669180 44204224 42802072 41474564 40227252 39061700 
1149.864 37977948 36976152 36057444 35223672 34476936 33818900 33250854 
1153.240 32773652 32388210 32095428 31895906 31789512 31774718 31848554 
1156.615 32007642 32248684 32569532 32969750 33449638 34009600 34649044 
1159.990 35365520 36155056 37011980 37929276 38898272 39906692 40937560 
1163.365 41969572 42975428 43924928 44788224 45535808 46142604 46588844 
1166.740 46859636 46947232 46850188 46575420 46136156 45551188 44844356 
1170.116 44038992 43158736 42226176 41261068 40282796 39310680 38362376 
1173.491 37455288 36604988 35823128 35118472 34495984 33958288 33506904 
1176.866 33143126 32869026 32687366 32600782 32611746 32721698 32932360 
1180.241 33245452 33663736 34190448 34828836 35581536 36449292 37432424 
1183.617 38531396 39748212 41087376 42555140 44157748 45899252 47777948 
1186.992 49784400 51898024 54086376 56305088 58493032 60578332 62483416 
1190.367 64126736 65440908 66380532 66929200 67102632 66945584 66524668 
1193.742 65911024 65175108 64376220 63553020 62726668 61901168 61068764 
1197.118 60215224 59326668 58393604 57412280 56384988 55317668 54216848 
1200.493 53087656 51932300 50752344 49549656 48330372 47106000 45893176 
1203.868 44712452 43585948 42532084 41564800 40691468 39912684 39224216 
1207.243 38618308 38086664 37620596 37212024 36854512 36542016 36270592 
1210.619 36038216 35845800 35696776 35596820 35553376 35573840 35664796 
1213.994 35832272 36081276 36416284 36840948 37357560 37966268 38664304 
1217.369 39446652 40306284 41236040 42230520 43286036 44400196 45571572 
1220.744 46798076 48077500 49408668 50793276 52237276 53751004 55349056 
1224.120 57046292 58855424 60784772 62835520 65000816 67262920 69593904 
1227.495 71952256 74279608 76508480 78560096 80350384 81804848 82857168 
1230.870 83459112 83586576 83241488 82457888 81298800 79863312 78276664 
1234.245 76673648 75202160 73999312 73180584 72846088 73068248 73896256 
1237.621 75361752 77477648 80239840 83622248 87577088 92026616 96856920 
1240.996 101932488 107085088 112121408 116847736 121056968 124551248 
1243.889 127168488 128783568 129334376 128827872 127339048 124999712 
1246.782 121976304 118470784 114690280 110832312 107085128 103590928 
1249.675 100437288 97646672 95169704 92894232 90660024 88304160 85680584 
1253.050 82693800 79321248 75611384 71674776 67650472 63695072 59949176 
1256.426 56512976 53449612 50775808 48470604 46484396 44752156 43204996 
1259.801 41774068 40402204 39047200 37680764 36291128 34879208 33455114 
1263.176 32033752 30631992 29266536 27951294 26698650 25518968 24419658 
1266.551 23405814 22479188 21638040 20877604 20191242 19573066 19018352 
1269.927 18524298 18089422 17711856 17388412 17114358 16883498 16690394 
1273.302 16530864 16402395 16303446 16232274 16185362 16158501 16146809 
1276.677 16146431 16155614 16174596 16204895 16247306 16301692 16366199 
1280.052 16438114 16514653 16593341 16670080 16738534 16788330 16805964 
1283.427 16775761 16685678 16530039 16313491 16049670 15759965 15469906 
1286.803 15202857 14978498 14811539 14711169 14683578 14733037 14861665 
1290.178 15069497 15353489 15708053 16123839 16588969 17090060 17609984 
1293.553 18128666 18623756 19069726 19443728 19728864 19917322 20012866 
1296.928 20030112 19991736 19922178 19845522 19782576 19748004 19753308 
1300.304 19805464 19907680 20058078 20249250 20468220 20696894 20915394 
1303.679 21106214 21254384 21350224 21388892 21368600 21290748 21159332 
1307.054 20982260 20771754 20542868 20313826 20100692 19916176 19767700 
1310.429 19657682 19585338 19550016 19552062 19593724 19677446 19804008 
1313.805 19971370 20174686 20408692 20668884 20953642 21263848 21601370 
1317.180 21967800 22362726 22784514 23231810 23704340 24204114 24733298 
1320.555 25292416 25877046 26477220 27077378 27658416 28202574 28695130 
1323.930 29127548 29499784 29821338 30112268 30400054 30720534 31111046 
1327.306 31601320 32209144 32930932 33740720 34590056 35420056 36173096 
1330.681 36800412 37275744 37596428 37782716 37869800 37902772 37930360 
1334.056 37995812 38137380 38385216 38758084 39264072 39899320 40651224 
1337.431 41499356 42420384 43393048 44397444 45416564 46436052 47441752 
1340.807 48420260 49358956 50243628 51058352 51783032 52389356 52844016 
1344.182 53109860 53149964 52937352 52457248 51710432 50710972 49484820 
1347.557 48066360 46492584 44806404 43053976 41281804 39542200 37888348 
1350.932 36368832 35030180 33907240 33021122 32380428 31981498 31812008 
1354.308 31852904 32080162 32463506 32962638 33532850 34123240 34682060 
1357.683 35167080 35544528 35794344 35909680 35895496 35767648 35550788 
1361.058 35282176 35010028 34788628 34677468 34727212 34969660 35416352 
1364.433 36057120 36868612 37819156 38875660 40002304 41153924 42277960 
1367.809 43310708 44179500 44818344 45171852 45204468 44905824 44289228 
1371.184 43390924 42262332 40974736 39613484 38267376 37031140 35985984 
1374.559 35185332 34651772 34374568 34323324 34460472 34757400 35200820 
1377.934 35794056 36554092 37506724 38683824 40116400 41831272 43840616 
1381.310 46127572 48627452 51212148 53706228 55885196 57514740 58398756 
1384.685 58385076 57403696 55479976 52757240 49487532 45986360 42594248 
1388.060 39576280 37082200 35148900 33724320 32712520 32004644 31507042 
1391.435 31143724 30855160 30599212 30343876 30067490 29760940 29426984 
1394.811 29079148 28734532 28407872 28106026 27827102 27564212 27310018 
1398.186 27061228 26820476 26595706 26396864 26232108 26104714 26012816 
1401.561 25951748 25916752 25904934 25917878 25961424 26045148 26180196 
1404.936 26375492 26635514 26958374 27336872 27761190 28221456 28710812 
1408.312 29225138 29762608 30321776 30899738 31491968 32093394 32699048 
1411.687 33305872 33912432 34516936 35116028 35704296 36274772 36822304 
1415.062 37344780 37844712 38327376 38798696 39263420 39724864 40188288 
1418.437 40665016 41171920 41730700 42357440 43053168 43804476 44587192 
1421.813 45376176 46151008 46905740 47650508 48410744 49218068 50100064 
1425.188 51073296 52139608 53291800 54519896 55817480 57177424 58586192 
1428.563 60019932 61436936 62782876 64005196 65062128 65937556 66643284 
1431.938 67216880 67709760 68173416 68655664 69195320 69827752 70596280 
1435.313 71556192 72772864 74309600 76195536 78411872 80895480 83556176 
1438.689 86292472 88989464 91526968 93757184 95515408 96655824 97057856 
1442.064 96658720 95459800 93516792 90924000 87789760 84234744 80370872 
1445.439 76292176 72088672 67845704 63662120 59669912 56016132 52840344 
1448.814 50241428 48249236 46833284 45925880 45457656 45373488 45637376 
1452.190 46225560 47108328 48242236 49578852 51063796 52653280 54321972 
1455.565 56053528 57835280 59642236 61435868 63165612 64785324 66268696 
1458.940 67604984 68794808 69845344 70768728 71580336 72293968 72918584 
1462.315 73450904 73874384 74165456 74304608 74293560 74162472 73967088 
1465.691 73766776 73599248 73472992 73367920 73249880 73079776 72821680 
1469.066 72441376 71896032 71128288 70067328 68642080 66818080 64634344 
1472.441 62223588 59772256 57458872 55393320 53599608 52047036 50692948 
1475.816 49517384 48534996 47787860 47319440 47160476 47316924 47776764 
1479.192 48524140 49552780 50871568 52500732 54460024 56756576 59377564 
1482.567 62294028 65470652 68874600 72486872 76297432 80292096 84443000 
1485.942 88682080 92884136 96875592 100423096 103257392 105119496 105780088 
1489.317 105103800 103094536 99918544 95876592 91317688 86574752 81879984 
1492.693 77348472 73015912 68859104 64841292 60951504 57216960 53709604 
1496.068 50529620 47768368 45477268 43653944 42258972 41233632 40523496 
1499.443 40090672 39910072 39965468 40242700 40724076 41386796 42203572 
1502.818 43136708 44137608 45145052 46064792 46770696 47104856 46895552 
1506.194 46025076 44496804 42453336 40104336 37630676 35134100 32645788 
1509.569 30168064 27707220 25283880 22943844 20745130 18735516 16948402 
1512.944 15391456 14051042 12901591 11913607 11059619 10313223 9652933 
1516.319 9063808 8539041 8081536 7699041 7396585 7169720 7001426 6862886 
1520.177 6723952 6563097 6381385 6204254 6068891 6001796 6005861 6061633 
1524.034 6138819 6210976 6262976 6296324 6325875 6372105 6448404 6555965 
1527.892 6685693 6825960 6970145 7119802 7282110 7464671 7668655 7886704 
1531.749 8104490 8306344 8484605 8645330 8807837 8992630 9211954 9461933 
1535.606 9727133 9986190 10219824 10415738 10567266 10674256 10738884 
1538.982 10764595 10752741 10705668 10631911 10546421 10466377 10403691 
1542.357 10358659 10319907 10268913 10190243 10077437 9938828 9793011 
1545.732 9661030 9555779 9475885 9408228 9334353 9240080 9121193 8986541 
1549.590 8853217 8739169 8652259 8587433 8529308 8460887 8371330 8260616 
1553.447 8139634 8025672 7934822 7873342 7836162 7808397 7770716 7700964 
1557.304 7576901 7381722 7113301 6796712 6482237 6225497 6058441 5980666 
1561.162 5971494 6002031 6045170 6077862 6085356 6063279 6018494 5966288 
1565.019 5924836 5907270 5916171 5943748 5975727 5999142 6006063 5996757 
1568.877 5979490 5967295 5972771 6002871 6059281 6139961 6241227 6358857 
1572.734 6486844 6617123 6737783 6836631 6904898 6944254 6970281 7010181 
1576.592 7093463 7236120 7438278 7688350 7973225 8284864 8623123 8994727 
1580.449 9409142 9874658 10394664 10966567 11582134 12229688 12892956 
1583.824 13550708 14177346 14740990 15209994 15559222 15774569 15858758 
1587.199 15831953 15732102 15607544 15512518 15503556 15627706 15921103 
1590.575 16404908 17079618 17921746 18878660 19875872 20813638 21582424 
1593.950 22084956 22241692 22011334 21397628 20449708 19252080 17902928 
1597.325 16506186 15147374 13887621 12768151 11808421 11013023 10375761 
1600.700 9883979 9521910 9274029 9129889 9083635 9134424 9283100 9529395 
1604.558 9869167 10293782 10788405 11331680 11896715 12446085 12935214 
1607.933 13317361 13545512 13583970 13414232 13037565 12477592 11775602 
1611.308 10989063 10176132 9388353 8663244 8017706 7452536 6956779 6515500 
1615.166 6114254 5744567 5408039 5114013 4875939 4704076 4600857 4559436 
1619.023 4567070 4606583 4660234 4712450 4750570 4768626 4768224 4758542 
1622.881 4752177 4760586 4789631 4837842 4899496 4967325 5036171 5103184 
1626.738 5167055 5227146 5282650 5333130 5379355 5424814 5474673 5533800 
1630.595 5605320 5688232 5777875 5865892 5942941 5999882 6029076 6026422 
1634.453 5991919 5932260 5860015 5791945 5744030 5725531 5737651 5774114 
1638.310 5825390 5879930 5927893 5963197 5985066 5998269 6011270 6032436 
1642.168 6065901 6110591 6158646 6198977 6220354 6213464 6174308 6105718 
1646.025 6018157 5926953 5849872 5802824 5795974 5832644 5909453 6017620 
1649.883 6142852 6264085 6356268 6388144 6332296 6180761 5966187 5758703 
1653.740 5625459 5595485 5652010 5758770 5880165 5992591 6084818 6153841 
1657.597 6202540 6235244 6255547 6264657 6261161 6242202 6205094 6148464 
1661.455 6073057 5981774 5881005 5779588 5687191 5613241 5563299 5537827 
1665.312 5531920 5535646 5537089 5522625 5481048 5406395 5300225 5171749 
1669.170 5036037 4909884 4806248 4731979 4687061 4666932 4663014 4663650 
1673.027 4656047 4625739 4561579 4460001 4330401 4194282 4076333 3994698 
1676.885 3952799 3941531 3944307 3945611 3936583 3917224 3895325 3881652 
1680.742 3883156 3897565 3911941 3904519 3852601 3741362 3576629 3387848 
1684.599 3218743 3103362 3049670 3044198 3064185 3090047 3108000 3111438 
1688.457 3099124 3073161 3037191 2996585 2958219 2929697 2917688 2925761 
1692.314 2951481 2985909 3013368 3016104 2978470 2896140 2781144 2662746 
1696.172 2574576 2535747 2543179 2574609 2599842 2587809 2516451 2383365 
1700.029 2212885 2050428 1937354 1892492 1906702 1957058 2018204 2070770 
1703.886 2103564 2111455 2097171 2069038 2038344 2014742 2004390 2008018 
1707.744 2023364 2046167 2072434 2099968 2128636 2159736 2195634 2237963 
1711.601 2286824 2340988 2398224 2456134 2513318 2568943 2622309 2670914 
1715.459 2709288 2730060 2726526 2697018 2648677 2597342 2562177 2556644 
1719.316 2584442 2639010 2707954 2777910 2837538 2881330 2908381 2922525 
1723.174 2929630 2935902 2945142 2958586 2975634 2994784 3013868 3030417 
1727.031 3041495 3043664 3034555 3013868 2985209 2955717 2933066 2922492 
1730.888 2922825 2924927 2912218 2864587 2766672 2616209 2433242 2254383 
1734.746 2119413 2049996 2043404 2080025 2134762 2186610 2219579 2226073 
1738.603 2206457 2168727 2124374 2085552 2061048 2053758 2062680 2084054 
1742.461 2113952 2148415 2184578 2220512 2255882 2291288 2327597 2366040 
1746.318 2406953 2449636 2492490 2533181 2569377 2599242 2621409 2635143 
1750.176 2641043 2641110 2638910 2640110 2649844 2671447 2704387 2744064 
1754.033 2782112 2807556 2811024 2786380 2734528 2664012 2588709 2522849 
1757.890 2474695 2445071 2426978 2410385 2384731 2343054 2284093 2212619 
1761.748 2137826 2070071 2017838 1985350 1972235 1975031 1988279 2005288 
1765.605 2019403 2024762 2018470 2002060 1981122 1964014 1958556 1967243 
1769.463 1986881 2007985 2019635 2012079 1983286 1939717 1896153 1869264 
1773.320 1869297 1897684 1947938 2010182 2075431 2138891 2199231 2257480 
1777.177 2314105 2368040 2415916 2454034 2480059 2494956 2503087 2510819 
1781.035 2523449 2543280 2567843 2592242 2611175 2621209 2622242 2617142 
1784.892 2611009 2608308 2611942 2622576 2639610 2662079 2688583 2717256 
1788.750 2744798 2766105 2774308 2762637 2726526 2666513 2589242 2507053 
1792.607 2432709 2376102 2340389 2322000 2313906 2308509 2300448 2286192 
1796.465 2265674 2239395 2208922 2175420 2140223 2104530 2069937 2038111 
1800.322 2010415 1987879 1970571 1958422 1951133 1948870 1952132 1961118 
1804.179 1974931 1991374 2007785 2021500 2030488 2035215 2037345 2039276 
1808.037 2043437 2050462 2060116 2071069 2082089 2093143 2105295 2120378 
1811.894 2140157 2165231 2194569 2227039 2260778 2294819 2328529 2362376 
1815.752 2396691 2431476 2466497 2500954 2534347 2566210 2596042 2623675 
1819.609 2648777 2670813 2689350 2703720 2713622 2717823 2715123 2703486 
1823.467 2681915 2650978 2614175 2577809 2549512 2534847 2535614 2548045 
1827.324 2564510 2575176 2571543 2550445 2515317 2476061 2445004 2433042 
1831.181 2444638 2477460 2524249 2576976 2629442 2678281 2723625 2767039 
1835.039 2810858 2855981 2903045 2952348 3005060 3063551 3131228 3210765 
1838.896 3303337 3407885 3521409 3639307 3756769 3869650 3974133 4067370 
1842.754 4148417 4219174 4285056 4354698 4437940 4541321 4666095 4807588 
1846.611 4956533 5101943 5233518 5345340 5435517 5506047 5560379 5601863 
1850.469 5630796 5645532 5642712 5619887 5577059 5516819 5443032 5359395 
1854.326 5268027 5168865 5061078 4944334 4820151 4691784 4563621 4438644 
1858.183 4317952 4200672 4084963 3970087 3858150 3752892 3659322 3580872 
1862.041 3518203 3468434 3427655 3392490 3361101 3334088 3312519 3296727 
1865.898 3284174 3270319 3250055 3220512 3183094 3144344 3113106 3097722 
1869.756 3101793 3123752 3157127 3194609 3230159 3260671 3285142 3304406 
1873.613 3318996 3328579 3332619 3330716 3323170 3311250 3296026 3277931 
1877.470 3255396 3225786 3186498 3136601 3077766 3013968 2950213 2890670 
1881.328 2836837 2787714 2740463 2692917 2644410 2597142 2554345 2519750 
1885.185 2494956 2479260 2469496 2461698 2452902 2441539 2428178 2414083 
1889.043 2401456 2393060 2390894 2397325 2413984 2441106 2476994 2517584 
1892.900 2557544 2591375 2615575 2630376 2639743 2649644 2665946 2691517 
1896.758 2726292 2766472 2807756 2847410 2884932 2921958 2960488 3001390 
1900.615 3043030 3083206 3119247 3151153 3180924 3212701 3249855 3293221 
1904.472 3340232 3385678 3423848 3450365 3464794 3469403 3468167 3464493 
1908.330 3459984 3454373 3446625 3435704 3421844 3406282 3389852 3372921 
1912.187 3354756 3334522 3312619 3291118 3273390 3261906 3256331 3252125 
1916.045 3241843 3216873 3171912 3107934 3032953 2959187 2897807 2855181 
1919.902 2830067 2816127 2804821 2789181 2767006 2739596 2710788 2683716 
1923.760 2659079 2635209 2609842 2582509 2555345 2532014 2516551 2509552 
1927.617 2508719 2508719 2504853 2494756 2480126 2465464 2454901 2450236 
1931.474 2449036 2445937 2435941 2417282 2393593 2371937 2359278 2359877 
1935.332 2372604 2391427 2408819 2419048 2421414 2418748 2415916 2415649 
1939.189 2417382 2417182 2410285 2394159 2370138 2344453 2324465 2315438 
1943.047 2318369 2329262 2343087 2354880 2364242 2373437 2385630 2402888 
1946.904 2423579 2443205 2457500 2464398 2465831 2466630 2472529 2486558 
1950.761 2507453 2530248 2549612 2561344 2566210 2567243 2568077 2570910 
1954.619 2573543 2572110 2562510 2544146 2520683 2499255 2486358 2485225 
1958.476 2493089 2501987 2503687 2492290 2468230 2436941 2406021 2381499 
1962.334 2365408 2355080 2346485 2336724 2325998 2317470 2314638 2319602 
1966.191 2330995 2346052 2361443 2377135 2394792 2417649 2446071 2476061 
1970.049 2499554 2507852 2495356 2463998 2422147 2383131 2358212 2353747 
1973.906 2369072 2398624 2436907 2482592 2539580 2613908 2708921 2820262 
1977.763 2934467 3033020 3100625 3129226 3120949 3085542 3036957 2987277 
1981.621 2943307 2908181 2881864 2864820 2858483 2864753 2884065 2912918 
1985.478 2945175 2973499 2992348 3000789 3002925 3004793 3012033 3026280 
1989.336 3045065 3064485 3081204 3096020 3113106 3137769 3173381 3217975 
1993.193 3264510 3304372 3331784 3346642 3354356 3363805 3382438 3411925 
1997.051 3447493 3480124 3500900 3504942 3494420 3475114 3455074 3438876 
2000.908 3426286 3412026 3389084 3353120 3304005 3246449 3187166 3132596 
2004.765 3086810 3050771 3024311 3007562 3002090 3009097 3028048 3054242 
2008.623 3079335 3094185 3092283 3071760 3037291 2996652 2958086 2926928 
2012.480 2904345 2887134 2872558 2858149 2845008 2835003 2830367 2831635 
2016.338 2837604 2846476 2859583 2880997 2917688 2974633 3053541 3149417 
2020.195 3251891 3348579 3429492 3490078 3531531 3558690 3576228 3586351 
2024.052 3588556 3581039 3563500 3538746 3511889 3488207 3470238 3456177 
2027.910 3440713 3417937 3385444 3345708 3305941 3274826 3258334 3258668 
2031.767 3272522 3295425 3324572 3361334 3409855 3474847 3556050 3648028 
2035.625 3741797 3826025 3893654 3943672 3980687 4011619 4041985 4073959 
2039.482 4105667 4133531 4155007 4170897 4184981 4202111 4224527 4250357 
2043.340 4274181 4288771 4288871 4273546 4246175 4213653 4183777 4162400 
2047.197 4153167 4157014 4172603 4196958 4225497 4251629 4267924 4266853 
2051.054 4244803 4202914 4148483 4092990 4049142 4026568 4027939 4048574 
2054.912 4078575 4107440 4127075 4135839 4136608 4135002 4135270 4139184 
2058.769 4145038 4150658 4154304 4157683 4163604 4175447 4193947 4216698 
2062.627 4238580 4254807 4263173 4265950 4268359 4276390 4293623 4319223 
2066.484 4348573 4375114 4393757 4402292 4402125 4396066 4386225 4372838 
2070.342 4354363 4328694 4295598 4257886 4220546 4189331 4167920 4156546 
2074.199 4151896 4149454 4145306 4137846 4128714 4120820 4116170 4115200 
2078.056 4115434 4113260 4106202 4093726 4077738 4061550 4047972 4038340 
2081.914 4031751 4026334 4020348 4013459 4006469 4001019 3998009 3996972 
2085.771 3995902 3993026 3986205 3975905 3963533 3951328 3940228 3930531 
2089.629 3920902 3909869 3896696 3881718 3866440 3852233 3840065 3829903 
2093.486 3820911 3813323 3807975 3807473 3813757 3827763 3847419 3868480 
2097.344 3885463 3894189 3893620 3886566 3878175 3874029 3878041 3891180 
2101.201 3911741 3936750 3963901 3992391 4022622 4055129 4089645 4123997 
2105.058 4155475 4181368 4201140 4216096 4229278 4243431 4260496 4279870 
2108.916 4300416 4320294 4340173 4361760 4388267 4422208 4463817 4510586 
2112.773 4557795 4600389 4635216 4661841 4681937 4698918 4715900 4734457 
2116.631 4754924 4776264 4798207 4820252 4842901 4866088 4889175 4910253 
2120.488 4927478 4939341 4946043 4949026 4950735 4952646 4955327 4957271 
2124.345 4956366 4951238 4941854 4930025 4917726 4905695 4892727 4874297 
2128.203 4845046 4800385 4738979 4663650 4580464 4497161 4421471 4358513 
2132.060 4310757 4278431 4260295 4254908 4259224 4269530 4280071 4284220 
2135.918 4276189 4252967 4215794 4169826 4122325 4079946 4046467 4021317 
2139.775 4001487 3982827 3962931 3942234 3923777 3910705 3904620 3905155 
2143.633 3908966 3913079 3914650 3913279 3910170 3906024 3900507 3891782 
2147.490 3876704 3853637 3822683 3786115 3746743 3707475 3668311 3628348 
2151.347 3585416 3539548 3492316 3447226 3406549 3369549 3330816 3283205 
2155.205 3221180 3146847 3072060 3017672 3010198 3070592 3206826 3409421 
2159.062 3653074 3906191 4137478 4327188 4466562 4556489 4604641 4621318 
2162.920 4617969 4605512 4593557 4590443 4599585 4619610 4643287 4662009 
2166.777 4666899 4654674 4627480 4592988 4560608 4537270 4525116 4520597 
2170.635 4518253 4511992 4499906 4483769 4467901 4457088 4453071 4454443 
2174.492 4457791 4459030 4456452 4450427 4441924 4431580 4417488 4397003 
2178.349 4367315 4329363 4288370 4252699 4230683 4228475 4245539 4276524 
2182.207 4312463 4345728 4372034 4392351 4409789 4428300 4447949 4467767 
2186.064 4483535 4493311 4497629 4501212 4509749 4528130 4557327 4594595 
2189.922 4635484 4675071 4712082 4747789 4785878 4829264 4877581 4927209 
2193.779 4972118 5007043 5029098 5038920 5039925 5035903 5029668 5020852 
2197.636 5008283 4990719 4968297 4944737 4924529 4911962 4909482 4916017 
2201.494 4928684 4943195 4956500 4967694 4977280 4987033 4998127 5011299 
2205.351 5026785 5044451 5065402 5089572 5116997 5145361 5170509 5187174 
2209.209 5191499 5182245 5161992 5137348 5115924 5104525 5106436 5120819 
2213.066 5144187 5172218 5200922 5228889 5255350 5281074 5305256 5326623 
2216.924 5342623 5352217 5354766 5351647 5345575 5338732 5332560 5327998 
2220.781 5324543 5322531 5322598 5325684 5332459 5342321 5352820 5360033 
2224.638 5360570 5352149 5334539 5309416 5279967 5248676 5216985 5185128 
2228.496 5152905 5120450 5089069 5060709 5037680 5021322 5011970 5008316 
2232.353 5009020 5013445 5021757 5034730 5053065 5075760 5100300 5123702 
2236.211 5142612 5155554 5163199 5167759 5172084 5178187 5186570 5196160 
2240.068 5205516 5213900 5221411 5229560 5239822 5253237 5269033 5285904 
2243.926 5302271 5317365 5331855 5347084 5364427 5384153 5404852 5423908 
2247.783 5438369 5447025 5450045 5450011 5449743 5452293 5459272 5470613 
2251.640 5485343 5502088 5519470 5536686 5553164 5567763 5578838 5585047 
2255.498 5585416 5580214 5570817 5559876 5549640 5541317 5535176 5530410 
2259.355 5526249 5522491 5520007 5520242 5524571 5533397 5546217 5561386 
2263.213 5577898 5594814 5612436 5631669 5652917 5675878 5698773 5719487 
2267.070 5735636 5746280 5751585 5753398 5753498 5753868 5755110 5757225 
2270.927 5759844 5762430 5764881 5767768 5771328 5776096 5781770 5788285 
2274.785 5795168 5802824 5811421 5821226 5831805 5842484 5852223 5860484 
2278.642 5867369 5874523 5883658 5896824 5914894 5937399 5963029 5989971 
2282.500 6016914 6043490 6070067 6097385 6125007 6151690 6175383 6193801 
2286.357 6206035 6212455 6215245 6217228 6221026 6227782 6237597 6249598 
2290.215 6262472 6276389 6291886 6310477 6333372 6360707 6391607 6423855 
2294.072 6455332 6484322 6510287 6533327 6554350 6573895 6592161 6608612 
2297.929 6622473 6632969 6639597 6642289 6641078 6635997 6627216 6615206 
2301.787 6600773 6585265 6570228 6557075 6546143 6537229 6529224 6520815 
2305.644 6511532 6501744 6492831 6486441 6483919 6485600 6490511 6496665 
2309.502 6502148 6505040 6504636 6500970 6494345 6485466 6475040 6463941 
2313.359 6453449 6445108 6440670 6441510 6447967 6458829 6472046 6484894 
2317.217 6494378 6498717 6497338 6490780 6480219 6467439 6453953 6441241 
2321.074 6430547 6422409 6416894 6412456 6406840 6396887 6379435 6352839 
2324.931 6317234 6275279 6230606 6187785 6150110 6119664 6096175 6078097 
2328.789 6063649 6051688 6042146 6035628 6032906 6034217 6038652 6045102 
2332.646 6052326 6060323 6069832 6082466 6099233 6120370 6144498 6169401 
2336.504 6192692 6212590 6228622 6241563 6252589 6262673 6272388 6281465 
2340.361 6290138 6298375 6306779 6315856 6325673 6335120 6342517 6347224 
2344.219 6349611 6353881 6366860 6396348 6449918 6531209 6639261 6768778 
2348.076 6911732 7058606 7199635 7326993 7434435 7517900 7575923 7610046 
2351.933 7624141 7623500 7613958 7600941 7588466 7578856 7573664 7573731 
2355.791 7579834 7592782 7613283 7641440 7676951 7718671 7765657 7817506 
2359.648 7873949 7935766 8003397 8077181 8156042 8238430 8321779 8403657 
2363.506 8482409 8557119 8627483 8693396 8754416 8810170 8859337 8901373 
2367.363 8935703 8962627 8982110 8994491 9000174 8999159 8992326 8981366 
2371.220 8968816 8958365 8953291 8957147 8972402 9000681 9043306 9101060 
2375.078 9174727 9265059 9372338 9496272 9635486 9788503 9953203 10128105 
2378.935 10311900 10503648 10702442 10906696 11114547 11323450 11530855 
2382.311 11734477 11932780 12124121 12306922 12479126 12638061 12780027 
2385.686 12902103 13001442 13076934 13128363 13156845 13164189 13152406 
2389.061 13123411 13079735 13023532 12957437 12884149 12805619 12722873 
2392.436 12636322 12545559 12450381 12351475 12250785 12151311 12056493 
2395.812 11969461 11892356 11825888 11769848 11723992 11688183 11663439 
2399.187 11651424 11654180 11673206 11709287 11762153 11830689 11913538 
2402.562 12009007 12115637 12232143 12357611 12491096 12632160 12780708 
2405.937 12937057 13101691 13275100 13457395 13648760 13848931 14058161 
2409.313 14276634 14505289 14744383 14993384 15250316 15511419 15771855 
2412.688 16025845 16267911 16493417 16698245 16879158 17033544 17159166 
2416.063 17254554 17319684 17356204 17367550 17358064 17332686 17295618 
2419.438 17249520 17195876 17134658 17065350 16987198 16900032 16804070 
2422.813 16700173 16589794 16475452 16360693 16249817 16148390 16061774 
2426.189 15994389 15949426 15928390 15931139 15956713 16004117 16072741 
2429.564 16162353 16272726 16403427 16552722 16719008 16900102 17094404 
2432.939 17301168 17520488 17752788 17998548 18257610 18529934 18814606 
2436.314 19111620 19421656 19745506 20084556 20439704 20811484 21200246 
2439.690 21606558 22031028 22475000 22940176 23427566 23938086 24471360 
2443.065 25026384 25601800 26196384 26808704 27437132 28079480 28733008 
2446.440 29394472 30060744 30729638 31399708 32070636 32741566 33411026 
2449.815 34076396 34733208 35376848 36003116 36608304 37190440 37747800 
2453.191 38277836 38777392 39241584 39663940 40038276 40357876 40616732 
2456.566 40809968 40932428 40979836 40948304 40835084 40638308 40358096 
2459.941 39995188 39551784 39029944 38432776 37763672 37026916 36228668 
2463.316 35376092 34477616 33542800 32580924 31600784 30611834 29622502 
2466.692 28641792 27679074 26743120 25842652 24985074 24176020 23419418 
2470.067 22717406 22071012 21480408 20945438 20464850 20036216 19655810 
2473.442 19317860 19015442 18741466 18489480 18254362 18032532 17822002 
2476.817 17621268 17429766 17246658 17071624 16904512 16746109 16597161 
2480.193 16458452 16330039 16210880 16099045 15992189 15888108 15785873 
2483.568 15685484 15588207 15495761 15410028 15332413 15264113 15205464 
2486.943 15156638 15117216 15086375 15062911 15044902 15030495 15018284 
2490.318 15007549 14998425 14991429 14987724 14987999 14992732 15001752 
2493.694 15014957 15032176 15053546 15079068 15108880 15141816 15176642 
2497.069 15211642 15244997 15275850 15304028 15329804 15353832 15376316 
2500.444 15397189 15415967 15432378 15446455 15459022 15471313 15484567 
2503.819 15499263 15515505 15532538 15549571 15565919 15581923 15598064 
2507.195 15614998 15632927 15651269 15668616 15683010 15692594 15695823 
2510.570 15691563 15679162 15657900 15627328 15586868 15536385 15476326 
2513.945 15407557 15331659 15250042 15164392 15075912 14985426 14894548 
2517.320 14804752 14718092 14636660 14562335 14495697 14436604 14383960 
2520.696 14336355 14292591 14252152 14215210 14182378 14154376 14131886 
2524.071 14114805 14103237 14096870 14095775 14099780 14108302 14121103 
2527.446 14137123 14155710 14176387 14199495 14225515 14255131 14288756 
2530.821 14326150 14366116 14407764 14449930 14492511 14535952 14581215 
2534.197 14629086 14679842 14733140 14788262 14844555 14902228 14961761 
2537.572 15024356 15090972 15161784 15235834 15311819 15388091 15463484 
2540.947 15537757 15611392 15685586 15760928 15837623 15915329 15992912 
2544.322 16069716 16145123 16219342 16292574 16365098 16436875 16507702 
2547.698 16576989 16644085 16708678 16770491 16829350 16885084 16937170 
2551.073 16985992 17031200 17073554 17113774 17152616 17190672 17227662 
2554.448 17263172 17296444 17326892 17354236 17378448 17399760 17417834 
2557.823 17431732 17440252 17441804 17434870 17418834 17393966 17360446 
2561.198 17318996 17270206 17214044 17150790 17081170 17006356 16929006 
2564.574 16852290 16779274 16712500 16653381 16601913 16557300 16518371 
2567.949 16484091 16453840 16427893 16406558 16390594 16380202 16375661 
2571.324 16376693 16383264 16394654 16410654 16430784 16455045 16483266 
2574.699 16515721 16552446 16593823 16639575 16688913 16740978 16794702 
2578.075 16849122 16903892 16959014 17015040 17072690 17132178 17193672 
2581.450 17257070 17322374 17389724 17459670 17532734 17609260 17688870 
2584.825 17770670 17853382 17935662 18017026 18097298 18177482 18258474 
2588.200 18340694 18423966 18507252 18589032 18668200 18743818 18816026 
2591.576 18885408 18952964 19019044 19084164 19148012 19210728 19272204 
2594.951 19333066 19394180 19456584 19520974 19588180 19658688 19733024 
2598.326 19811880 19895918 19985942 20082160 20184510 20292126 20404212 
2601.701 20519872 20638586 20760562 20886050 21015714 21149834 21288556 
2605.077 21431428 21577794 21727032 21878270 22030888 22184048 22336946 
2608.452 22488608 22638090 22784340 22926308 23063080 23193744 23316758 
2611.827 23430784 23534098 23625088 23702102 23764146 23810382 23840622 
2615.202 23855046 23854556 23840100 23813322 23776290 23731214 23680442 
2618.578 23626348 23570654 23515176 23460964 23408996 23359588 23313052 
2621.953 23269458 23228524 23190286 23154812 23122520 23094040 23070802 
2625.328 23053856 23044702 23044318 23053472 23072620 23101378 23139258 
2628.703 23185742 23239744 23300152 23365812 23435678 23508774 23584998 
2632.079 23664382 23747768 23836040 23929718 24028774 24132968 24240830 
2635.454 24351174 24462842 24575378 24688718 24803244 24919344 25037196 
2638.829 25156552 25276856 25397650 25518090 25637544 25755520 25871910 
2642.204 25986292 26098450 26208316 26315958 26421652 26525822 26629102 
2645.580 26732054 26835206 26939194 27044266 27151266 27260446 27372336 
2648.955 27487042 27604602 27724880 27847946 27974228 28104610 28240126 
2652.330 28381944 28530636 28686672 28849598 29018890 29193812 29373980 
2655.705 29559258 29749726 29945426 30146114 30351090 30559572 30770610 
2659.081 30983530 31198156 31414598 31632784 31852514 32073274 32294116 
2662.456 32513782 32731526 32946662 33159290 33369768 33578776 33787204 
2665.831 33995840 34205796 34417824 34632576 34850736 35072452 35297772 
2669.206 35526480 35758544 35994084 36233420 36476788 36724212 36975180 
2672.582 37228196 37481152 37731612 37977336 38216828 38448852 38673248 
2675.957 38890224 39099912 39302988 39499956 39691788 39879924 40066180 
2679.332 40252992 40442640 40637036 40838396 41048624 41270000 41504860 
2682.707 41755760 42024684 42313244 42622024 42950448 43297528 43661636 
2686.083 44041044 44434732 44841452 45260100 45689384 46128124 46575088 
2689.458 47029824 47492168 47962664 48442192 48931228 49429756 49937444 
2692.833 50453248 50976412 51506392 52043636 52588724 53142436 53705480 
2696.208 54277664 54858536 55446508 56040184 56638100 57239036 57841752 
2699.583 58445456 59049548 59653260 60256484 60858832 61459572 62057816 
2702.959 62651224 63237244 63812116 64371840 64912088 65428780 65917352 
2706.334 66373652 66793232 67172248 67506888 67794528 68033648 68223928 
2709.709 68365896 68460688 68509608 68513680 68473992 68391568 68267432 
2713.084 68102408 67897032 67651408 67364864 67036748 66666268 66253572 
2716.460 65799744 65306992 64778404 64217464 63627668 63012512 62375304 
2719.835 61719520 61048928 60368068 59681544 58994472 58312008 57639620 
2723.210 56981984 56343828 55729628 55143000 54587068 54064236 53575692 
2726.585 53122404 52704640 52322712 51976820 51667100 51393744 51156604 
2729.961 50955248 50788880 50656380 50557172 50489908 50453884 50448188 
2733.336 50471412 50522068 50598340 50698460 50820612 50963516 51125516 
2736.711 51305096 51500240 51707744 51923716 52143940 52363792 52578928 
2740.086 52786128 52982420 53165732 53335032 53489672 53630008 53757416 
2743.462 53873904 53981984 54084576 54184148 54282508 54381224 54480944 
2746.837 54582488 54686456 54793388 54903540 55016652 55132388 55249552 
2750.212 55367796 55487020 55608308 55733504 55865564 56007196 56161360 
2753.587 56330476 56516940 56723160 56951688 57204752 57484100 57790540 
2756.963 58123064 58478700 58853756 59243680 59643796 60049876 60457516 
2760.338 60862224 61258836 61641076 62002320 62336020 62635912 62897140 
2763.713 63116176 63290484 63418492 63499480 63532844 63519268 63460060 
2767.088 63358412 63217924 63043884 62842032 62618808 62380124 62132284 
2770.464 61880916 61631032 61386936 61151600 60926840 60713664 60512208 
2773.839 60321960 60142684 59974092 59815948 59667860 59528788 59396488 
2777.214 59268252 59139708 59005820 58860812 58698408 58512292 58297420 
2780.589 58049888 57768016 57452408 57105996 56734032 56342508 55937844 
2783.965 55526628 55113920 54704612 54302444 53910328 53530788 53164832 
2787.340 52813180 52475196 52149728 51835224 51530608 51235412 50950028 
2790.715 50675372 50412908 50163620 49928156 49705968 49496256 49297376 
2794.090 49107416 48923844 48744536 48566976 48388520 48206432 48018580 
2797.466 47822888 47617748 47402136 47175288 46936564 46685536 46421524 
2800.841 46143968 45852412 45546256 45225428 44889804 44539828 44176236 
2804.216 43800300 43413776 43019108 42619280 42217484 41817156 41421636 
2807.591 41034164 40657556 40294688 39947924 39619332 39310572 39023272 
2810.967 38758120 38515684 38296180 38099760 37926240 37775344 37646832 
2814.342 37539596 37452508 37384032 37332432 37296360 37275204 37269176 
2817.717 37279136 37306724 37353880 37422132 37512720 37626632 37763488 
2821.092 37923416 38105656 38309356 38533388 38775872 39035020 39308320 
2824.468 39592864 39885556 40182800 40480936 40775680 41062392 41336536 
2827.843 41593204 41827880 42036216 42214232 42358608 42466892 42537564 
2831.218 42569944 42564860 42524260 42450816 42348016 42219676 42069984 
2834.593 41903116 41723184 41533916 41339272 41142012 40944444 40747948 
2837.969 40553072 40359952 40168440 39978836 39791856 39608436 39430108 
2841.344 39258052 39093748 38938276 38793372 38661044 38544652 38447948 
2844.719 38375732 38332408 38321260 38343808 38399148 38482736 38586692 
2848.094 38700196 38809856 38899792 38954952 38961036 38906712 38785832 
2851.469 38597156 38345800 38041200 37697348 37330372 36956272 36590536 
2854.845 36246892 35934656 35661200 35429728 35240560 35090736 34975336 
2858.220 34888328 34822084 34769388 34723768 34679584 34632468 34579540 
2861.595 34519052 34450140 34373460 34290048 34201564 34110408 34019348 
2864.970 33931060 33848848 33776284 33716260 33672184 33646620 33641536 
2868.346 33657612 33694420 33750352 33823060 33909492 34006732 34111416 
2871.721 34221100 34332936 34445404 34556900 34667524 34777932 34890696 
2875.096 35008736 35135640 35274772 35428432 35598116 35783984 35985264 
2878.471 36201260 36430948 36673412 36927884 37193004 37466956 37747332 
2881.847 38031760 38317280 38601648 38883156 39160100 39431124 39694256 
2885.222 39947268 40187452 40411696 40618044 40805308 40973644 41125400 
2888.597 41263912 41393576 41519224 41645536 41777208 41918592 42073704 
2891.972 42247688 42446140 42675392 42943168 43257920 43627420 44058904 
2895.348 44557048 45122520 45750128 46427832 47135104 47842128 48513988 
2898.723 49110868 49592928 49927856 50093036 50080024 49895556 49560284 
2902.098 49105264 48564196 47973284 47364444 46762316 46187340 45653020 
2905.473 45168620 44740328 44371276 44062900 43814888 43625624 43492988 
2908.849 43414764 43389060 43414876 43491520 43618076 43792380 44010684 
2912.224 44267360 44554624 44862468 45180348 45495956 45796956 46071752 
2915.599 46309856 46502688 46645100 46734976 46773684 46764716 46713908 
2918.974 46627208 46510288 46368248 46204628 46022240 45823100 45609076 
2922.350 45382096 45144612 44899616 44650348 44400308 44152720 43909860 
2925.725 43673288 43443728 43221248 43005720 42797612 42597940 42408656 
2929.100 42232496 42072392 41931216 41811060 41713336 41638096 41584820 
2932.475 41552188 41538440 41541792 41560464 41592984 41638496 41696632 
2935.851 41767176 41850576 41946836 42055456 42175712 42306228 42445520 
2939.226 42592380 42745912 42905860 43072232 43244856 43422784 43603456 
2942.601 43783036 43955320 44112008 44243696 44339500 44388124 44380376 
2945.976 44308824 44170476 43967456 43707108 43401876 43066084 42716040 
2949.352 42366680 42029500 41712604 41419852 41151772 40906252 40679936 
2952.727 40468680 40268256 40074868 39885264 39696468 39506164 39312968 
2956.102 39115684 38913816 38707188 38495880 38280008 38060512 37838384 
2959.477 37614816 37391508 37169936 36951328 36736836 36526952 36322500 
2962.853 36124232 35933684 35752680 35583944 35430232 35294212 35178504 
2966.228 35084812 35014084 34966716 34942188 34939244 34955368 34987440 
2969.603 35030968 35080824 35131872 35179044 35218208 35246888 35263848 
2972.978 35269776 35266796 35257916 35246488 35235132 35224820 35214112 
2976.354 35198592 35170352 35119224 35033408 34900536 34710632 34456632 
2979.729 34135892 33750892 33309128 32822534 32305144 31773292 31243158 
2983.104 30728536 30241378 29790570 29381318 29016480 28697114 28423506 
2986.479 28196422 28017132 27887374 27807674 27775884 27784608 27819190 
2989.854 27859004 27877694 27845686 27737348 27533780 27227108 26822376 
2993.230 26337396 25800000 25239946 24687910 24168558 23697132 23280820 
2996.605 22919008 22606222 22334226 22095032 21881930 21689306 21513170 
2999.980 21350328 21198018 21054110 20917376 20786666 20661796 20542522 
3003.355 20428384 20318580 20212036 20107876 20005476 19905250 19808446 
3006.731 19716416 19630746 19552548 19481848 19417984 19360090 19307156 
3010.106 19258454 19213324 19171492 19132570 19095970 19061210 19027836 
3013.481 18996024 18966290 18939674 18917454 18900738 18890596 18887586 
3016.856 18891740 18902780 18920084 18942650 18968886 18997028 19024618 
3020.232 19049196 19068514 19080632 19084234 19078554 19063598 19039260 
3023.607 19006304 18965772 18919184 18868624 18816580 18765788 18718704 
3026.982 18677124 18641844 18612758 18588894 18568698 18550370 18531974 
3030.357 18512126 18489548 18463376 18433126 18398694 18360464 18318884 
3033.733 18274924 18229724 18184322 18140306 18098992 18061684 18029494 
3037.108 18003452 17983732 17970748 17964360 17964498 17971300 17984976 
3040.483 18005490 18032912 18066658 18105382 18147390 18190748 18233768 
3043.858 18275028 18313908 18350442 18384558 18416360 18446126 18473818 
3047.234 18499540 18523884 18547640 18571464 18596054 18621196 18646272 
3050.609 18669792 18690302 18706424 18717458 18722854 18722890 18717596 
3053.984 18707254 18691930 18672282 18649212 18624310 18599512 18576652 
3057.359 18557148 18541692 18529934 18521290 18514790 18509568 18505108 
3060.735 18501166 18497086 18492348 18486194 18478000 18467732 18456048 
3064.110 18444672 18435512 18430566 18430948 18436998 18448268 18463548 
3067.485 18481838 18502410 18524954 18549784 18576860 18606254 18637554 
3070.860 18670276 18703968 18738388 18773884 18811112 18850456 18892570 
3074.236 18937424 18984220 19032232 19080320 19127584 19173290 19217168 
3077.611 19259320 19300192 19340134 19379698 19418988 19458248 19497094 
3080.986 19535286 19572616 19608908 19644024 19678416 19711944 19744500 
3084.361 19775884 19805950 19834182 19860748 19886206 19911494 19937512 
3087.737 19965370 19995658 20028792 20064428 20102358 20142164 20183676 
3091.112 20226582 20270876 20316152 20361810 20407684 20453562 20499586 
3094.487 20546550 20595396 20646576 20700750 20757400 20815584 20874162 
3097.862 20931320 20986154 21037658 21085690 21130250 21171890 21211900 
3101.238 21251392 21291966 21335188 21382000 21432890 21487196 21543670 
3104.613 21600882 21657264 21712332 21766186 21819700 21874056 21930124 
3107.988 21988400 22048248 22108734 22168810 22227498 22284520 22340156 
3111.363 22394682 22449040 22503754 22558998 22614806 22671288 22728194 
3114.739 22785596 22843078 22900564 22957850 23014900 23071676 23128844 
3118.114 23187000 23246560 23307738 23370568 23434104 23497302 23558828 
3121.489 23617776 23673478 23726212 23776362 23825082 23873458 23922294 
3124.864 23972258 24023662 24076788 24131462 24188000 24246438 24307056 
3128.240 24370064 24435430 24502526 24570400 24637902 24703904 24767672 
3131.615 24829344 24889518 24949558 25010800 25074158 25139700 25206868 
3134.990 25274644 25341692 25407346 25471532 25534606 25597442 25660920 
3138.365 25725110 25790046 25855558 25920936 25985836 26049932 26112912 
3141.740 26174776 26235170 26293884 26351056 26407178 26463028 26519942 
3145.116 26579150 26641258 26706720 26775048 26845746 26918078 26991588 
3148.491 27065882 27140790 27216278 27291812 27367288 27442496 27517400 
3151.866 27592632 27668728 27746142 27825124 27905112 27985360 28064916 
3155.241 28143108 28219548 28294726 28369104 28443354 28517722 28592386 
3158.617 28667274 28742318 28817978 28895066 28974860 29058140 29145584 
3161.992 29237438 29332892 29431062 29530566 29630236 29728580 29824392 
3165.367 29916778 30004926 30088760 30168774 30245818 30321172 30395756 
3168.742 30470138 30543930 30616634 30686966 30753964 30816706 30874976 
3172.118 30928448 30976910 31019898 31056840 31087554 31112008 31130766 
3175.493 31144934 31155934 31164940 31173094 31180960 31188900 31197444 
3178.868 31207128 31218878 31233366 31250920 31271182 31293008 31314946 
3182.243 31335670 31354438 31371322 31387456 31404090 31422682 31444054 
3185.619 31468100 31494324 31521790 31549402 31576696 31603600 31630222 
3188.994 31657092 31684786 31713582 31744026 31776250 31810440 31846556 
3192.369 31884744 31924364 31964914 32005538 32044772 32081944 32115872 
3195.744 32146196 32172922 32196902 32218848 32240332 32262244 32285158 
3199.120 32309178 32333984 32358900 32383356 32407240 32430694 32454222 
3202.495 32478504 32503572 32529176 32554888 32579816 32603424 32625426 
3205.870 32646072 32665756 32684974 32704122 32723524 32743208 32763288 
3209.245 32784048 32806062 32829322 32854054 32879606 32904874 32928466 
3212.621 32949052 32966212 32980084 32991846 33003178 33015724 33030812 
3215.996 33048906 33069928 33092812 33116340 33139300 33160612 33180210 
3219.371 33197918 33214796 33232074 33251066 33272852 33298072 33326298 
3222.746 33356852 33388414 33419508 33449390 33477732 33504684 33531134 
3226.122 33557408 33583860 33610388 33636488 33661800 33686040 33709492 
3229.497 33732952 33757228 33782872 33810592 33840572 33872704 33906592 
3232.872 33941740 33977672 34013576 34048944 34083316 34116504 34149048 
3236.247 34181956 34216480 34253480 34293780 34336844 34381884 34427580 
3239.623 34472488 34515820 34557080 34596188 34633400 34668820 34702196 
3242.998 34733780 34763608 34792544 34821476 34852276 34886172 34924128 
3246.373 34966212 35011896 35059916 35108948 35157988 35205920 35252168 
3249.748 35295904 35336912 35374728 35409196 35440760 35470028 35498288 
3253.124 35526768 35556468 35588080 35621672 35656524 35691956 35726740 
3256.499 35759768 35790136 35817012 35840148 35859796 35876424 35891216 
3259.874 35905504 35920296 35935988 35952328 35968560 35983500 35996100 
3263.249 36006324 36014316 36021296 36028320 36036168 36044876 36053736 
3266.625 36061116 36065868 36066944 36064284 36058560 36050928 36042752 
3270.000 36034724 36027168 36019496 36011072 36000852 35988252 35973276 
3273.375 35956176 35937788 35918784 35899996 35881496 35863324 35845080 
3276.750 35826480 35807512 35788372 35769736 35751924 35735556 35720196 
3280.125 35705556 35690840 35675304 35658684 35641704 35625020 35609804 
3283.501 35596964 35586644 35577976 35570172 35561756 35551576 35539568 
3286.876 35526408 35513140 35501344 35492104 35486028 35482648 35481320 
3290.251 35480632 35479596 35477724 35474988 35471936 35469488 35468412 
3293.626 35469236 35472184 35476896 35482792 35489372 35496312 35504044 
3297.002 35513320 35525260 35540788 35560424 35584196 35611096 35639908 
3300.377 35669292 35698180 35726384 35753832 35781284 35809528 35839108 
3303.752 35870560 35904100 35940124 35979000 36021224 36066804 36115808 
3307.127 36167696 36221428 36276140 36330784 36384972 36438876 36492860 
3310.503 36547784 36603944 36661804 36721368 36782524 36845100 36908976 
3313.878 36973732 37039080 37104356 37169072 37232676 37295348 37357384 
3317.253 37419568 37482812 37547620 37613732 37680620 37746968 37811092 
3320.628 37872080 37929132 37982000 38031360 38077800 38122112 38165380 
3324.004 38208252 38251348 38295132 38339248 38383692 38427496 38470028 
3327.379 38510220 38547912 38582924 38615120 38644600 38670856 38693348 
3330.754 38711316 38724212 38731600 38733884 38731424 38724792 38714544 
3334.129 38700996 38684076 38664084 38641632 38616820 38590820 38563408 
3337.505 38534296 38502396 38465940 38423512 38373996 38317536 38254568 
3340.880 38186544 38114732 38040224 37963484 37884480 37802852 37718204 
3344.255 37630068 37537720 37440480 37337700 37228776 37113924 36993976 
3347.630 36870452 36745812 36621968 36500284 36381152 36263928 36147456 
3351.006 36030048 35910976 35789668 35665984 35540540 35413800 35286452 
3354.381 35159284 35033804 34911164 34793332 34681668 34576708 34478224 
3357.756 34384900 34294924 34206616 34118832 34031028 33943564 33857156 
3361.131 33772092 33688868 33607344 33527628 33449746 33374350 33301934 
3364.507 33233076 33167764 33105828 33046328 32988806 32932684 32877426 
3367.882 32823678 32771256 32720342 32670506 32621320 32571782 32521606 
3371.257 32470078 32416772 32361544 32303608 32242582 32177668 32108452 
3374.632 32034642 31956070 31873052 31785556 31693448 31596902 31495464 
3378.008 31389486 31278838 31163836 31044632 30920870 30791772 30656278 
3381.383 30513288 30361464 30200492 30030384 29851326 29664150 29469640 
3384.758 29268308 29061010 28848924 28632802 28414380 28194868 27975464 
3388.133 27757198 27540452 27325262 27111272 26897774 26684030 26469544 
3391.509 26253932 26037444 25820532 25604472 25390132 25178532 24970194 
3394.884 24764832 24561530 24359550 24158118 23957482 23758932 23563832 
3398.259 23373784 23189482 23010254 22834382 22659036 22481980 22301298 
3401.634 22116440 21928416 21738560 21548858 21360664 21174568 20990780 
3405.010 20809154 20629620 20452070 20276848 20104128 19933766 19765410 
3408.385 19598544 19432676 19267562 19103414 18940364 18778830 18618776 
3411.760 18460058 18302192 18145178 17988912 17834048 17681656 17532734 
3415.135 17388104 17248348 17113082 16981994 16853634 16726894 16600501 
3418.510 16473388 16345141 16215730 16086357 15958535 15833946 15714649 
3421.886 15601533 15495074 15394374 15297953 15204195 15111659 15019108 
3425.261 14926439 14833550 14740339 14646598 14551817 14455171 14356253 
3428.636 14255097 14151945 14047894 13944073 13841131 13739993 13640622 
3432.011 13543188 13448099 13355287 13265057 13177645 13093188 13011036 
3435.387 12931288 12853535 12777843 12704313 12633183 12564248 12496654 
3438.762 12429309 12360270 12287800 12211252 12130492 12046410 11960980 
3442.137 11875942 11792862 11712623 11634645 11558042 11481350 11403210 
3445.512 11323144 11241360 11159318 11078788 11001808 10930208 10864804 
3448.888 10805491 10751145 10699794 10649467 10598093 10544112 10487015 
3452.263 10426667 10363748 10298837 10232985 10166940 10101313 10036881 
3455.638 9974053 9913640 9855914 9801212 9749261 9699451 9650629 9601271 
3459.496 9549920 9495256 9436637 9374065 9308726 9242279 9177231 9116015 
3463.353 9060324 9010965 8967464 8927822 8890010 8850984 8808953 8762733 
3467.210 8712361 8658342 8602033 8544853 8487443 8430785 8375113 8320597 
3471.068 8267741 8216954 8168636 8123091 8080522 8040726 8003397 7968297 
3474.925 7935057 7903440 7873511 7845170 7818214 7793115 7769030 7746160 
3478.783 7723359 7699615 7673714 7644610 7611530 7575080 7536408 7497706 
3482.640 7461671 7429784 7402685 7379835 7359243 7338383 7315300 7288984 
3486.498 7259906 7229415 7200039 7173931 7152979 7138361 7130176 7127851 
3490.355 7130277 7135800 7142605 7148904 7153215 7154091 7151564 7146209 
3494.212 7139337 7132971 7128997 7128525 7132937 7142503 7157527 7178546 
3498.070 7205563 7238411 7276214 7317592 7360187 7401506 7439357 7472862 
3501.927 7502190 7529362 7557075 7588499 7626299 7672331 7727272 7791057 
3505.785 7862208 7938668 8018112 8097502 8174342 8247378 8316104 8382375 
3509.642 8448994 8519272 8596660 8682409 8777034 8878647 8984951 9093075 
3513.500 9200820 9306052 9407856 9504976 9596630 9682138 9761392 9834968 
3517.357 9904183 9971001 10037152 10103347 10169043 10232239 10289846 
3520.732 10338706 10376135 10400704 10411870 10410173 10396835 10372605 
3524.107 10338333 10293985 10239431 10173691 10096259 10006263 9904115 
3527.483 9790706 9667941 9538675 9405620 9271321 9137300 9003794 8870294 
3531.340 8735991 8599668 8461055 8319684 8175692 8028777 7879180 7726867 
3535.198 7572720 7418256 7265263 7116130 6972132 6834039 6701474 6573491 
3539.055 6449077 6328161 6211111 6099199 5993061 5892726 5796814 5702432 
3542.912 5606562 5506450 5400423 5288318 5171280 5051490 4931432 4813551 
3546.770 4699856 4592452 4492675 4401556 4319123 4244033 4174309 4107039 
3550.627 4039477 3969786 3898067 3825624 3755098 3689229 3630152 3578199 
3554.485 3532834 3492115 3454072 3416801 3378765 3339063 3297328 3253226 
3558.342 3206859 3158695 3109702 3061249 3015003 2972565 2935568 2904746 
3562.199 2880096 2860784 2844508 2827766 2805622 2772708 2723925 2656345 
3566.057 2570576 2471462 2368040 2271303 2190273 2130367 2092044 2071003 
3569.914 2060749 2055256 2049397 2040741 2028624 2013377 1995835 1976396 
3573.772 1954661 1930065 1902709 1872891 1841446 1809836 1778727 1749018 
3577.629 1720741 1693963 1668684 1645468 1625346 1609316 1598142 1592255 
3581.487 1591158 1594750 1601700 1611112 1621122 1629038 1631066 1622752 
3585.344 1599638 1558602 1499249 1425177 1343839 1265175 1199483 1153402 
3589.201 1129947 1126958 1139515 1160179 1181608 1197855 1204135 1197257 
3593.059 1177389 1145960 1106760 1064608 1024652 991341 967696 954646 951491 
3597.398 956240 965272 975600 983670 987256 985728 979253 970220 961254 
3601.738 955509 955376 961918 975068 993367 1014323 1034947 1051222 1059725 
3606.078 1056869 1040228 1009075 965604 914135 862141 816925 783863 764246 
3610.417 755516 751168 744662 730225 706130 675531 645267 622803 614308 
3614.757 621708 641484 666704 687976 697368 688573 659934 613844 557539 
3619.096 500347 451752 419115 406380 412781 434670 467043 504360 542643 
3623.436 580963 619385 659702 702744 746654 784991 807896 802053 755450 
3627.776 663286 533222 387343 255638 165966 130932 146344 196065 260213 
3632.115 322082 369402 398055 409398 409199 404158 399316 397492 399017 
3636.455 402798 408469 416164 426744 440276 455998 471289 482965 488571 
3640.794 487575 482434 477093 476795 486050 506815 537966 576517 616896 
3645.134 653165 679845 692058 685985 659072 610559 541383 455235 358791 
3649.474 262534 177999 117608 90233 98684 139748 204120 279907 352589 409696 
3654.295 441934 444853 420541 378124 332428 296717 280835 286903 310709 
3658.635 344565 379849 410592 433443 448070 455699 458353 457955 455500 
3662.975 452183 449629 449364 454405 467043 488836 519189 555084 590584 
3667.314 617294 626618 610426 566033 497892 420541 355574 324105 339922 
3671.654 403859 504427 620447 727105 801655 824793 789273 703143 591215 
3675.993 484325 406512 366219 356005 361344 367678 366219 355574 340419 
3680.333 327421 322414 327554 341580 361112 383629 409166 439447 476496 
3684.673 520682 567658 609032 634151 631894 595661 525193 429530 324006 
3689.012 225137 145814 91227 60308 48047 50366 63887 87217 119298 157978 
3693.834 199844 240719 276757 305072 325498 340154 352623 366053 382568 
3698.174 401538 420110 433742 437722 428899 406745 373979 336407 301458 
3702.513 275630 263495 266545 283454 311041 345195 382568 420143 456329 
3706.853 489466 518260 540885 554852 556677 543804 513914 467474 407673 
3711.192 341016 277221 226596 197457 194606 217877 262069 318800 379019 
3715.532 433609 475435 501143 510531 507180 496300 483728 473213 465749 
3719.872 459945 452780 441967 426644 408569 390494 375571 365058 357597 
3724.211 350003 338861 322248 301292 281167 268932 272447 295722 338463 
3728.551 394739 456031 511526 552198 572635 572038 555416 530070 504758 
3732.890 484092 466778 446545 416097 370928 312665 250399 197059 165005 
3737.230 160332 181745 222651 276094 337070 403826 476928 555748 635744 
3741.570 706163 749708 745890 679248 547354 372619 198684 76977 39928 88410 
3746.391 197590 332096 458651 550141 591348 579270 522241 436229 340055 
3750.731 249372 173922 119464 90697 90863 121751 180551 259483 346322 428004 
3755.553 493579 535610 552297 546757 524862 493679 458021 421669 387907 
3759.892 360979 347317 352324 378920 424123 480112 535079 576981 597950 
3764.232 596324 577678 552430 532425 525061 530402 542146 550904 548184 
3768.572 530236 499086 462266 430392 411918 411520 428369 457822 493878 
3772.911 530468 563743 591812 614806 633852 650809 666472 680642 690863 
3777.251 693751 685155 662722 627149 583119 539226 504692 486182 485685 
3781.590 499749 521146 541117 553260 554155 545098 530634 516601 507810 
3785.930 505986 510763 519521 529904 540155 549710 558369 566165 572701 
3790.270 577545 581228 584878 590949 601865 618356 638730 658872 672445 
3794.609 674635 663319 641551 616830 599941 599244 617693 651107 688408 
3798.949 714758 715057 678983 605648 506749 404556 327222 296153 318269 
3803.288 384359 475070 567127 637834 671416 660631 610492 537269 463825 
3807.628 411918 393313 407574 445317 494939 546293 594997 641617 689868 
3811.968 742771 799331 853277 893516 907926 886942 829407 745492 657114 
3816.307 589191 560459 575920 626154 691793 748778 776261 759765 695908 
3820.647 595163 481273 384127 326194 316943 350799 412714 484258 548781 
3824.986 596623 623632 632890 632060 630700 636274 651605 674868 700886 
3829.326 723686 738257 742173 736498 724981 712601 705101 706992 720699 
3833.666 746090 780079 817091 848894 866059 860481 827282 767532 689370 
3838.005 607207 536904 490096 472383 480709 506848 539657 569184 588560 
3842.345 595329 591115 580697 571042 567990 576152 597486 630667 672810 
3846.684 719836 768494 816892 865262 915629 970021 1028205 1086464 1134532 
3851.024 1157787 1138153 1060057 918485 727005 519985 340950 224209 182573 
3855.364 206706 275729 366683 462830 552331 629173 691461 738755 771747 
3859.703 791929 801522 803945 803116 802618 803481 804410 801323 790402 
3864.043 770917 747052 727603 722591 738688 774469 820444 860182 876683 
3868.382 856397 796111 704802 605283 523833 478885 474871 501972 543075 
3872.722 580399 601998 605515 597220 589224 593006 616266 658906 714460 
3877.062 772179 821141 852214 859319 841458 803547 755416 710046 680244 
3881.401 674768 695310 735801 784029 825058 844014 830868 784261 715024 
3885.741 642513 588760 570910 593803 650411 724748 798601 855468 883887 
3890.080 879936 847932 799564 748313 707291 684558 682168 698364 728963 
3894.420 769523 816029 864299 910649 950528 979751 994363 993068 977127 
3898.760 950727 920311 892453 871636 858721 850820 842421 827415 802618 
3903.099 767797 727503 688706 659038 644637 647358 665244 693817 727536 
3907.439 761590 792560 819116 841558 860846 878376 895674 913571 933062 
3911.778 954546 978290 1003595 1028770 1051156 1067564 1074672 1070288 
3915.636 1054444 1028870 997584 964973 935585 911711 894114 882493 875886 
3919.975 873827 876118 882493 892321 903975 914998 922469 924229 919614 
3924.315 910018 898928 890295 887938 893815 907627 927417 950163 971947 
3928.655 989647 1000606 1002931 995924 979452 955243 926122 896305 870341 
3932.994 852546 845342 848994 861444 879173 897932 914102 926155 934025 
3937.334 938972 943156 948170 954546 961520 966999 968759 964575 954081 
3941.673 938009 919282 902215 890229 887407 894645 911678 935220 961553 
3946.013 985861 1004094 1013692 1014157 1006784 994330 980116 967298 958232 
3950.353 954081 955077 960756 970419 983238 998282 1014256 1029501 1043251 
3954.692 1054145 1061751 1066833 1070155 1073111 1076765 1081548 1086564 
3958.550 1091081 1093440 1092377 1087693 1079788 1069524 1058994 1049960 
3962.407 1043550 1040693 1041590 1045875 1052750 1061486 1070886 1080518 
3966.264 1089753 1098256 1105896 1112706 1118420 1123204 1127157 1130412 
3970.122 1133469 1136990 1141641 1147687 1155262 1163833 1172671 1180777 
3973.979 1187588 1192672 1196094 1198520 1200314 1201676 1202739 1203005 
3977.837 1202042 1199716 1196294 1192406 1189117 1187622 1188486 1192041 
3981.694 1197988 1205730 1214435 1223008 1230849 1237196 1241881 1244606 
3985.552 1245736 1245636 1244639 1243310 1241815 1240286 1238924 1237362 
3989.409 1236066 1235235 1235534 1237196 1240220 1244274 1248161 1250720 
3993.266 1250654 1247464 1241350 1233208 1224237 1216096 1209484 1204999 
3997.124 1202141 1200513 1199084 1197490 1195463 1193037 1190745 1189449 
##END=
