
##TITLE=mdmaHCL00385_1
##JCAMP-DX=5.01  $$ Nicolet v. 1
##DATATYPE=INFRARED SPECTRUM
##ORIGIN=UniL
##OWNER=Nicolet
##LONGDATE=2011/08/23
##TIME=14:44:43
##SPECTROMETER/DATA SYSTEM=Nicolet iS5
##DATA PROCESSING=
Ratio against background
%Transmittance->Absorbance
Truncated
ElementMultiply or ElementDivide
##COMMENTS=
Number of sample scans: 32
Collection length: 51.24 sec
Sample gain: 2.0
Background collected on: Mar Aout 23 14:42:31 2011 (GMT+02:00);
Number of background scans: 32
Background gain: 2.0
Sample spacing:  1.000
Number of scan points: 12415
Resolution points: 8192
Number of FFT points: 65536
Apodization: N-B fort;
Phase correction: Mertz;
Laser frequency: 15798.0 cm-1
Number of rejected sample scans: 0
Number of rejected background scans: 0
Bench serial number: ASB1000141;
##RESOLUTION=4.000
##XUNITS=1/CM
##YUNITS=ABSORBANCE
##FIRSTX=649.893372
##LASTX=4000.122314
##FIRSTY=0.059648
##MAXX=4000.122314
##MINX=649.893372
##MAXY=0.223957
##MINY=0.002023
##XFACTOR=1.000000
##YFACTOR=1.000000E-009
##NPOINTS=6950
##DELTAX=0.482117
##ZPD=6100
##XYDATA=(X++(Y..Y))
649.893 59648472 59371908 59131584 58931204 58764940 58618920 58480108 
653.268 58345852 58224668 58135716 58100568 58133176 58233608 58390684 
656.643 58583460 58792332 59007832 59230196 59466316 59724504 60008100 
660.018 60314956 60640468 60980828 61337252 61715164 62120472 62553480 
663.393 63006416 63461936 63897208 64287996 64606308 64821408 64903044 
666.767 64830064 64614540 64328492 64093864 64012764 64118712 64371036 
670.142 64695060 65013252 65263360 65409048 65435672 65354512 65193124 
673.517 64986848 64762904 64530844 64286844 64020708 63726120 63408524 
676.892 63082464 62764420 62465664 62185924 61915648 61642180 61357552 
680.267 61062276 60764348 60472632 60191132 59915592 59636120 59341252 
683.642 59025216 58691544 58350248 58014024 57690928 57382484 57084532 
687.016 56791464 56501428 56218340 55950168 55705024 55485740 55288652 
690.391 55104480 54924332 54743924 54567420 54405336 54270496 54173152 
693.766 54116552 54096772 54106528 54138656 54190680 54265240 54368608 
697.141 54507236 54685332 54903240 55159400 55453248 55785872 56160944 
700.516 56581596 57047008 57549424 58075868 58609816 59135080 59642276 
703.890 60128260 60595476 61047520 61485412 61905712 62302212 62668792 
707.265 63003464 63310148 63597784 63876672 64155044 64438784 64732060 
710.640 65042460 65385520 65784356 66267736 66861676 67576880 68399640 
714.015 69282912 70154008 70920968 71489664 71790088 71787264 71493720 
717.390 70966496 70304080 69630080 69065168 68723656 68688768 69001464 
720.765 69659056 70610512 71763224 72981960 74111768 74997928 75499600 
724.139 75529488 75068464 74178152 72984664 71657904 70375928 69273000 
727.514 68430360 67865152 67544512 67407192 67388312 67440552 67534296 
730.889 67657208 67804640 67971112 68147560 68325600 68500488 68675800 
734.264 68860464 69064472 69291624 69536504 69785688 70024584 70243824 
737.639 70443608 70631832 70820016 71015424 71218296 71422008 71618552 
741.013 71804152 71982872 72164648 72359488 72572112 72799144 73030728 
744.388 73256504 73472208 73682552 73898968 74133464 74390488 74664472 
747.763 74941104 75204520 75443304 75656696 75852368 76041600 76231832 
751.138 76423128 76608864 76781512 76937688 77082008 77224488 77376392 
754.513 77542808 77721640 77905000 78085416 78261624 78440728 78633672 
757.888 78850232 79091984 79350960 79614680 79872784 80124352 80379368 
761.262 80654480 80962272 81306152 81676424 82057368 82435696 82810816 
764.637 83196584 83619680 84108288 84681648 85347896 86103808 86940352 
768.012 87849952 88828240 89876224 91002728 92232952 93620568 95267936 
771.387 97314272 99917000 103200752 107178032 111682104 116312840 120504656 
774.762 123568136 124865584 124022248 121007528 116184656 110164672 
777.654 103698736 97462336 91911792 87289784 83607096 80725104 78429288 
781.029 76515512 74833864 73291184 71851656 70508968 69270512 68146440 
784.404 67150160 66299968 65616728 65121672 64829796 64745748 64867304 
787.779 65191700 65724140 66483656 67502592 68816944 70462864 72468552 
791.154 74853904 77638000 80843472 84496936 88623432 93228648 98279448 
794.528 103678376 109264832 114805280 119992928 124497264 127964048 
797.421 130052952 130507768 129173872 126048688 121286120 115189232 
800.314 108163368 100631496 93025280 85711784 78957952 72951896 67781248 
803.689 63453772 59920840 57099304 54896360 53219736 51995680 51168680 
807.063 50696708 50547080 50683416 51054328 51592464 52208168 52796268 
810.438 53257152 53500316 53461900 53112220 52452164 51510012 50329860 
813.813 48971244 47497488 45970412 44451584 42993208 41635068 40406460 
817.188 39321636 38383768 37588368 36927776 36394988 35985372 35697172 
820.563 35529752 35482720 35555896 35749912 36070080 36526304 37134780 
823.938 37914344 38881128 40043032 41392552 42902900 44520116 46164752 
827.312 47735672 49106192 50147036 50741956 50802400 50295780 49251760 
830.687 47763560 45964260 44010576 42059144 40232196 38618708 37264952 
834.062 36177816 35335256 34695160 34207444 33816072 33468320 33122350 
837.437 32747210 32330416 31877078 31406906 30946986 30522958 30154354 
840.812 29848950 29604624 29412802 29264268 29151996 29072632 29025584 
844.186 29010034 29023814 29063952 29127336 29212630 29321690 29457654 
847.561 29623248 29818250 30039652 30281984 30540836 30814430 31104854 
850.936 31417020 31756644 32127324 32530352 32965892 33434790 33941200 
854.311 34493184 35100508 35772900 36517940 37339256 38239696 39223412 
857.686 40298104 41477596 42780024 44224256 45829876 47613056 49586096 
861.060 51756676 54124208 56673888 59367312 62136376 64881848 67467176 
864.435 69743512 71561464 72786136 73328176 73148072 72267048 70762144 
867.810 68762752 66438480 63964808 61522824 59273148 57334688 55792952 
871.185 54690444 54029828 53780700 53885308 54267564 54829512 55464168 
874.560 56062348 56512036 56721272 56625720 56195600 55441804 54410220 
877.935 53175168 51820064 50432188 49092652 47865432 46802504 45941976 
881.309 45306916 44909828 44750208 44815888 45081528 45510896 46062136 
884.684 46687492 47341608 47987384 48596396 49156576 49673536 50171504 
888.059 50687920 51267736 51955416 52782124 53761616 54886244 56131648 
891.434 57461520 58835732 60220740 61588148 62916784 64190880 65394452 
894.809 66509068 67514088 68381912 69078104 69562248 69783240 69687184 
898.183 69225472 68361632 67085856 65420956 63425624 61183680 58797716 
901.558 56379440 54027200 51827716 49848580 48132168 46702952 45567564 
904.933 44718032 44135848 43794692 43667392 43727260 43954144 44336452 
908.308 44869412 45553284 46389708 47378560 48517136 49799896 51219308 
911.683 52765320 54422836 56166712 57962260 59763360 61518052 63182244 
915.058 64725944 66143780 67456888 68711672 69972928 71309616 72793856 
918.432 74488256 76435976 78657584 81139168 83828688 86627176 89403312 
921.807 92011008 94305880 96189784 97629368 98674584 99450448 100148400 
925.182 101005080 102248864 104091304 106692184 110127696 114376920 
928.075 119293976 124615952 129926416 134691008 138338064 140270112 
930.967 140007232 137281648 132078872 124673304 115566640 105439968 94990744 
934.342 84848504 75536192 67382968 60563020 55121292 51006520 48119180 
937.717 46340932 45563628 45681360 46581468 48135912 50165036 52434964 
941.092 54683340 56613564 57956544 58520368 58205876 57036656 55141684 
944.467 52737560 50069352 47368472 44831900 42583680 40683864 39139540 
947.841 37921612 36983908 36276176 35755848 35386696 35138480 34987116 
951.216 34910048 34887468 34903948 34947576 35011536 35092928 35191616 
954.591 35308376 35444608 35601388 35779700 35980116 36203276 36448604 
957.966 36714768 36998916 37297660 37607340 37925804 38252724 38589260 
961.341 38937876 39301068 39679700 40073340 40480104 40897296 41322980 
964.716 41756304 42197436 42647060 43105532 43572396 44046692 44527644 
968.090 45015224 45511228 46018036 46538792 47075612 47629504 48200068 
971.465 48787168 49391328 50015216 50662896 51339184 52048340 52792820 
974.840 53572992 54388512 55238488 56123616 57046064 58008080 59012652 
978.215 60061788 61156980 62300720 63496984 64752444 66076300 67477824 
981.590 68964808 70542096 72210496 73967088 75804656 77711856 79668736 
984.964 81642232 83586616 85436472 87111248 88530192 89613168 90298496 
988.339 90554216 90379192 89806584 88896704 87737568 86430272 85077776 
991.714 83784560 82636080 81696176 81006784 80583952 80425296 80515192 
995.089 80833816 81360816 82078832 82974352 84035664 85250672 86607560 
998.464 88093192 89693896 91396568 93184296 95034128 96915064 98782680 
1001.839 100583840 102262904 103765176 105049312 106092080 106890816 
1004.731 107463496 107846816 108096256 108275552 108457384 108717472 
1007.624 109120992 109722768 110560952 111653912 113005288 114608088 
1010.517 116451928 118526016 120822160 123334256 126055552 128977848 
1013.409 132092344 135389552 138861296 142498784 146284704 150186320 
1016.302 154145552 158069360 161842848 165333536 168408896 170968352 
1019.195 172952496 174359568 175244640 175721504 175951136 176111200 
1022.087 176396992 176988256 178021424 179590560 181730224 184420784 
1024.980 187595008 191156000 194994144 198986896 203015440 206962464 
1027.873 210703152 214121920 217112912 219590448 221506544 222850688 
1030.766 223650592 223957440 223840864 223377952 222641408 221704528 
1033.659 220631568 219466304 218226336 216888992 215392976 213636336 
1036.552 211498608 208864896 205634704 201747648 197185680 191970336 
1039.446 186158304 179836848 173122848 166146912 159053024 151989280 
1042.339 145081472 138437584 132138744 126233816 120753728 115714360 
1045.232 111121424 106977576 103280680 100024608 97198000 94784616 92764248 
1048.607 91113832 89810128 88829832 88148312 87739792 87576368 87626312 
1051.982 87859120 88245088 88756416 89370096 90062376 90805920 91568448 
1055.357 92307160 92970408 93505496 93858136 93981456 93842264 93421504 
1058.733 92718760 91753120 90566336 89219792 87787936 86359976 85022120 
1062.108 83851840 82915920 82260144 81911784 81881736 82165208 82744024 
1065.483 83586176 84650112 85880656 87212536 88580328 89916248 91160552 
1068.858 92267816 93202736 93941760 94470632 94780416 94867640 94734136 
1072.234 94389176 93848560 93134488 92277328 91312464 90281976 89237216 
1075.609 88232544 87325064 86570712 86012032 85677352 85575936 85698864 
1078.984 86021360 86507992 87119104 87809224 88528808 89227360 89848312 
1082.359 90338920 90659248 90790232 90744832 90569728 90348760 90187152 
1085.735 90201304 90513072 91225136 92417824 94138928 96392392 99132976 
1089.110 102256368 105612472 108997856 112175760 114921352 117026648 
1092.003 118341696 118796952 118401624 117242744 115459480 113237104 
1094.896 110769144 108232608 105784784 103535920 101547352 99835848 98375640 
1098.271 97108904 95952456 94817344 93612640 92254992 90683168 88859184 
1101.646 86775560 84455720 81953720 79346944 76719864 74162040 71753456 
1105.022 69554352 67611216 65952212 64590552 63530548 62768936 62297736 
1108.397 62104300 62172464 62481808 63006536 63717828 64582704 65561576 
1111.772 66612424 67685440 68723968 69671776 70471544 71073096 71441344 
1115.147 71555488 71412520 71024168 70414696 69617320 68668624 67609632 
1118.523 66479796 65313764 64142792 62989868 61871896 60801464 59786972 
1121.898 58834292 57946660 57123152 56356996 55634744 54939296 54252096 
1125.273 53559684 52858908 52160788 51490648 50882076 50374696 50004396 
1128.648 49796252 49763668 49904924 50205944 50640672 51174904 51769704 
1132.024 52378852 52957676 53465124 53868352 54150820 54314160 54379496 
1135.399 54381188 54363536 54373040 54447136 54613408 54883572 55252940 
1138.774 55700396 56190432 56680116 57117560 57451988 57640224 57646732 
1142.149 57449456 57039188 56418268 55597948 54596688 53440428 52158920 
1145.525 50786236 49359480 47913008 46478568 45082596 43743092 42471644 
1148.900 41274224 40152560 39107124 38138032 37246176 36433184 35701380 
1152.275 35052444 34488560 34011464 33622884 33324688 33118092 33002998 
1155.650 32977722 33039038 33183218 33406232 33705912 34081484 34533652 
1159.026 35063332 35670624 36354240 37111108 37936436 38823332 39763388 
1162.401 40743508 41746200 42750116 43727920 44650312 45489188 46216716 
1165.776 46809628 47249868 47522848 47620928 47542220 47292760 46885068 
1169.151 46337836 45674624 44919012 44094368 43222824 42322444 41411144 
1172.527 40505780 39621940 38775688 37981784 37252240 36597096 36023168 
1175.902 35534752 35134496 34824636 34606416 34481456 34450820 34515212 
1179.277 34675384 34932780 35290080 35751496 36321672 37004980 37804192 
1182.652 38719936 39752020 40900136 42166256 43555328 45074876 46732540 
1186.028 48533888 50478256 52556900 54748848 57020180 59324576 61597352 
1189.403 63762532 65738252 67438152 68791624 69750864 70298864 70452304 
1192.778 70257808 69784800 69106816 68297056 67417176 66507564 65591404 
1196.153 64674064 63749060 62803164 61823032 60800248 59732528 58623920 
1199.529 57482740 56318100 55137392 53944356 52740668 51527768 50309732 
1202.904 49096100 47901580 46745308 45648348 44628388 43698424 42864496 
1206.279 42125652 41475700 40905232 40404892 39965432 39578968 39239120 
1209.654 38940416 38678864 38452724 38262964 38113720 38011544 37964820 
1213.030 37982036 38070496 38236728 38486032 38823080 39252212 39776496 
1216.405 40397368 41113380 41920120 42810920 43778344 44816216 45920284 
1219.780 47088052 48318152 49609232 50959940 52369584 53840072 55377060 
1223.155 56990220 58692756 60498916 62420404 64465188 66633664 68918664 
1226.531 71301184 73751264 76224600 78658848 80981792 83109544 84953496 
1229.906 86435336 87486824 88059504 88131304 87708088 86829384 85564600 
1233.281 84020024 82327624 80627992 79074368 77807488 76946032 76592344 
1236.656 76820656 77681664 79207872 81412888 84292192 87818520 91942088 
1240.031 96581120 101616520 106905688 112272344 117513272 122424792 
1242.925 126789120 130398856 133084384 134716000 135230864 134638736 
1245.818 133021088 130518320 127305824 123595704 119604800 115539192 
1248.711 111595040 107920776 104607432 101678320 99081776 96700992 94368544 
1252.086 91914488 89185488 86080776 82575568 78718304 74622568 70432152 
1255.461 66309072 62399632 58808496 55602168 52798812 50378004 48289192 
1258.836 46466216 44839616 43339412 41908444 40504544 39099224 37680436 
1262.212 36248264 34811388 33382974 31978038 30611334 29295318 28041200 
1265.587 26858540 25754536 24734490 23800372 22950760 22181224 21485596 
1268.962 20858064 20294000 19790830 19347062 18960960 18629186 18346984 
1272.337 18108006 17906656 17738950 17602496 17496166 17418486 17366962 
1275.713 17337340 17325478 17327272 17340756 17365548 17402450 17451600 
1279.088 17512310 17582244 17659054 17740192 17823106 17904482 17977516 
1282.463 18031566 18052324 18023760 17933038 17774536 17552882 17282378 
1285.838 16984752 16686194 16410276 16176831 16000543 15890686 15853329 
1289.214 15892610 16010478 16206617 16477656 16817158 17215734 17661572 
1292.589 18141930 18640634 19139322 19616604 20048640 20413380 20694288 
1295.964 20883756 20985772 21014114 20990954 20939734 20882610 20838494 
1299.339 20820416 20837832 20897176 21001560 21150288 21337416 21551990 
1302.715 21777614 21995404 22187918 22339808 22440178 22483060 22465196 
1306.090 22387180 22252504 22069200 21849420 21609134 21367102 21140304 
1309.465 20941784 20779470 20655922 20570556 20522546 20512368 20542068 
1312.840 20614506 20730256 20887130 21080474 21304598 21554986 21829698 
1316.216 22129898 22457728 22814686 23200596 23613404 24050908 24512200 
1319.591 24998480 25511766 26053134 26619802 27203966 27792626 28369104 
1322.966 28916846 29421524 29873296 30270224 30618552 30935456 31246220 
1326.341 31585426 31989950 32490324 33105470 33832940 34647392 35500480 
1329.717 36332732 37085484 37709132 38176628 38485488 38656300 38725952 
1333.092 38741276 38753300 38806488 38940200 39184756 39557988 40066652 
1336.467 40705624 41461516 42314192 43241856 44225648 45248300 46295404 
1339.842 47353576 48408444 49444904 50447260 51398068 52278012 53063656 
1343.218 53723780 54222704 54521212 54581396 54376832 53893784 53135136 
1346.593 52117640 50869260 49426004 47825628 46111396 44329260 42525796 
1349.968 40753556 39066052 37512504 36139500 34981944 34060344 33382616 
1353.343 32944548 32733564 32730452 32912024 33248958 33702760 34229956 
1356.719 34781952 35309096 35770668 36134892 36382236 36505904 36509728 
1360.094 36407816 36222544 35989080 35754084 35570712 35497712 35585348 
1363.469 35864836 36347252 37022116 37866728 38850724 39942800 41109232 
1366.844 42306120 43481192 44568908 45493676 46185464 46584604 46651888 
1370.219 46374664 45765148 44859528 43710256 42390572 40988540 39596244 
1373.595 38312468 37222460 36382416 35816364 35514076 35443960 35567472 
1376.970 35855084 36293756 36888020 37656624 38627688 39835180 41311100 
1380.345 43082624 45160200 47524104 50104564 52766484 55327712 57556424 
1383.720 59213792 60100788 60065248 59038728 57049500 54245564 50885240 
1387.096 47291064 43810780 40714868 38155612 36170504 34706356 33665700 
1390.471 32937902 32428232 32059756 31772044 31522680 31279050 31018796 
1393.846 30731630 30419352 30093696 29771160 29466274 29186546 28931402 
1397.221 28695274 28471550 28256710 28051944 27863032 27697296 27560788 
1400.597 27455732 27380100 27329602 27299928 27289166 27299502 27337682 
1403.972 27414614 27543064 27732650 27988256 28307456 28682140 29101364 
1407.347 29554648 30035248 30539842 31067408 31617392 32187338 32772292 
1410.722 33366478 33964132 34561708 35157524 35749660 36334712 36907032 
1414.098 37459224 37986084 38486572 38964884 39429164 39888676 40350968 
1417.473 40820852 41302572 41803912 42336144 42915808 43555288 44255440 
1420.848 45005372 45784588 46571768 47350216 48116144 48881460 49672048 
1424.223 50519052 51448760 52475832 53600128 54812972 56103668 57464356 
1427.599 58887300 60357904 61850352 63321492 64715252 65978096 67068108 
1430.974 67969720 68695944 69285592 69792344 70269760 70768808 71332384 
1434.349 72000520 72821760 73856400 75171352 76827856 78848120 81204120 
1437.724 83824744 86616536 89478056 92296096 94951000 97292760 99150720 
1441.100 100371912 100827672 100449776 99237440 97248152 94580240 91347504 
1444.475 87676336 83683872 79468208 75123056 70737336 66414036 62290088 
1447.850 58518472 55243380 52566396 50516780 49061192 48127504 47642080 
1451.225 47546064 47800880 48381780 49259740 50393372 51737604 53243104 
1454.601 54871996 56605488 58432456 60340544 62297928 64250580 66130200 
1457.976 67877392 69460560 70869824 72109640 73190384 74127528 74938984 
1461.351 75642184 76249760 76762888 77167920 77443512 77569896 77546760 
1464.726 77401728 77188184 76964824 76769608 76612384 76474184 76321960 
1468.102 76117048 75824352 75409960 74831504 74032192 72941080 71487048 
1471.477 69635440 67425688 64991964 62523060 60199352 58130524 56339564 
1474.852 54793800 53448900 52283728 51313080 50580284 50130224 49995364 
1478.227 50183332 50683080 51479756 52568044 53957636 55669848 57725592 
1481.603 60132600 62878376 65934008 69263872 72834336 76626216 80628472 
1484.978 84825216 89185536 93636600 98045344 102228824 105942440 108904344 
1488.353 110843944 111522304 110798304 108677384 105334176 101085568 
1491.246 96298336 91321992 86400560 81656024 77127632 72793040 68615224 
1494.621 64582816 60722044 57104748 53830284 50989820 48634012 46759660 
1497.997 45326556 44275176 43550344 43113104 42936912 43003816 43297824 
1501.372 43799932 44485424 45326996 46285892 47313376 48347628 49292660 
1504.747 50018932 50362116 50140040 49225080 47615788 45460160 42980516 
1508.122 40372420 37747152 35141320 32559068 30007484 27506526 25101432 
1511.498 22848456 20793512 18967780 17376756 16005218 14826796 13811680 
1514.873 12932073 12161874 11479581 10870581 10328696 9857371 9465184 
1518.248 9157366 8929445 8764255 8632316 8502479 8352414 8181669 8014096 
1522.105 7885421 7821284 7823612 7873005 7939950 7999548 8038465 8060978 
1525.963 8083932 8128661 8208276 8322116 8458691 8604432 8751238 8899953 
1529.820 9058124 9233378 9427461 9633318 9836527 10021521 10181187 10322418 
1533.678 10466072 10633813 10839325 11079298 11339027 11597822 11837567 
1537.053 12046750 12219022 12352600 12447005 12500269 12508931 12472545 
1540.428 12400771 12312478 12229928 12168144 12127869 12096659 12053904 
1543.803 11982677 11876113 11742817 11602485 11477574 11381269 11312636 
1547.179 11258157 11198858 11119952 11016285 10895552 10774105 10668959 
1550.554 10588417 10528462 10475508 10414788 10337111 10243434 10143740 
1553.929 10053734 9986428 9946151 9926963 9914725 9892182 9838865 9733369 
1557.787 9556897 9302633 8989789 8666117 8389874 8199159 8099596 8073671 
1561.644 8093519 8131194 8162052 8169851 8148919 8105470 8054835 8015580 
1565.501 8001574 8015547 8049670 8089671 8121910 8138317 8138824 8131092 
1569.359 8127142 8138047 8169986 8224145 8299149 8393219 8504541 8630153 
1573.216 8764356 8897146 9016378 9111989 9180920 9233208 9290108 9378196 
1577.074 9514662 9703246 9937777 10209341 10512847 10849721 11226467 
1580.449 11652070 12132980 12671118 13262118 13896448 14561513 15240090 
1583.824 15910242 16545838 17114462 17584312 17931070 18141758 18221086 
1587.199 18191372 18092980 17976584 17898300 17915704 18076020 18414148 
1590.575 18948636 19676716 20570348 21572396 22603952 23562502 24336630 
1593.950 24828924 24961070 24694014 24034272 23034010 21781062 20376570 
1597.325 18926902 17519728 16217381 15061847 14072501 13253510 12597265 
1600.700 12089710 11713406 11451888 11293863 11234015 11272065 11410081 
1604.076 11649313 11986594 12413864 12916201 13471579 14051384 14616475 
1607.451 15119789 15512621 15746292 15784156 15607716 15219053 14642417 
1610.826 13920910 13113132 12278904 11470940 10728185 10068519 9493359 
1614.201 8992292 8550023 8150674 7783771 7447952 7150217 6902878 6717054 
1618.059 6596837 6538171 6529930 6556268 6599764 6644644 6677550 6691514 
1621.916 6687173 6672772 6660558 6661803 6682732 6722068 6774600 6833298 
1625.774 6893048 6951089 7005804 7056754 7102961 7144423 7182488 7221397 
1629.631 7266881 7324567 7397596 7484963 7581621 7678536 7765252 7831843 
1633.489 7869192 7871621 7837646 7772707 7689430 7605999 7541027 7506370 
1637.346 7504550 7530407 7573664 7622320 7665215 7695500 7711689 7718704 
1641.203 7724776 7738739 7765657 7804416 7847802 7885118 7905093 7898614 
1645.061 7861770 7797332 7715096 7629739 7557547 7513618 7507853 7544129 
1648.918 7620533 7730341 7861668 7996410 8111849 8178258 8166205 8061349 
1652.776 7883937 7692633 7551243 7494200 7514731 7585094 7675703 7765522 
1656.633 7843855 7906375 7953786 7988074 8010586 8020744 8016829 7996376 
1660.490 7957498 7899559 7823612 7732533 7631796 7529767 7436087 7360322 
1664.348 7309336 7284368 7281537 7291949 7303709 7303473 7279583 7225137 
1668.205 7139775 7030487 6909510 6791327 6687779 6605954 6548228 6512238 
1672.063 6492428 6479714 6462764 6428563 6365885 6271010 6151791 6028371 
1675.920 5923358 5853801 5822335 5819144 5827607 5831637 5822335 5799534 
1679.778 5771865 5750947 5745810 5755983 5770354 5768272 5727679 5633011 
1683.635 5488061 5318975 5166786 5063357 5017065 5015121 5036305 5061915 
1687.492 5078811 5080353 5065636 5036707 4997758 4954053 4912967 4882071 
1691.350 4868165 4874632 4899496 4933845 4963237 4970073 4939642 4866925 
1695.207 4763400 4656583 4578489 4547616 4561746 4599853 4633475 4632436 
1699.065 4574738 4456285 4298777 4144971 4035598 3990619 4003293 4052520 
1702.922 4114498 4170161 4207330 4220211 4210408 4185717 4157516 4136441 
1706.780 4128948 4136608 4156378 4183610 4213687 4244401 4275854 4310690 
1710.637 4351987 4402191 4461474 4527661 4597040 4665760 4731375 4792847 
1714.494 4849569 4900267 4940246 4962901 4960991 4932303 4882373 4826082 
1718.352 4782863 4767118 4783768 4828058 4888806 4953450 5011266 5056552 
1722.209 5088131 5108615 5122461 5134028 5146199 5159544 5173895 5189119 
1726.067 5204879 5220573 5234624 5244216 5246429 5239587 5225536 5209574 
1729.924 5198508 5197233 5205248 5214872 5210747 5173325 5086991 4947954 
1733.781 4773215 4597643 4460268 4383883 4368252 4395932 4443966 4492105 
1737.639 4524815 4534156 4519324 4486548 4445774 4407781 4380603 4367014 
1741.496 4366412 4375850 4391748 4411229 4432417 4454544 4478279 4505196 
1745.354 4536768 4574403 4618137 4666932 4718178 4768525 4814322 4852350 
1749.211 4879725 4894637 4896815 4888002 4872890 4858414 4851981 4858214 
1753.069 4878016 4907103 4936593 4955293 4953216 4923858 4867662 4792813 
1756.926 4712684 4640809 4584750 4544335 4512461 4479517 4436233 4377791 
1760.783 4305536 4226467 4151093 4089344 4047838 4028073 4027438 4040447 
1764.641 4060881 4081685 4096469 4099546 4088542 4065397 4036367 4011017 
1768.498 3998276 4001988 4019311 4041182 4055731 4052554 4027839 3987040 
1772.356 3944541 3916890 3915252 3941732 3990084 4050647 4114364 4176250 
1776.213 4234798 4290980 4345628 4397572 4443330 4478881 4501379 4511155 
1780.071 4512494 4512026 4515976 4527326 4545138 4564994 4582138 4592988 
1783.928 4596805 4595901 4593926 4594763 4600623 4611975 4628820 4650387 
1787.785 4676210 4705182 4734725 4759782 4773550 4768659 4740018 4687061 
1791.643 4615458 4536567 4462578 4403430 4362697 4338031 4323641 4313333 
1795.500 4302491 4288838 4271504 4250324 4224861 4194750 4158921 4117976 
1799.358 4073323 4028073 3985837 3949757 3921504 3901811 3889809 3884360 
1803.215 3884393 3889007 3896830 3906425 3916489 3926017 3935245 3945611 
1807.073 3958785 3976808 3999848 4026334 4053156 4077270 4096335 4110250 
1810.930 4121087 4132193 4146543 4165645 4189197 4215527 4242896 4270266 
1814.787 4297672 4326284 4357676 4392920 4431949 4473960 4516981 4559135 
1818.645 4598480 4633743 4663851 4688334 4707325 4721226 4730772 4736099 
1822.502 4736635 4731007 4717776 4696842 4670683 4644392 4625203 4619175 
1826.360 4628920 4651827 4680999 4706220 4717374 4709000 4681434 4642618 
1830.217 4604206 4578991 4574370 4591682 4626610 4672391 4723336 4775292 
1834.074 4826819 4878586 4931197 4984686 5038584 5092288 5146199 5202364 
1837.932 5264338 5335814 5420184 5518430 5629520 5750174 5875967 6001930 
1841.789 6123024 6234572 6334045 6421501 6501206 6580858 6670013 6776014 
1845.647 6900993 7041633 7190640 7338080 7474885 7595108 7695804 7777497 
1849.504 7842100 7891022 7924225 7939849 7935529 7909851 7863456 7799052 
1853.362 7720526 7630919 7531890 7423279 7304854 7176929 7042273 6905235 
1857.219 6771369 6644476 6526096 6415112 6309367 6207245 6108608 6015839 
1861.076 5931488 5857294 5792952 5735771 5682726 5632306 5585450 5545512 
1864.934 5516249 5499738 5494739 5496048 5496618 5490343 5474841 5452594 
1868.791 5429846 5413877 5409482 5417433 5434342 5454977 5474539 5490142 
1872.649 5500443 5505611 5506081 5502356 5495343 5486149 5476787 5469472 
1876.506 5465781 5465580 5466352 5463701 5453031 5431289 5397740 5354061 
1880.364 5303579 5249514 5193142 5134833 5073548 5009288 4943765 4880798 
1884.221 4825244 4781255 4750469 4732112 4722532 4717173 4712316 4705416 
1888.078 4695703 4683410 4669645 4656014 4644560 4637728 4638398 4648043 
1891.936 4666731 4692621 4722097 4751038 4776833 4799413 4821626 4847056 
1895.793 4878821 4917457 4960488 5003389 5041937 5074855 5103586 5132318 
1899.651 5165412 5205449 5251862 5301701 5350640 5396062 5437463 5477022 
1903.508 5516987 5558399 5600419 5639355 5671715 5694711 5707737 5712504 
1907.365 5711833 5707636 5700754 5691018 5677690 5661980 5646304 5633716 
1911.223 5627339 5627506 5632642 5639154 5643786 5644860 5642208 5637207 
1915.080 5630359 5620055 5603172 5576220 5537156 5488263 5435919 5388279 
1918.938 5351848 5327864 5311528 5295362 5270375 5231707 5179595 5119880 
1922.795 5061480 5011970 4975570 4951841 4937297 4927746 4920507 4915782 
1926.653 4914441 4916955 4922451 4928148 4931030 4929287 4923557 4916251 
1930.510 4910353 4907136 4905829 4903785 4898122 4887767 4874431 4861799 
1934.367 4853523 4851345 4854327 4859554 4863876 4866557 4868970 4874598 
1938.225 4885925 4902478 4919938 4931734 4931801 4917793 4891856 4861430 
1942.082 4836133 4823368 4826752 4845012 4874096 4909650 4949562 4993066 
1945.940 5040495 5089941 5138354 5180400 5211720 5230600 5239051 5240963 
1949.797 5241197 5243444 5247938 5253203 5256926 5258368 5258536 5259676 
1953.655 5263030 5267088 5267658 5259006 5236804 5200620 5153911 5103754 
1957.512 5058195 5022931 5000306 4989781 4989345 4998328 5018037 5050250 
1961.369 5095070 5150122 5208299 5261018 5301198 5325617 5334874 5333298 
1965.227 5325013 5312267 5296334 5275406 5251225 5226609 5208366 5202699 
1969.084 5213229 5237508 5269201 5300259 5324711 5340409 5351043 5362415 
1972.942 5378651 5400491 5425183 5449642 5474203 5505108 5552090 5626264 
1976.799 5731776 5862265 6001057 6125377 6216421 6263077 6265497 6232118 
1980.656 6176627 6111196 6044430 5980733 5922183 5869452 5823980 5787445 
1984.514 5760113 5740874 5726907 5716096 5707603 5704111 5709651 5728217 
1988.371 5760046 5801280 5844163 5880904 5906665 5921881 5932159 5945024 
1992.229 5966422 5997529 6034418 6070504 6100712 6122453 6136903 6147523 
1996.086 6157806 6167889 6176190 6179551 6177097 6170577 6165167 6166343 
1999.944 6177299 6197229 6219883 6237530 6243143 6233597 6210203 6178576 
2003.801 6143994 6111700 6084246 6063481 6050277 6046614 6054577 6073360 
2007.658 6099367 6124133 6136870 6129443 6098930 6049336 5991214 5936492 
2011.516 5895615 5874254 5870762 5881710 5901728 5928632 5961316 6000117 
2015.373 6042717 6084717 6121311 6148094 6165570 6180626 6202943 6242034 
2019.231 6302207 6381318 6470466 6558622 6636334 6698075 6745153 6779985 
2023.088 6805463 6822427 6829259 6824446 6809030 6787658 6766119 6749965 
2026.946 6741047 6736673 6730211 6717424 6696561 6672335 6652820 6646023 
2030.803 6656420 6681924 6715203 6748384 6775980 6798025 6819902 6848445 
2034.660 6888638 6940349 6999103 7058101 7111583 7158166 7198658 7235210 
2038.518 7270284 7302833 7331003 7353042 7369118 7382093 7395742 7413639 
2042.375 7436896 7462446 7486110 7503639 7513786 7517900 7519484 7521844 
2046.233 7526463 7531048 7532834 7528958 7517765 7499729 7475660 7444075 
2050.090 7402011 7346100 7274394 7189326 7099088 7014626 6947991 6907658 
2053.948 6893957 6899949 6914021 6924693 6924256 6912304 6893317 6873927 
2057.805 6859385 6850498 6844742 6838886 6831312 6823672 6820979 6827812 
2061.662 6847032 6877361 6913550 6948799 6978765 7001292 7017791 7030992 
2065.520 7042812 7052813 7058337 7056518 7045708 7026951 7003379 6977991 
2069.377 6953075 6928060 6901161 6870696 6836967 6801659 6769485 6743369 
2073.235 6724087 6709247 6694408 6675060 6649321 6618805 6587519 6560439 
2077.092 6540122 6525692 6513550 6499390 6479782 6454962 6427924 6402771 
2080.949 6383436 6371096 6364338 6360438 6357244 6353243 6349040 6345610 
2084.807 6343021 6340265 6335120 6325572 6310612 6291516 6271078 6251917 
2088.664 6235480 6221295 6207145 6190574 6170645 6148094 6125847 6107802 
2092.522 6096209 6092513 6095906 6105114 6118824 6136634 6158243 6182676 
2096.379 6207716 6229664 6244723 6250371 6246370 6235345 6222102 6210304 
2100.237 6202607 6199347 6199111 6200523 6203884 6210808 6224286 6247211 
2104.094 6279179 6318176 6359934 6400216 6435961 6466497 6492562 6515736 
2107.951 6536758 6555629 6571103 6583415 6593372 6603431 6616720 6635156 
2111.809 6658371 6683472 6706319 6722909 6731726 6733947 6732600 6731894 
2115.666 6735259 6744278 6759321 6779581 6804352 6833197 6865410 6899343 
2119.524 6932403 6961392 6983647 6999036 7009508 7019139 7032406 7051702 
2123.381 7075883 7100502 7119296 7126639 7119936 7099492 7068777 7031631 
2127.239 6990247 6944456 6892274 6831413 6761206 6683236 6601749 6521891 
2131.096 6448740 6385152 6333070 6293063 6265699 6252018 6252488 6265733 
2134.953 6287482 6311519 6331052 6340198 6337407 6324295 6305938 6286743 
2138.811 6269867 6255984 6243211 6230102 6215783 6201263 6188995 6180424 
2142.668 6175047 6170947 6165334 6156260 6143960 6131728 6121479 6114119 
2146.526 6107163 6095738 6073763 6038887 5993028 5942169 5895380 5858436 
2150.383 5834155 5819984 5810413 5799802 5785766 5768406 5750678 5734394 
2154.240 5718548 5699612 5676046 5650231 5632978 5641302 5695819 5810884 
2158.098 5988728 6215614 6464614 6707632 6919576 7087771 7210785 7294510 
2161.955 7347280 7376801 7388968 7387519 7377543 7363389 7349909 7339495 
2165.813 7332284 7324567 7312638 7293061 7266005 7234334 7201723 7170630 
2169.670 7140584 7108552 7070528 7024998 6974388 6925333 6886719 6865949 
2173.528 6865949 6883892 6913651 6946308 6974153 6993345 7002234 7001022 
2177.385 6990853 6971762 6945130 6913314 6881636 6856591 6844574 6848883 
2181.242 6868710 6898502 6929743 6956240 6974153 6984826 6991560 6999642 
2185.100 7012505 7030891 7053252 7077701 7103197 7129805 7158739 7190505 
2188.957 7223857 7256099 7284132 7305192 7319411 7328375 7335182 7342966 
2192.815 7352672 7363321 7373903 7383070 7390788 7399315 7410235 7425571 
2196.672 7444985 7467232 7489851 7511157 7529362 7544399 7556165 7563549 
2200.530 7564628 7558963 7546152 7528722 7511022 7498920 7496796 7506505 
2204.387 7526598 7552591 7580980 7607955 7633246 7658066 7683763 7710745 
2208.244 7737458 7760698 7776923 7784783 7784986 7780296 7773955 7768929 
2212.102 7765049 7761508 7756110 7748218 7739111 7731555 7728520 7732264 
2215.959 7742652 7757257 7772639 7786065 7796286 7803776 7809949 7816325 
2219.817 7823713 7832519 7842741 7854380 7868180 7884274 7901550 7917949 
2223.674 7929523 7932290 7923483 7903372 7874490 7841459 7808971 7780803 
2227.531 7757899 7739616 7724573 7711757 7700964 7691959 7685281 7679851 
2231.389 7673781 7665383 7654086 7641002 7629604 7624074 7627378 7640260 
2235.246 7660291 7683055 7703696 7718873 7727575 7730914 7731319 7731049 
2239.104 7731555 7733376 7736851 7742517 7751894 7765454 7782894 7802494 
2242.961 7821182 7835623 7844394 7848172 7850332 7855191 7865716 7882047 
2246.819 7901685 7918793 7927870 7925407 7911065 7888289 7861803 7837579 
2250.676 7819092 7808599 7806306 7811433 7823477 7841391 7864401 7890989 
2254.533 7918657 7943865 7964079 7976937 7981695 7979165 7970963 7958241 
2258.391 7942549 7924968 7907016 7890584 7877829 7870575 7870103 7875906 
2262.248 7885995 7898411 7911504 7924664 7939006 7956114 7976903 8001034 
2266.106 8026887 8051426 8071881 8086835 8096152 8101250 8103883 8105638 
2269.963 8107494 8109655 8112019 8114753 8118163 8122484 8127075 8131194 
2273.821 8132983 8131362 8126366 8119243 8112829 8109756 8112727 8122382 
2277.678 8137946 8157528 8179170 8201860 8225125 8249607 8275408 8302797 
2281.535 8330763 8357784 8383186 8406157 8426799 8445379 8461698 8475009 
2285.393 8484538 8489471 8489775 8486937 8483118 8480618 8481125 8484841 
2289.250 8490721 8496566 8500857 8502715 8502412 8501600 8501871 8505114 
2293.108 8511873 8522449 8536743 8554112 8574490 8596558 8619270 8640260 
2296.965 8657700 8669666 8675311 8675379 8671288 8664900 8658173 8651751 
2300.823 8645430 8638164 8628868 8616904 8602135 8584899 8565602 8544616 
2304.680 8521739 8497107 8471225 8444906 8419737 8397003 8377679 8361905 
2308.537 8349340 8339071 8330290 8322487 8315091 8307796 8299622 8289727 
2312.395 8277232 8261899 8244711 8227387 8211888 8199834 8191596 8185855 
2316.252 8180385 8172957 8162153 8148142 8132139 8116103 8101553 8089232 
2320.110 8079173 8070565 8063173 8056151 8049198 8040523 8026988 8004881 
2323.967 7970120 7920311 7855865 7780128 7698738 7618038 7543286 7477312 
2327.824 7420380 7371038 7327195 7287872 7254178 7228102 7211459 7205698 
2331.682 7209909 7221532 7238040 7257312 7278741 7302731 7329790 7359614 
2335.539 7390552 7419807 7444345 7462479 7473705 7479132 7481121 7481660 
2339.397 7482941 7485907 7491436 7500201 7512607 7528283 7545545 7561627 
2343.254 7573495 7579295 7580947 7584217 7599121 7636146 7704033 7806103 
2347.112 7938904 8093687 8259097 8422338 8571989 8698974 8797118 8863193 
2350.969 8897383 8903504 8887778 8857647 8821025 8784338 8751610 8725274 
2354.826 8706005 8694342 8690624 8695593 8709622 8733016 8765438 8806180 
2358.684 8853758 8907428 8966381 9029774 9097271 9167214 9237778 9307168 
2362.541 9374099 9438669 9502064 9566415 9633351 9702907 9773287 9841238 
2366.399 9903505 9957779 10003719 10043120 10078794 10113250 10147844 
2369.774 10182612 10216431 10248319 10278344 10307998 10339961 10377322 
2373.149 10423035 10479004 10547032 10628177 10723804 10835215 10963509 
2376.524 11109040 11271283 11448656 11639274 11841313 12053086 12273621 
2379.900 12501394 12735156 12972048 13208864 13441742 13666984 13881942 
2383.275 14084686 14273826 14448525 14607361 14748736 14870614 14971364 
2386.650 15050322 15107404 15143531 15160000 15158113 15139208 15104488 
2390.025 15055433 14993863 14922083 14842293 14756517 14665928 14571552 
2393.401 14473669 14373102 14271087 14169883 14072056 13980171 13896311 
2396.776 13821975 13758290 13706410 13667667 13643904 13636997 13648075 
2400.151 13677413 13723714 13784727 13857482 13939419 14028866 14124903 
2403.526 14228254 14339712 14460789 14592694 14736637 14893416 15063666 
2406.902 15247262 15443605 15651373 15869068 16094953 16327631 16566215 
2410.277 16809994 17058044 17308686 17559506 17807122 18047592 18276652 
2413.652 18490794 18686360 18860248 19009938 19133296 19229048 19297214 
2417.027 19339406 19358322 19357318 19339892 19308750 19265312 19210486 
2420.403 19144688 19068620 18983702 18891844 18795404 18696598 18597332 
2423.778 18499264 18404640 18315532 18235046 18166738 18113638 18078162 
2427.153 18061442 18063584 18084242 18123346 18180936 18257682 18354830 
2430.528 18472572 18610890 18768764 18945108 19138732 19348898 19575632 
2433.904 19818400 20076644 20349034 20633198 20927566 21230272 21541268 
2437.279 21861546 22193148 22538756 22900776 23281482 23682576 24105404 
2440.654 24551152 25020488 25513594 26029666 26567032 27123932 27698322 
2444.029 28288502 28893614 29513082 30145938 30790884 31445730 32107952 
2447.405 32774936 33444020 34113204 34780444 35443784 36100576 36748160 
2450.780 37383204 38002900 38603896 39183200 39737640 40262948 40754464 
2454.155 41206968 41615160 41974132 42279492 42526340 42710156 42825696 
2457.530 42867348 42830524 42711436 42508256 42221392 41852764 41405272 
2460.906 40881968 40286072 39620892 38890440 38100048 37255888 36365660 
2464.281 35437960 34481456 33505112 32518320 31530198 30550400 29588732 
2467.656 28654178 27755184 26899042 26090780 25333930 24630748 23982168 
2471.031 23388400 22848978 22362378 21925770 21535104 21184798 20868460 
2474.406 20580180 20314762 20067934 19837546 19621698 19419196 19229118 
2477.782 19049958 18880560 18719326 18565724 18419090 18278968 18145040 
2481.157 18016922 17894434 17777332 17666058 17561404 17464294 17375204 
2484.532 17294306 17220940 17153962 17092438 17035922 16984270 16938342 
2487.907 16898588 16865932 16840200 16820842 16807066 16798042 16792946 
2491.283 16791464 16793496 16798698 16807376 16819672 16835724 16856012 
2494.658 16880674 16909440 16941478 16975104 17008562 17040126 17068970 
2498.033 17094988 17119010 17142278 17165164 17187950 17209734 17229558 
2501.408 17246556 17260656 17272482 17283100 17293722 17305134 17317478 
2504.784 17330478 17344098 17358168 17373204 17389344 17406588 17424144 
2508.159 17440908 17455360 17466018 17472054 17473020 17468398 17457600 
2511.534 17439528 17413314 17377826 17332824 17279170 17217870 17150790 
2514.909 17079412 17004666 16926906 16846606 16764913 16683474 16604461 
2518.285 16530210 16462170 16400605 16344694 16293263 16244967 16199633 
2521.660 16158260 16122187 16092822 16070953 16056066 16046954 16042279 
2525.035 16040836 16042210 16046816 16055515 16068855 16087113 16109945 
2528.410 16137043 16167788 16201559 16237950 16275959 16314488 16352160 
2531.786 16388081 16422216 16455596 16490148 16528284 16571585 16621122 
2535.161 16676862 16737845 16803140 16872096 16944440 17020276 17099056 
2538.536 17180020 17261862 17343030 17422904 17500926 17578206 17655500 
2541.911 17733634 17812576 17891258 17968502 18043448 18115812 18186430 
2545.287 18256540 18327214 18398728 18470360 18540862 18609264 18674496 
2548.662 18736900 18797306 18856338 18914338 18970756 19024720 19075508 
2552.037 19122838 19167232 19210000 19252116 19294374 19336566 19377654 
2555.412 19416252 19451146 19481154 19505342 19523366 19534038 19536500 
2558.788 19530018 19514354 19490026 19458734 19422106 19382018 19339372 
2562.163 19294200 19245604 19192234 19133470 19069414 19001494 18931540 
2565.538 18862290 18796236 18735654 18681794 18635826 18597922 18567902 
2568.913 18544942 18527652 18514928 18505176 18497880 18493110 18491588 
2572.289 18494666 18503794 18520148 18544008 18575510 18614142 18659138 
2575.664 18709330 18763642 18820282 18877898 18934896 18990622 19045110 
2579.039 19098914 19153484 19210000 19269330 19331854 19397402 19465802 
2582.414 19536742 19610468 19687186 19766762 19848816 19931996 20014636 
2585.790 20095730 20174584 20251680 20328060 20405254 20484372 20565484 
2589.165 20647654 20729770 20810302 20888590 20964212 21037486 21108752 
2592.540 21177980 21245058 21310026 21372776 21434108 21495134 21557562 
2595.915 21622578 21690910 21763086 21838966 21918240 22000910 22087432 
2599.291 22178050 22273186 22372982 22477130 22585454 22697576 22813812 
2602.666 22934656 23060810 23192768 23330464 23473098 23619806 23769012 
2606.041 23919356 24069644 24219284 24368136 24516126 24663538 24810646 
2609.416 24957524 25103434 25247426 25387110 25519706 25641692 25750142 
2612.792 25842758 25918580 25977320 26020134 26047926 26061824 26062880 
2616.167 26051586 26029210 25997056 25956708 25910352 25859320 25805098 
2619.542 25748244 25689322 25629040 25568518 25509480 25453756 25403060 
2622.917 25358728 25320828 25289464 25264074 25244864 25232116 25227024 
2626.292 25230290 25242512 25263686 25292906 25329258 25371936 25420240 
2629.668 25474344 25534640 25601096 25673644 25751758 25834670 25921782 
2633.043 26012816 26107706 26206662 26309620 26416158 26525504 26636606 
2636.418 26748652 26861396 26974910 27089580 27206046 27324698 27445004 
2639.793 27566154 27687020 27806474 27923698 28038268 28150178 28259576 
2643.169 28367334 28473706 28579326 28684654 28789652 28894746 28999832 
2646.544 29104872 29210078 29315664 29422374 29530850 29642404 29757534 
2649.919 29877414 30002122 30131908 30266600 30406204 30550614 30699732 
2653.294 30853772 31012888 31177222 31346924 31522326 31703460 31890274 
2656.670 32082550 32279912 32481574 32686834 32894724 33104684 33316102 
2660.045 33528522 33741972 33955892 34170016 34383784 34596904 34809092 
2663.420 35019976 35229672 35438316 35645912 35852960 36060180 36268432 
2666.795 36478984 36693132 36911900 37135648 37364208 37596860 37832348 
2670.171 38069812 38308848 38549032 38790580 39033752 39278000 39522496 
2673.546 39766036 40006776 40243428 40474756 40700168 40919216 41132104 
2676.921 41338904 41539932 41735912 41927968 42117620 42306888 42498280 
2680.296 42694584 42898180 43111824 43337692 43577892 43834020 44107208 
2683.672 44398216 44706976 45033232 45376656 45736688 46112980 46505124 
2687.047 46912532 47334032 47768184 48213172 48667144 49128604 49596792 
2690.422 50071472 50553332 51042812 51540756 52047856 52564156 53089900 
2693.797 53625360 54170152 54724152 55286580 55856672 56433320 57015872 
2697.173 57603828 58196936 58795292 59399032 60007304 60619400 61233616 
2700.548 61848364 62462296 63074036 63682720 64286924 64885192 65474732 
2703.923 66052504 66614776 67157280 67676032 68167024 68626168 69049552 
2707.298 69433112 69773200 70067136 70312728 70509120 70656472 70755440 
2710.674 70807304 70813192 70774816 70693400 70570512 70407328 70204176 
2714.049 69960816 69676368 69349304 68978984 68564744 68107832 67610552 
2717.424 67076376 66508836 65911948 65289928 64645952 63984312 63309304 
2720.799 62625692 61938652 61253572 60575476 59909124 59258300 58626616 
2724.175 58017016 57432096 56873988 56344736 55846460 55380936 54950052 
2727.550 54555472 54198564 53880060 53600168 53358336 53153524 52984288 
2730.925 52849064 52746540 52675688 52636112 52626876 52647260 52695812 
2734.300 52770784 52870132 52991440 53132664 53292100 53467376 53656588 
2737.676 53856912 54065140 54277776 54490560 54699352 54900796 55091728 
2741.051 55269948 55434276 55584276 55720736 55844840 55958648 56064120 
2744.426 56163208 56257488 56348240 56436676 56523960 56611940 56702396 
2747.801 56797016 56896496 57001368 57110340 57222368 57336012 57450780 
2751.177 57567396 57687980 57815632 57953400 58104960 58273128 58460204 
2754.552 58668520 58900008 59156304 59438392 59746744 60080276 60436876 
2757.927 60813624 61206724 61611940 62024908 62440720 62853672 63257904 
2761.302 63646732 64013144 64350860 64654260 64918628 65140232 65316268 
2764.677 65444724 65524316 65554724 65537268 65473968 65368996 65227084 
2768.053 65053388 64853684 64633340 64397624 64152168 63901776 63651264 
2771.428 63405184 63166684 62938348 62721468 62516668 62324280 62144248 
2774.803 61976332 61819980 61673840 61536072 61403920 61273752 61141532 
2778.178 61002028 60850104 60679980 60485852 60262536 60006620 59716212 
2781.554 59392156 59037704 58658320 58259980 57849436 57433004 57015308 
2784.929 56600844 56192696 55793408 55405176 55029212 54666468 54316976 
2788.304 53980300 53655724 53342524 53040780 52750504 52472280 52206560 
2791.679 51953624 51713344 51485652 51269676 51064912 50870044 50683716 
2795.055 50503640 50327368 50151384 49972500 49787820 49594788 49391552 
2798.430 49176800 48949176 48707508 48450308 48176484 47885112 47576748 
2801.805 47252272 46913456 46562104 46200020 45828364 45447760 45058448 
2805.180 44661216 44257160 43848972 43439740 43033672 42635364 42248820 
2808.556 41877720 41525280 41193232 40883244 40596396 40333188 40093800 
2811.931 39878544 39686740 39518064 39371260 39245356 39138996 39050752 
2815.306 38979560 38924796 38886200 38864568 38860656 38875768 38911244 
2818.681 38967708 39045424 39144328 39263744 39403332 39562668 39741636 
2822.057 39940364 40158812 40396056 40651080 40921468 41204596 41496876 
2825.432 41794280 42092832 42388128 42675352 42950228 43207744 43442888 
2828.807 43651488 43829180 43973028 44080836 44151404 44184888 44182140 
2832.182 44144948 44075224 43975228 43847944 43696884 43525912 43340072 
2835.558 43144608 42944628 42744412 42547100 42353712 42164064 41977492 
2838.933 41792348 41608084 41424444 41242672 41064720 40892816 40729208 
2842.308 40576348 40436204 40310936 40203156 40115892 40052916 40018112 
2845.683 40015168 40046268 40111676 40208136 40328064 40460060 40589156 
2849.059 40697328 40767236 40784016 40736556 40619464 40433952 40186872 
2852.434 39888860 39553920 39197160 38832644 38474264 38133940 37820600 
2855.809 37541296 37299464 37095948 36928384 36792696 36683036 36592840 
2859.184 36515780 36446120 36378488 36308920 36233928 36151344 36060396 
2862.560 35961148 35855156 35744908 35633684 35524968 35422320 35329328 
2865.935 35248860 35183788 35136072 35106868 35096952 35105428 35131080 
2869.310 35172540 35228164 35296444 35376560 35467224 35566972 35673860 
2872.685 35785204 35898484 36012084 36125456 36239616 36357448 36482660 
2876.061 36618508 36768172 36933148 37114064 37310840 37522508 37748416 
2879.436 37987752 38239260 38501456 38772324 39049664 39330956 39614136 
2882.811 39897612 40179672 40458500 40732228 40997896 41252580 41493088 
2886.186 41717240 41923660 42112296 42284244 42442084 42588544 42727156 
2889.562 42861424 42995004 43131876 43275860 43431316 43602984 43796084 
2892.937 44016512 44271248 44567844 44913724 45316260 45780612 46308236 
2896.312 46894960 47530056 48194256 48859508 49493324 50058568 50518272 
2899.687 50843336 51013000 51020192 50871012 50584232 50187984 49712728 
2903.063 49191348 48653320 48121400 47614308 47145188 46721912 46349520 
2906.438 46030676 45765628 45553800 45394492 45286508 45229656 45223992 
2909.813 45269808 45367164 45514944 45710408 45948716 46223716 46527324 
2913.188 46849784 47181496 47510724 47825960 48115996 48370000 48579536 
2916.563 48739236 48846900 48903708 48913760 48882792 48817204 48722816 
2919.939 48605032 48467568 48313336 48144316 47961776 47766892 47560812 
2923.314 47344784 47120776 46890976 46657568 46422892 46189036 45957260 
2926.689 45728372 45503352 45282644 45067820 44860668 44663568 44479660 
2930.064 44311796 44162700 44034776 43929216 43846844 43787288 43749724 
2933.440 43732428 43733932 43752656 43787800 43838784 43905640 43988244 
2936.815 44085784 44196740 44318584 44448500 44584032 44723836 44867688 
2940.190 45016764 45172736 45336964 45509128 45686736 45864856 46036312 
2943.565 46191212 46319476 46409652 46450840 46434248 46353536 46207168 
2946.941 45998000 45734516 45429808 45098512 44756820 44418880 44095140 
2950.316 43792016 43512176 43254520 43016036 42792856 42581128 42377532 
2953.691 42179292 41984352 41790812 41597180 41402032 41204088 41002376 
2957.066 40795880 40583952 40366424 40143656 39916208 39685508 39452896 
2960.442 39220044 38988476 38759932 38535996 38318472 38109200 37909788 
2963.817 37721960 37547256 37386848 37242172 37114536 37005592 36917492 
2967.192 36851880 36809680 36790748 36792660 36811664 36842680 36879580 
2970.567 36916916 36949812 36974780 36989356 36992712 36984920 36967348 
2973.943 36942204 36912332 36880552 36848740 36817036 36782380 36738352 
2977.318 36675504 36582460 36446660 36257592 36007260 35692316 35314052 
2980.693 34878956 34397988 33884668 33354490 32823640 32305930 31813684 
2984.068 31355974 30938696 30565224 30237328 29956182 29722974 29539468 
2987.444 29407022 29325272 29290284 29293262 29318606 29345300 29348312 
2990.819 29300244 29178184 28965226 28654886 28251866 27772422 27241712 
2994.194 26687516 26138532 25618810 25143914 24721968 24353416 24033502 
2997.569 23754382 23508284 23288372 23089392 22907656 22740378 22584790 
3000.945 22438642 22299486 22165392 22035246 21908658 21785522 21666424 
3004.320 21551642 21441452 21336058 21235698 21140580 21051118 20967934 
3007.695 20891162 20820626 20755592 20694566 20636466 20579658 20523484 
3011.070 20467456 20411990 20357714 20305700 20257026 20212418 20172674 
3014.446 20138138 20109472 20087678 20073520 20068002 20071716 20084382 
3017.821 20104994 20131196 20160108 20188570 20214014 20234426 20248450 
3021.196 20255984 20256644 20249944 20235120 20211030 20177186 20133800 
3024.571 20082508 20025912 19967624 19910730 19857972 19810910 19769780 
3027.947 19734378 19703726 19677168 19653662 19632446 19612168 19590952 
3031.322 19566480 19536880 19500594 19457034 19407104 19352606 19295966 
3034.697 19239680 19186346 19137866 19095832 19061140 19034414 19015858 
3038.072 19005094 19001666 19004748 19013538 19027490 19045908 19068514 
3041.448 19094516 19123392 19154176 19186104 19218450 19250834 19282942 
3044.823 19314672 19345676 19375368 19402772 19427478 19448754 19467084 
3048.198 19483302 19498412 19513384 19528494 19543294 19556430 19566584 
3051.573 19572824 19574278 19570986 19563258 19551162 19535008 19514700 
3054.948 19490232 19462130 19431672 19400382 19370066 19342248 19318102 
3058.324 19298044 19281730 19268706 19258556 19250694 19244322 19238920 
3061.699 19233414 19226970 19219212 19210414 19201064 19192580 19186346 
3065.074 19183160 19183266 19186208 19191298 19197670 19205152 19213706 
3068.449 19223992 19236322 19250798 19267216 19284986 19303864 19324164 
3071.825 19346162 19370932 19399030 19430804 19465664 19502640 19540730 
3075.200 19578682 19616014 19653004 19689614 19726574 19763954 19801754 
3078.575 19839868 19878092 19916176 19953850 19991008 20027160 20061686 
3081.950 20094168 20124116 20151362 20175902 20198184 20218596 20237308 
3085.326 20254840 20271502 20287750 20304764 20323442 20345180 20371084 
3088.701 20401400 20435956 20473986 20514208 20555304 20596370 20636498 
3092.076 20675522 20713644 20751074 20788542 20827196 20867730 20911154 
3095.451 20958232 21009004 21062908 21119326 21176518 21233054 21287546 
3098.827 21338772 21386246 21430104 21470730 21509096 21546490 21584098 
3102.202 21622646 21662976 21704844 21747862 21791234 21834542 21877434 
3105.577 21920436 21964280 22009694 22057312 22107374 22159396 22213270 
3108.952 22268234 22323866 22380134 22437002 22494158 22551110 22606850 
3112.328 22660746 22712170 22761050 22808330 22855196 22902800 22952122 
3115.703 23003580 23056756 23110988 23165646 23220378 23275086 23330008 
3119.078 23385324 23441098 23497058 23552638 23607246 23660566 23712250 
3122.453 23762258 23810592 23856972 23901536 23944422 23986020 24027164 
3125.829 24068944 24112408 24158574 24207932 24260416 24315710 24373112 
3129.204 24431680 24490782 24550030 24609250 24668202 24727158 24786088 
3132.579 24845132 24904184 24962998 25021646 25079352 25135980 25191630 
3135.954 25246126 25300176 25354266 25408646 25463524 25518616 25573648 
3139.330 25628300 25682644 25737274 25793036 25850706 25910598 25972398 
3142.705 26035260 26097924 26159152 26218348 26275826 26332642 26390066 
3146.080 26449576 26511664 26576896 26644674 26714506 26785724 26857872 
3149.455 26930664 27004174 27078402 27152890 27227320 27300808 27372300 
3152.831 27441510 27507658 27571098 27632426 27692882 27753666 27815940 
3156.206 27880980 27948892 28019712 28092664 28166972 28241964 28317184 
3159.581 28392980 28469886 28548292 28629120 28712334 28797938 28885114 
3162.956 28972948 29060408 29146822 29231484 29314636 29396316 29477124 
3166.332 29557982 29639388 29721342 29803772 29885508 29965058 30040964 
3169.707 30111558 30176410 30235480 30289444 30339008 30385022 30427632 
3173.082 30466408 30500562 30529036 30550934 30565972 30574576 30577418 
3176.457 30576102 30572476 30568636 30566540 30567820 30573614 30584030 
3179.833 30598536 30616314 30635584 30655140 30674554 30693224 30711396 
3183.208 30729496 30747206 30764598 30781492 30797642 30813506 30829904 
3186.583 30847618 30867682 30890238 30914894 30941292 30968548 30996374 
3189.958 31025022 31055450 31088480 31124820 31164194 31205490 31247218 
3193.333 31287524 31325202 31359356 31389878 31416808 31440634 31461940 
3196.709 31481388 31499878 31518620 31538534 31560946 31585962 31613224 
3200.084 31641874 31670314 31697258 31722032 31744774 31765592 31785522 
3203.459 31805020 31824342 31843848 31863600 31883746 31904858 31926968 
3206.834 31949970 31973474 31996798 32019198 32040562 32061540 32082692 
3210.210 32105454 32130606 32157722 32185770 32213140 32238156 32259818 
3213.585 32278412 32294866 32310926 32328096 32347016 32367646 32389138 
3216.960 32410130 32429696 32446832 32461758 32474968 32487680 32501106 
3220.335 32516856 32535568 32558352 32585208 32615748 32649002 32683690 
3223.711 32718662 32752998 32786190 32818458 32849870 32880712 32910592 
3227.086 32939154 32965712 32989916 33011864 33031884 33050656 33069142 
3230.461 33087984 33107866 33129216 33152602 33178530 33207606 33239942 
3233.836 33275354 33313024 33351950 33390630 33428166 33464096 33498206 
3237.212 33531062 33562776 33593668 33624100 33654316 33685004 33716976 
3240.587 33751140 33787884 33826964 33867368 33907560 33946324 33982652 
3243.962 34016836 34049880 34083100 34117400 34153528 34190812 34228164 
3247.337 34264628 34300052 34334728 34369800 34406668 34445692 34487052 
3250.713 34529672 34572220 34613376 34652024 34687588 34720248 34750076 
3254.088 34777068 34801552 34823740 34844344 34864092 34884124 34905272 
3257.463 34928040 34952496 34978028 35003924 35029676 35054708 35078952 
3260.838 35102016 35123464 35143116 35160324 35174912 35186912 35196396 
3264.214 35203944 35209800 35213792 35215588 35214832 35211132 35204664 
3267.589 35196112 35186232 35176316 35166684 35157952 35149904 35142580 
3270.964 35136040 35130472 35125872 35122024 35118256 35113228 35105860 
3274.339 35094728 35079564 35060420 35038508 35015128 34991712 34969336 
3277.715 34948652 34929620 34912312 34896192 34881216 34866964 34853320 
3281.090 34840108 34827148 34815012 34803992 34795052 34788448 34784068 
3284.465 34781556 34779476 34776460 34771544 34764112 34754276 34743188 
3287.840 34731804 34720644 34710700 34701300 34692004 34682456 34672552 
3291.216 34662684 34654000 34647720 34644920 34646248 34651880 34661280 
3294.591 34673664 34687840 34702556 34717052 34730908 34743832 34756572 
3297.966 34769748 34783856 34799684 34817132 34835764 34855008 34874432 
3301.341 34893964 34914036 34935508 34959748 34987688 35019796 35056112 
3304.717 35095876 35138340 35182240 35226904 35271716 35316712 35362036 
3308.092 35408660 35457300 35509076 35564312 35623220 35685156 35748796 
3311.467 35812696 35875452 35936272 35994984 36052116 36108644 36165644 
3314.842 36223768 36283056 36343432 36404536 36466188 36528540 36591432 
3318.218 36654776 36718124 36780360 36840340 36897252 36950500 37000216 
3321.593 37047412 37093024 37137996 37183220 37228884 37274804 37320696 
3324.968 37366012 37410540 37453556 37494552 37533132 37568860 37601808 
3328.343 37632268 37660776 37687520 37712200 37734608 37753620 37768800 
3331.719 37780004 37787380 37791788 37793708 37793232 37789112 37780260 
3335.094 37764788 37741980 37711984 37676536 37637904 37598412 37559684 
3338.469 37521824 37484112 37444848 37402520 37356044 37304988 37249316 
3341.844 37189396 37125072 37056004 36981600 36901112 36814116 36720536 
3345.219 36620668 36514700 36403564 36288316 36170180 36051360 35934116 
3348.595 35820464 35711848 35608476 35509472 35412792 35316604 35218748 
3351.970 35118544 35015596 34910412 34803848 34696420 34588152 34479124 
3355.345 34369476 34259784 34150984 34044428 33941632 33843260 33749708 
3358.720 33660832 33575556 33493374 33413746 33336672 33261906 33189834 
3362.096 33120346 33053550 32988876 32925822 32863486 32801058 32737884 
3365.471 32673470 32608352 32543424 32479898 32419770 32364470 32314390 
3368.846 32269132 32227558 32187018 32145698 32101530 32053620 32002040 
3372.221 31947330 31890094 31830904 31769798 31706526 31640414 31571068 
3375.597 31497634 31420402 31339020 31253662 31164264 31070720 30972748 
3378.972 30869924 30761646 30647104 30525944 30397212 30260490 30115430 
3382.347 29962076 29800826 29632044 29456378 29274474 29087086 28895066 
3385.722 28699414 28501234 28301798 28101606 27901684 27702100 27502784 
3389.098 27303562 27103618 26902532 26700272 26496696 26292124 26087860 
3392.473 25885064 25685174 25489770 25299228 25113686 24931942 24752518 
3395.848 24573590 24393932 24213154 24031646 23850706 23671448 23494608 
3399.223 23320078 23147122 22974480 22801520 22627966 22454656 22282568 
3402.599 22112604 21945040 21778970 21612860 21445074 21274046 21099952 
3405.974 20923218 20746174 20570592 20398412 20231128 20069182 19911944 
3409.349 19759274 19610018 19463342 19318482 19175196 19032856 18891670 
3412.724 18751602 18613172 18476688 18342560 18211238 18082616 17956346 
3416.100 17832254 17709958 17588866 17468708 17348650 17228214 17106500 
3419.475 16983510 16859558 16735984 16614512 16496928 16384812 16278539 
3422.850 16177416 16080236 15985209 15890650 15796216 15701836 15608368 
3426.225 15516535 15426851 15339072 15252375 15165525 15077764 14988376 
3429.601 14897702 14806088 14714630 14624323 14535987 14450546 14368685 
3432.976 14290502 14215894 14143832 14072980 14001934 13929052 13853446 
3436.351 13775356 13696015 13616654 13539222 13464436 13392088 13321119 
3439.726 13249377 13175152 13097355 13015816 12931834 12847596 12765729 
3443.102 12688004 12615684 12548116 12483866 12420683 12356282 12289027 
3446.477 12218579 12145485 12071789 11999469 11930702 11866851 11808251 
3449.852 11754426 11704352 11656461 11609733 11563146 11516020 11467639 
3453.227 11417836 11366134 11312976 11258361 11203346 11148236 11094050 
3456.603 11041061 10989165 10937990 10886820 10834740 10781646 10726827 
3459.978 10670520 10612897 10554365 10494958 10435695 10377221 10320857 
3463.353 10267556 10218195 10172877 10130818 10091274 10052886 10014976 
3466.728 9977071 9938726 9900454 9861710 9822055 9781013 9737774 9692031 
3470.586 9644464 9595953 9547786 9501149 9456243 9412969 9370544 9328597 
3474.443 9287434 9247662 9210668 9177333 9148196 9122445 9098556 9074669 
3478.301 9048990 9020234 8988470 8954137 8918013 8880947 8843613 8806924 
3482.158 8771490 8738358 8708371 8682849 8661790 8644619 8630525 8617715 
3486.015 8604805 8590678 8574693 8557018 8538331 8519475 8501161 8484605 
3489.873 8470313 8459096 8451528 8447406 8446629 8448251 8451190 8454670 
3493.730 8457812 8460582 8463286 8466394 8470246 8475347 8482206 8491667 
3497.588 8504641 8522416 8545866 8575469 8610381 8649216 8689542 8729060 
3501.445 8766621 8802089 8836715 8872965 8913312 8959752 9012859 9072606 
3505.302 9137435 9205997 9276330 9347014 9416591 9484555 9550225 9614550 
3509.160 9678851 9745263 9815819 9892589 9975986 10065637 10160055 10256937 
3513.017 10354077 10450052 10543909 10635816 10725264 10812421 10895960 
3516.393 10975471 11050136 11119986 11185395 11247514 11306548 11362324 
3519.768 11413720 11458352 11493938 11518232 11529868 11528779 11515816 
3523.143 11492781 11461277 11422632 11377392 11325423 11265842 11197532 
3526.518 11119578 11031442 10933539 10827130 10713887 10595751 10474456 
3529.894 10351532 10227253 10102059 9976222 9849745 9722729 9594970 9465624 
3533.751 9333235 9196454 9054065 8906041 8754010 8600952 8451089 8307964 
3537.608 8174240 8050413 7935496 7827391 7723595 7622320 7522485 7424054 
3541.466 7326488 7229516 7132129 7033181 6931023 6825321 6715809 6603566 
3545.323 6490275 6378628 6270775 6169704 6077022 5994372 5921813 5858470 
3549.181 5801918 5748798 5695215 5638147 5575717 5508295 5437731 5367614 
3553.038 5301064 5241164 5188414 5142846 5102547 5066240 5031512 4997323 
3556.896 4962298 4925936 4887332 4845749 4800452 4751843 4700459 4648143 
3560.753 4597241 4550161 4509381 4476371 4451364 4432786 4417622 4401087 
3564.610 4377256 4341076 4288838 4220278 4139218 4053390 3972495 3905255 
3568.468 3857013 3828499 3816298 3814426 3815997 3815930 3810181 3797446 
3572.325 3778127 3753527 3725956 3697416 3669814 3644319 3622033 3603223 
3576.183 3587521 3574191 3562030 3549603 3535840 3520173 3502369 3483364 
3580.040 3464259 3446224 3430627 3418504 3410857 3408018 3409755 3414898 
3583.897 3420842 3423581 3418237 3399236 3362603 3306476 3233664 3150919 
3587.755 3068523 2997686 2947611 2922492 2921991 2940839 2971230 3004159 
3591.612 3031752 3047401 3047601 3031785 3002958 2966192 2927529 2892971 
3595.470 2867121 2851479 2845709 2847076 2851946 2856248 2856782 2851279 
3599.327 2839572 2822763 2804154 2786847 2774408 2768673 2770407 2778777 
3603.185 2792249 2808890 2827499 2846009 2862785 2875293 2880129 2873659 
3607.042 2853613 2819829 2775976 2729393 2689050 2662112 2652044 2656378 
3610.899 2669147 2681849 2686716 2680115 2662579 2639477 2618109 2605108 
3614.757 2603675 2613009 2628576 2643877 2652611 2649244 2630676 2596875 
3618.614 2550445 2496555 2442405 2395259 2361077 2343154 2341954 2355147 
3622.472 2379067 2410285 2446637 2487558 2533747 2585875 2641643 2695218 
3626.329 2736028 2750266 2724625 2651411 2536280 2398990 2268805 2174488 
3630.187 2130101 2133597 2170092 2221178 2270270 2306444 2326098 2331361 
3634.044 2328929 2325665 2326331 2332593 2342887 2354480 2365241 2374636 
3637.901 2383531 2393326 2404288 2416183 2426911 2434608 2438340 2439073 
3641.759 2439140 2442805 2453701 2474495 2504987 2543013 2583842 2621742 
3645.616 2650678 2665579 2662479 2639810 2597408 2537247 2462632 2378767 
3649.474 2292620 2213051 2150213 2114185 2110123 2138758 2194502 2267239 
3653.331 2342654 2406553 2446204 2452968 2426212 2373470 2310308 2253817 
3657.188 2218180 2210054 2227206 2262243 2305145 2347551 2383065 2408953 
3661.046 2424779 2432309 2433709 2432043 2429810 2429910 2435108 2447603 
3664.903 2469296 2500454 2539513 2583042 2625542 2659079 2675814 2668213 
3668.761 2633243 2575076 2507486 2451968 2430343 2457500 2535347 2652845 
3672.618 2788714 2916154 3010064 3048335 3020107 2931699 2807923 2682282 
3676.476 2582142 2518817 2486424 2470229 2455234 2433109 2402922 2370605 
3680.333 2344519 2331261 2332927 2346718 2367640 2391194 2416249 2444405 
3684.190 2478860 2520850 2567643 2611508 2641577 2645577 2614842 2547212 
3688.048 2450002 2337957 2228971 2138159 2073699 2036247 2022631 2027725 
3691.905 2047432 2078094 2116383 2158704 2200563 2238229 2268971 2292254 
3695.763 2309708 2324732 2341222 2361243 2384897 2408886 2428844 2438973 
3699.620 2435408 2416682 2385031 2345985 2307343 2276899 2260611 2261044 
3703.478 2277698 2307110 2344919 2386230 2427311 2465564 2499321 2527848 
3707.335 2550978 2568110 2578176 2579076 2568677 2544246 2504487 2450136 
3711.192 2385564 2318769 2259945 2219013 2202961 2213718 2247888 2297850 
3715.050 2354480 2408553 2452335 2482026 2496922 2499888 2495322 2487457 
3718.907 2479027 2470429 2460499 2447570 2431410 2413717 2397325 2385830 
3722.765 2380966 2382398 2386796 2389062 2384697 2371637 2351482 2329362 
3726.622 2313006 2310308 2325998 2360910 2410852 2468763 2525282 2572043 
3730.479 2602675 2614842 2610575 2595242 2575776 2556811 2537713 2514018 
3734.337 2479160 2429010 2365308 2297217 2238663 2203493 2198964 2224741 
3738.194 2273801 2337457 2408419 2482925 2560711 2642110 2724525 2800219 
3742.052 2854380 2867788 2823164 2714289 2557144 2389928 2262410 2209788 
3745.909 2238596 2329595 2451502 2572576 2665313 2713922 2712722 2668080 
3749.767 2594475 2508986 2426245 2355347 2301381 2268672 2260611 2280063 
3753.624 2325531 2391327 2467030 2540580 2602042 2644010 2664613 2666513 
3757.481 2655011 2635776 2612308 2586509 2559677 2534614 2516284 2510685 
3761.339 2521783 2549245 2587542 2627209 2657945 2672214 2668313 2651078 
3765.196 2629876 2615975 2616175 2630676 2653545 2674447 2684149 2676414 
3769.054 2651111 2613742 2574076 2542080 2524682 2524649 2540480 2567410 
3772.911 2599842 2632076 2660312 2681782 2696785 2706454 2712955 2717590 
3776.769 2720191 2718657 2709454 2689717 2658778 2619609 2579443 2546612 
3780.626 2527582 2525116 2536247 2554745 2572510 2583209 2583776 2575343 
3784.483 2561644 2548112 2538780 2535214 2536880 2542180 2549312 2557411 
3788.341 2566510 2576543 2587242 2597342 2606075 2613075 2620009 2629309 
3792.198 2643844 2664379 2688883 2711888 2726392 2726326 2709021 2677815 
3796.056 2641677 2613542 2604175 2619142 2655445 2702853 2746031 2767272 
3799.913 2754034 2700286 2612908 2511052 2421880 2369705 2366707 2409852 
3803.771 2484025 2568777 2641610 2684949 2688983 2654611 2594375 2528682 
3807.628 2478793 2457567 2466497 2498288 2542246 2589242 2634576 2679281 
3811.485 2727159 2781378 2841306 2900676 2947911 2970263 2956818 2905213 
3815.343 2824431 2735995 2665813 2633309 2645244 2693451 2759236 2818928 
3819.200 2850712 2839672 2781178 2684783 2573510 2477127 2418348 2407453 
3823.058 2438607 2496655 2562477 2619009 2655578 2668680 2662312 2646111 
3826.915 2631876 2628609 2639710 2662912 2692051 2719690 2740196 2750933 
3830.772 2753301 2751133 2749633 2752900 2763571 2781911 2805955 2832535 
3834.630 2857015 2873992 2877461 2862252 2825131 2767839 2696785 2623309 
3838.487 2560344 2517850 2500354 2506053 2528315 2557778 2586209 2607708 
3842.345 2619475 2622209 2619342 2615809 2616275 2624742 2643077 2671780 
3846.202 2709254 2753434 2802054 2853346 2906981 2963690 3024011 3087143 
3850.060 3148950 3200317 3227122 3212701 3140973 3005594 2817361 2608175 
3853.917 2420247 2289023 2229970 2236598 2290389 2369838 2458599 2545446 
3857.774 2624142 2692451 2749399 2794784 2828300 2850412 2862352 2866387 
3861.632 2865320 2860384 2850945 2834736 2809190 2774275 2735228 2701353 
3865.489 2683549 2689584 2720124 2766705 2814426 2845509 2845742 2808957 
3869.347 2741197 2661312 2594042 2557111 2556411 2583776 2623776 2659145 
3873.204 2677981 2677381 2663446 2648677 2645610 2663412 2702953 2758336 
3877.062 2818495 2871691 2907014 2917355 2900709 2860751 2807756 2754768 
3880.919 2715823 2700786 2712722 2746165 2789781 2829200 2849378 2839839 
3884.776 2798619 2734428 2665346 2612609 2592909 2611675 2662846 2731660 
3888.634 2800820 2854447 2880897 2876260 2844442 2796551 2746598 2707454 
3892.491 2687550 2688950 2709254 2743331 2785946 2832402 2878428 2920924 
3896.349 2956651 2982506 2996152 2996686 2984775 2963624 2938037 2913885 
3900.206 2894839 2882631 2875226 2868255 2856115 2834570 2802754 2763871 
3904.063 2724225 2692251 2675214 2676481 2695585 2728460 2769407 2812392 
3907.921 2852746 2887801 2916887 2940305 2959153 2974867 2988245 3000222 
3911.778 3011766 3023511 3035890 3048536 3059480 3065920 3064619 3053307 
3915.636 3031352 3000856 2965959 2932466 2905346 2887801 2880596 2882431 
3919.493 2891603 2906280 2925094 2947611 2972398 2997453 3019473 3034488 
3923.351 3039360 3032953 3017405 2997053 2977802 2965292 2962423 2969062 
3927.208 2982273 2998087 3012133 3021208 3023744 3020007 3010765 2997320 
3931.065 2980872 2963223 2945709 2930764 2920790 2917421 2921191 2931332 
3934.923 2945342 2960254 2973665 2984174 2991481 2997286 3003125 3010832 
3938.780 3020541 3031051 3040094 3045199 3043864 3035055 3019507 2999154 
3942.638 2977469 2958186 2944775 2939271 2942573 2953682 2970696 2990880 
3946.495 3011232 3029249 3042796 3050804 3053074 3050170 3043430 3034455 
3950.353 3024979 3016738 3011533 3010498 3014335 3022777 3034688 3047768 
3954.210 3060047 3069424 3075097 3077299 3077666 3078334 3080903 3086343 
3958.067 3094218 3102661 3109769 3113206 3111905 3106098 3097221 3087544 
3961.925 3080002 3076131 3077366 3083439 3093584 3105764 3118146 3128892 
3965.782 3136835 3140973 3141574 3139505 3135900 3132263 3130294 3131094 
3969.640 3135400 3143109 3153822 3165871 3177854 3188101 3194910 3197380 
3973.497 3195511 3189903 3182393 3174750 3169376 3168041 3171679 3180457 
3977.354 3193341 3209129 3225686 3241409 3254495 3263776 3268683 3269451 
3981.212 3266847 3262006 3256531 3251657 3248119 3246149 3244981 3243879 
3985.069 3241976 3238705 3234232 3228957 3223750 3219277 3215872 3213369 
3988.927 3211466 3209830 3208295 3206826 3205925 3205324 3204790 3203822 
3992.784 3201586 3197714 3192240 3185964 3180357 3176485 3175517 3177520 
3996.642 3181792 3187400 3193107 3197881 3201419 3203689 3205357 3206359 
4000.499 3207160 
##END=
