
##TITLE=mdmaHCL00385_4
##JCAMP-DX=5.01  $$ Nicolet v. 1
##DATATYPE=INFRARED SPECTRUM
##ORIGIN=UniL
##OWNER=Nicolet
##LONGDATE=2011/08/23
##TIME=16:02:55
##SPECTROMETER/DATA SYSTEM=Nicolet iS5
##DATA PROCESSING=
Ratio against background
%Transmittance->Absorbance
Truncated
ElementMultiply or ElementDivide
##COMMENTS=
Number of sample scans: 32
Collection length: 51.22 sec
Sample gain: 2.0
Background collected on: Mar Aout 23 16:00:06 2011 (GMT+02:00);
Number of background scans: 32
Background gain: 2.0
Sample spacing:  1.000
Number of scan points: 12415
Resolution points: 8192
Number of FFT points: 65536
Apodization: N-B fort;
Phase correction: Mertz;
Laser frequency: 15798.0 cm-1
Number of rejected sample scans: 0
Number of rejected background scans: 0
Bench serial number: ASB1000141;
##RESOLUTION=4.000
##XUNITS=1/CM
##YUNITS=ABSORBANCE
##FIRSTX=649.893372
##LASTX=4000.122314
##FIRSTY=0.057972
##MAXX=4000.122314
##MINX=649.893372
##MAXY=0.218355
##MINY=-0.000595
##XFACTOR=1.000000
##YFACTOR=1.000000E-009
##NPOINTS=6950
##DELTAX=0.482117
##ZPD=6100
##XYDATA=(X++(Y..Y))
649.893 57971956 57599780 57232192 56895252 56605488 56370124 56191676 
653.268 56069512 56002752 55989444 56022540 56087568 56164376 56234292 
656.643 56287700 56332096 56388572 56488564 56662372 56923164 57266596 
660.018 57669776 58103024 58539136 58964144 59377264 59786364 60200380 
663.393 60621264 61041572 61447320 61819824 62135764 62370676 62497728 
666.767 62496540 62371708 62170976 61982444 61887756 61922832 62067756 
670.142 62270892 62471248 62617124 62677064 62640160 62518656 62340344 
673.517 62136868 61929328 61722268 61504880 61262348 60987920 60688020 
676.892 60381816 60091272 59830552 59598412 59379620 59150228 58890372 
680.267 58590248 58253728 57893240 57524460 57159056 56802308 56455620 
683.642 56119240 55794500 55484688 55190404 54907824 54627424 54336616 
687.016 54025396 53691644 53343312 52997204 52673480 52387752 52147076 
690.391 51948956 51785012 51644932 51521688 51412912 51320724 51247828 
693.766 51196116 51165324 51154964 51166144 51204168 51276796 51392140 
697.141 51555792 51767464 52021788 52310000 52624704 52962468 53325256 
700.516 53718640 54147064 54611344 55106020 55619752 56138848 56651164 
703.890 57147792 57624148 58077120 58504216 58901376 59264948 59592748 
707.265 59887632 60155776 60406716 60649536 60890128 61131996 61379304 
710.640 61640160 61933456 62286644 62731804 63298300 63998400 64817600 
714.015 65706952 66591448 67376000 67963752 68282752 68295512 68012960 
717.390 67490400 66825920 66143124 65564932 65208448 65160984 65467648 
720.765 66128544 67093200 68267784 69512512 70667664 71574744 72091136 
724.139 72130808 71678376 70799344 69622920 68319128 67062960 65984688 
727.514 65160060 64601816 64275084 64119176 64072208 64091020 64151472 
730.889 64245044 64369416 64518200 64679904 64840988 64992196 65133804 
734.264 65275064 65430396 65611252 65820828 66054008 66299692 66547104 
737.639 66788940 67023524 67251696 67473184 67685248 67882848 68062640 
741.013 68226336 68381488 68539400 68709216 68894328 69090960 69291040 
744.388 69487936 69681264 69877408 70087272 70318464 70569504 70828712 
747.763 71078992 71304616 71498840 71666960 71822960 71982760 72154824 
751.138 72337808 72521752 72695920 72854552 73002152 73149328 73308400 
754.513 73485744 73678312 73876464 74070112 74256216 74440632 74635672 
757.888 74852528 75094808 75356120 75623024 75881840 76127384 76365136 
761.262 76608704 76871360 77159616 77470520 77795392 78127136 78468632 
764.637 78834224 79247128 79731992 80304696 80971736 81730176 82573480 
768.012 83495048 84490816 85559352 86705328 87948408 89338832 90976256 
771.387 93000616 95572840 98821248 102762976 107234360 111836824 116005920 
774.762 119052408 120339128 119491912 116481608 111671648 105672768 99236232 
778.136 93037400 87532544 82964320 79342216 76525040 74294160 72439968 
781.511 70807336 69298968 67876264 66534132 65283500 64140492 63125648 
784.886 62264124 61581888 61102512 60840684 60798264 60968320 61342784 
788.261 61922108 62721080 63768668 65099000 66746704 68738600 71093392 
791.636 73830312 76972384 80547776 84584368 89090704 94036552 99327440 
795.010 104803808 110234032 115313400 119714784 123089952 125106824 
797.903 125517024 124173528 121078728 116386600 110396992 103509384 96139168 
801.278 88709992 81581696 75013800 69186816 64181240 59997640 56580728 
804.653 53843636 51691956 50034884 48803704 47948864 47435064 47235388 
808.028 47317368 47632132 48114440 48676484 49215840 49636684 49851812 
811.402 49799524 49451144 48805448 47887408 46737816 45412480 43972956 
814.777 42480924 40998552 39579404 38263796 37080144 36041316 35147964 
818.152 34393216 33767436 33262406 32872852 32596960 32434016 32384034 
821.527 32447152 32625820 32927248 33363652 33953740 34717844 35671812 
824.902 36822412 38159160 39652692 41247260 42863068 44401116 45738860 
828.277 46751692 47327860 47382256 46883220 45859264 44401004 42637704 
831.651 40723056 38811524 37024572 35451476 34139692 33096638 32300186 
835.026 31706278 31262246 30908062 30586982 30254026 29877130 29444572 
838.401 28964200 28460264 27964510 27506632 27109508 26782376 26523252 
841.776 26322682 26169746 26055948 25976442 25928992 25911968 25922274 
845.151 25956076 26009510 26081632 26173968 26290152 26433588 26605042 
848.525 26801724 27019018 27252650 27500702 27765426 28051874 28365922 
851.900 28712370 29093534 29510742 29965874 30463314 31010432 31615004 
855.275 32284730 33024270 33835912 34721396 35685664 36738204 37894820 
858.650 39175620 40600396 42188712 43956196 45914316 48070504 50424372 
862.025 52962652 55648004 58413772 61160488 63750484 66033096 67856120 
865.400 69082768 69622216 69435520 68545344 67030288 65022716 62694056 
868.774 60220972 57785200 55547112 53624576 52101912 51019636 50379088 
872.149 50148632 50269296 50664572 51236044 51875844 52473812 52916876 
875.524 53112220 52996044 52540520 51760148 50705496 49455672 48096452 
878.899 46715752 45392104 44185000 43141428 42294832 41666104 41267556 
882.274 41100600 41155492 41408844 41825328 42362628 42971368 43604964 
885.648 44225096 44803872 45330384 45812164 46275832 46760400 47312604 
889.023 47977984 48788616 49758352 50879840 52128324 53466552 54853308 
892.398 56253904 57639280 58988168 60285072 61514652 62659412 63698568 
895.773 64603656 65338872 65861128 66116236 66047372 65602964 64744784 
899.148 63462628 61780820 59761572 57493140 55083412 52648528 50289904 
902.523 48094488 46128640 44431688 43024560 41910740 41080860 40515676 
905.897 40189484 40075628 40147692 40385076 40775316 41312048 41994864 
909.272 42824632 43801068 44921952 46182772 47577044 49096360 50727280 
912.647 52446592 54220752 56005124 57747544 59402944 60939724 62350940 
916.022 63656284 64902352 66154628 67483856 68963720 70657520 72608144 
919.397 74834656 77320408 80011360 82806360 85573112 88165192 90438680 
922.771 92296216 93705248 94717200 95458608 96122640 96947664 98163168 
926.146 99980896 102558664 105969088 110186200 115058536 120318536 125547720 
929.521 130213680 133750976 135573184 135214176 132419752 127187504 
932.414 119797944 110754656 100734360 90426440 80450064 71316608 63344836 
935.789 56699144 51416868 47441420 44669812 42983112 42273652 42437848 
939.163 43366028 44932612 46960596 49218584 51446296 53350132 54665340 
942.538 55204436 54873088 53698616 51811628 49428380 46790624 44125140 
945.913 41624200 39407832 37533960 36009276 34806108 33879688 33181072 
949.288 32668184 32304286 32058508 31906140 31825236 31797248 31808764 
952.663 31849590 31913594 31997762 32100386 32220420 32357332 32510854 
956.037 32681294 32869634 33077042 33304154 33550606 33814924 34094748 
959.412 34387948 34693224 35010564 35341048 35685804 36045632 36419632 
962.787 36805932 37202096 37605784 38015632 38431800 38854856 39285652 
966.162 39724352 40170260 40622628 41081256 41547556 42024428 42515384 
969.537 43024268 43553016 44102032 44670400 45257160 45862392 46488340 
972.912 47138464 47817044 48527176 49269984 50045112 50851120 51687404 
976.286 52555216 53457480 54398012 55380748 56408004 57481452 58603068 
979.661 59776440 61008240 62307836 63685520 65150164 66707796 68359960 
983.036 70103432 71929968 73826472 75771128 77728968 79653128 81477632 
986.411 83122704 84508408 85556208 86206352 86428824 86224216 85627880 
989.786 84701256 83533560 82225472 80879152 79597128 78462152 77536304 
993.160 76859568 76447392 76297392 76394448 76719472 77252192 77974936 
996.535 78873592 79935552 81147800 82498232 83973552 85560848 87247576 
999.910 89017768 90849088 92710848 94558576 96338448 97994352 99470232 
1003.285 100724368 101733472 102495984 103031848 103381104 103602160 
1006.178 103761808 103934056 104194608 104606680 105222536 106076640 
1009.070 107184568 108547616 110157976 112004848 114077920 116369448 
1011.963 118874104 121585384 124495096 127594472 130873960 134325600 
1014.856 137940336 141700608 145572512 149497536 153380928 157106608 
1017.748 160541616 163554192 166045632 167959904 169299776 170125472 
1020.641 170554640 170751216 170892768 171172880 171767600 172809472 
1023.534 174389072 176538416 179236784 182416752 185980768 189818320 
1026.427 193804800 197818960 201741280 205446496 208820000 211758720 
1029.320 214181296 216043184 217336848 218090560 218355232 218198704 
1032.213 217696560 216920544 215943760 214831136 213627536 212351552 
1035.106 210981568 209457328 207677744 205523312 202880128 199648544 
1037.999 195768544 191222176 186030896 180251888 173972432 167310208 
1040.892 160396880 153377024 146398256 139585632 133044672 126853512 
1043.785 121058104 115685856 110749864 106254224 102199968 98585096 95403248 
1047.160 92643456 90289648 88322392 86718720 85455272 84509056 83854928 
1050.536 83467144 83317664 83374912 83608544 83989472 84490816 85089992 
1053.911 85764256 86486320 87223920 87934168 88565208 89065360 89381648 
1057.286 89469792 89299800 88855448 88139256 87171424 85993408 84664816 
1060.661 83257776 81858016 80549608 79408408 78500544 77871504 77548584 
1064.037 77541848 77845496 78439296 79289400 80352456 81572944 82885520 
1067.412 84225728 85528088 86734824 87802496 88698128 89399848 89894600 
1070.787 90174760 90237440 90085376 89727872 89181144 88467592 87617960 
1074.162 86667832 85659112 84642544 83671096 82800192 82083352 81560984 
1077.538 81259928 81188296 81336680 81679944 82182552 82804808 83500952 
1080.913 84221352 84915984 85529536 86010528 86321088 86443784 86392640 
1084.288 86215240 85995432 85838704 85861272 86184976 86912512 88123272 
1087.663 89863424 92134824 94889112 98018352 101369816 104737560 107884024 
1091.039 110584848 112633696 113884368 114270904 113807408 112585512 
1093.932 110748152 108483040 105985456 103431472 100977232 98730808 96751824 
1097.307 95055200 93614448 92371336 91242800 90139480 88970512 87651808 
1100.682 86121944 84342112 82304120 80030760 77575280 75014232 72431352 
1104.057 69915864 67547576 65387404 63482264 61860780 60536092 59511496 
1107.433 58782128 58337968 58164620 58244596 58557144 59076880 59776324 
1110.808 60623744 61581508 62608780 63657516 64672524 65599032 66381188 
1114.183 66969632 67329656 67439976 67296416 66909060 66301048 65504552 
1117.558 64555868 63496260 62365740 61199396 60028912 58878000 57763592 
1120.934 56698768 55692372 54750800 53877508 53071932 52327080 51629596 
1124.309 50962212 50305936 49646788 48981700 48320556 47687672 47115344 
1127.684 46641560 46300752 46116960 46102812 46256444 46563912 46999544 
1131.059 47530128 48116920 48714772 49279452 49771024 50157448 50423328 
1134.435 50571352 50624028 50617064 50595920 50607500 50689632 50869036 
1137.810 51155484 51541688 52003448 52502340 52993160 53423532 53743276 
1141.185 53910968 53893600 53671736 53238612 52597812 51761456 50748656 
1144.560 49585760 48303040 46934904 45519172 44090444 42679960 41313212 
1147.936 40006740 38770148 37607556 36519384 35505012 34564400 33698716 
1151.311 32909952 32200542 31572386 31027086 30565722 30189552 29900168 
1154.686 29698776 29586358 29562098 29623992 29768888 29993354 30294810 
1158.061 30671746 31124074 31651996 32255250 32932614 33681348 34497240 
1161.437 35373972 36303156 37272456 38264624 39258376 40226856 41141100 
1164.812 41973040 42694804 43282816 43718320 43986628 44079552 43995360 
1168.187 43740124 43327112 42775600 42109992 41354468 40532808 39667212 
1171.562 38776052 37876200 36984016 36113824 35281024 34499212 33780220 
1174.938 33133790 32566958 32084514 31689812 31385246 31172664 31053138 
1178.313 31027264 31094886 31255584 31509892 31859498 32308500 32861736 
1181.688 33524476 34300880 35193200 36202376 37329324 38576296 39948032 
1185.063 41451528 43093492 44878416 46804944 48863772 51033684 53280828 
1188.438 55559312 57805488 59944536 61896240 63576376 64915588 65867676 
1191.814 66415852 66576920 66396704 65943188 65288924 64505240 63652180 
1195.189 62768788 61876408 60979108 60069392 59133864 58159540 57139060 
1198.564 56071700 54962988 53822332 52659712 51482628 50294960 49098440 
1201.939 47894252 46686492 45484700 44303028 43160016 42076044 41067964 
1205.315 40148488 39323920 38593864 37952960 37392268 36902268 36472856 
1208.690 36094884 35760596 35463520 35199312 34966572 34767308 34606740 
1212.065 34492256 34432812 34437228 34512880 34666416 34903084 35227408 
1215.440 35643360 36153184 36757176 37452508 38234160 39095236 40029192 
1218.816 41031616 42099552 43232192 44428492 45687104 47005452 48381924 
1222.191 49817732 51318484 52894724 54561184 56333456 58224136 60241068 
1225.566 62384064 64644760 67003304 69429616 71880152 74294192 76601512 
1228.941 78720008 80561736 82048608 83111312 83699904 83790912 83389208 
1232.317 82533208 81291968 79770968 78101080 76421432 74883312 73625752 
1235.692 72765648 72404384 72615464 73449568 74939688 77099936 79926512 
1239.067 83393176 87451160 92020304 96983040 102199216 107494432 112667880 
1242.442 117518272 121830336 125398960 128056600 129674632 130190520 
1245.335 129612776 128020552 125551136 122377136 118707840 114757728 
1248.229 110731256 106823600 103181792 99896104 96988752 94407584 92035624 
1251.604 89706728 87252712 84523904 81423320 77929888 74095144 70034008 
1254.979 65889656 61822384 57975284 54449996 51310244 48572460 46215716 
1258.354 44189952 42429664 40866064 39429456 38062360 36721728 35378068 
1261.729 34018524 32642536 31258754 29880182 28522146 27199522 25925054 
1265.105 24710042 23564426 22495796 21509688 20608356 19790588 19052070 
1268.480 18386562 17788412 17252966 16777586 16360866 16000783 15693830 
1271.855 15434507 15216103 15032656 14879632 14754461 14656057 14583442 
1275.230 14534137 14504741 14491106 14489565 14498266 14516801 14545854 
1278.606 14585841 14636077 14694819 14760186 14830156 14903086 14975926 
1281.981 15042466 15092378 15111899 15085208 14999797 14850213 14640738 
1285.356 14385193 14104297 13822728 13562604 13342234 13175255 13070071 
1288.731 13032819 13067885 13177850 13363351 13621920 13947904 14332520 
1292.107 14764333 15231030 15716402 16201733 16665775 17083960 17433732 
1295.482 17698292 17869712 17951546 17958040 17911872 17837018 17757138 
1298.857 17692390 17656810 17661262 17712580 17813888 17963770 18154816 
1302.232 18374152 18603246 18821702 19011152 19155942 19246504 19278058 
1305.608 19249448 19162730 19022298 18836096 18616180 18377368 18137682 
1308.983 17913596 17717998 17559194 17439560 17358480 17314512 17307204 
1312.358 17337650 17407244 17516622 17663642 17844544 18055054 18292308 
1315.733 18556110 18848414 19171492 19526552 19911840 20324032 20759346 
1319.109 21215796 21694046 22196426 22724598 23276276 23844404 24416152 
1322.484 24974650 25503684 25988544 26420350 26797566 27127988 27429402 
1325.859 27727494 28056646 28452728 28945144 29551598 30268838 31071788 
1329.234 31912736 32733488 33476588 34093172 34556756 34864020 35034700 
1332.610 35104176 35117320 35123464 35166328 35284908 35509796 35860088 
1335.985 36344296 36959016 37692144 38524700 39434860 40403220 41411688 
1339.360 42444788 43488592 44528704 45550380 46538904 47477940 48349556 
1342.735 49131792 49794436 50302812 50618520 50703448 50529920 50083296 
1346.111 49364748 48389296 47183892 45783264 44224584 42550100 40805160 
1349.486 39035348 37292532 35629656 34095644 32737062 31589240 30673166 
1352.861 29997436 29558230 29343420 29334204 29507762 29835074 30278110 
1356.236 30793836 31333216 31846378 32292046 32637928 32864630 32966108 
1359.612 32947838 32825998 32625214 32382392 32145056 31965874 31901934 
1362.987 32001148 32292296 32784260 33465494 34312532 35294720 36380972 
1366.362 37537284 38719976 39877128 40944152 41846524 42515564 42893312 
1369.737 42941996 42650348 42031620 41123180 39978292 38670388 37286900 
1373.113 35918532 34661032 33595852 32776188 32223166 31925470 31852014 
1376.488 31965412 32238156 32658682 33232362 33978104 34923480 36101476 
1379.863 37543680 39277492 41314964 43639288 46184728 48820536 51368196 
1383.238 53598256 55271528 56188132 56193108 55215688 53282100 50538144 
1386.614 47239416 43704832 40278616 37228304 34704960 32746210 31299524 
1389.989 30268662 29543264 29029162 28650002 28346432 28077784 27814138 
1393.364 27536180 27236526 26918500 26594474 26278924 25983830 25713860 
1396.739 25466826 25236330 25016170 24803630 24601152 24414960 24252464 
1400.115 24119272 24016764 23942356 23891242 23859070 23843634 23847100 
1403.490 23876330 23942182 24057562 24232912 24473534 24777704 25137876 
1406.865 25542584 25981298 26446794 26935422 27446732 27980694 28535944 
1410.240 29108380 29692460 30282374 30873658 31463612 32049480 32627356 
1413.615 33191334 33734344 34251184 34740816 35207504 35659332 36105796 
1416.991 36555352 37013492 37485668 37979792 38506632 39080624 39711648 
1420.366 40398928 41130608 41886368 42645892 43393456 44126608 44858316 
1423.741 45615332 46429564 47327600 48324448 49420288 50607088 51874464 
1427.116 53215840 54624456 56086852 57578252 59055772 60462584 61743500 
1430.492 62854400 63777192 64522812 65128564 65646976 66131048 66631652 
1433.867 67191432 67850352 68657560 69673872 70968256 72604584 74607696 
1437.242 76951568 79565256 82353056 85210640 88021608 90663984 92986208 
1440.617 94818256 96008048 96429544 96017264 94773576 92758672 90074040 
1443.993 86835416 83171336 79199880 75019232 70722048 66395044 62137828 
1447.368 58082384 54376080 51157572 48524548 46505124 45066680 44139372 
1450.743 43652700 43550600 43796632 44367464 45233956 46354312 47682052 
1454.118 49166152 50767200 52466036 54252284 56116944 58032844 59951612 
1457.494 61808900 63545696 65128492 66545328 67798912 68898984 69860872 
1460.869 70702360 71440560 72087616 72644328 73097256 73425160 73608088 
1464.244 73644320 73558584 73400792 73226312 73071192 72945160 72830176 
1467.619 72695056 72502216 72217424 71807752 71231104 70431880 69340400 
1470.995 67887496 66040196 63838020 61413652 58952876 56633120 54563472 
1474.370 52768280 51217440 49868832 48702760 47733900 47003644 46554836 
1477.745 46417912 46598732 47085912 47864764 48930300 50292880 51974276 
1481.120 53995304 56363748 59067048 62075704 65353820 68867344 72596472 
1484.496 76530096 80652488 84933712 89302408 93628008 97729896 101366256 
1487.871 104258632 106139888 106775896 106030584 103912760 100598664 
1490.764 96401792 91682608 86783864 81943032 77277768 72824656 68560744 
1494.139 64449660 60481128 56682460 53124876 49906484 47114940 44798032 
1497.514 42950080 41529764 40478356 39742108 39284344 39081168 39117204 
1500.890 39378916 39848764 40504180 41318352 42253528 43262060 44283392 
1504.265 45224068 45958548 46328508 46158264 45324128 43821228 41785488 
1507.640 39424880 36923732 34389060 31858500 29339272 26841728 24388850 
1511.015 22028064 19817186 17802876 16016563 14463632 13128295 11983766 
1514.391 10999700 10148455 9403556 8743632 8153982 7627716 7168407 6784125 
1518.248 6480555 6254438 6089421 5957957 5830159 5684472 5520410 5360301 
1522.105 5238514 5179629 5185832 5238380 5308376 5371237 5413675 5438939 
1525.963 5463231 5507524 5584880 5695819 5829823 5973879 6120471 6270170 
1529.820 6429976 6607502 6804251 7013818 7222442 7415425 7585431 7738706 
1533.678 7894363 8072961 8286586 8532215 8795090 9055148 9294271 9500573 
1537.535 9667264 9792502 9875608 9915505 9909844 9859100 9772846 9669534 
1541.393 9570311 9489837 9430001 9379821 9320337 9235984 9120076 8980757 
1545.250 8836038 8706647 8604669 8528464 8464536 8394300 8303709 8188016 
1549.107 8055881 7923483 7808566 7719008 7650613 7589410 7520125 7433121 
1552.965 7328611 7216984 7113772 7032709 6978126 6944793 6918431 6881569 
1556.822 6814685 6697537 6515030 6264052 5966321 5667653 5420083 5255081 
1560.680 5174499 5159980 5184793 5223189 5252801 5259374 5238481 5196663 
1564.537 5148647 5111532 5097719 5109084 5137784 5170039 5193511 5200922 
1568.395 5193109 5177717 5166786 5171481 5197569 5246999 5318338 5409884 
1572.252 5519202 5642175 5771898 5897093 6004618 6084347 6134752 6167889 
1576.109 6208220 6284221 6413296 6598082 6830202 7098650 7396989 7725585 
1579.967 8091156 8503020 8969155 9492513 10070282 10694156 11352393 12028286 
1583.824 12700116 13341004 13918036 14398242 14755764 14976338 15063116 
1587.199 15037116 14937515 14813974 14721863 14718161 14850419 15154717 
1590.575 15651716 16341358 17199016 18170570 19180114 20126582 20899228 
1593.950 21400168 21549728 21307104 20676530 19708302 18488164 17115668 
1597.325 15696235 14316972 13040160 11908158 10940912 10142825 9506534 
1600.700 9018069 8660100 8415718 8273585 8227894 8278210 8426089 8671998 
1604.558 9012183 9437991 9934116 10478631 11044187 11593126 12080817 
1607.933 12460781 12686230 12721406 12547638 12165929 11599115 10888553 
1611.308 10091715 9267632 8469029 7734895 7083663 6517249 6026053 5595016 
1615.166 5209440 4858850 4542025 4265013 4038173 3870686 3765559 3717534 
1619.023 3716064 3745740 3790025 3833747 3864435 3875300 3867310 3848723 
1622.881 3831541 3827061 3842271 3876604 3925449 3982559 4043423 4105099 
1626.738 4166080 4225029 4280305 4330501 4375917 4419262 4465959 4521233 
1630.595 4588601 4668071 4755561 4843035 4920876 4979458 5009858 5006205 
1634.453 4967124 4898356 4812848 4729299 4666865 4636924 4641680 4674903 
1638.310 4725916 4781925 4831342 4867227 4887767 4897888 4905595 4919636 
1642.168 4944703 4979491 5016864 5046194 5056686 5040361 4994708 4924093 
1646.025 4839618 4756432 4690410 4654775 4656784 4698248 4775058 4879089 
1649.883 4997255 5110727 5196630 5226073 5173828 5033020 4833687 4641244 
1653.740 4517818 4490699 4544469 4645431 4760452 4867763 4956735 5023902 
1657.597 5071033 5101474 5117935 5121154 5110190 5083270 5038987 4977280 
1661.455 4899395 4808693 4710742 4613315 4525284 4454979 4407614 4383682 
1665.312 4378360 4382310 4383615 4369491 4329531 4258555 4158854 4040146 
1669.170 3917090 3805434 3716064 3653842 3617356 3601385 3597810 3596340 
1673.027 3585984 3554781 3493685 3400571 3284775 3166172 3066187 3000189 
1676.885 2969595 2964758 2969762 2970596 2959520 2938003 2914853 2900976 
1680.742 2903812 2920891 2939538 2938170 2894372 2793316 2639843 2461698 
1684.599 2300681 2189706 2136960 2129968 2147282 2170558 2186676 2189673 
1688.457 2178650 2155574 2124241 2089181 2056321 2032252 2022631 2030055 
1692.314 2052226 2080558 2100867 2096705 2054756 1971969 1861078 1749949 
1696.172 1670014 1637885 1649592 1682986 1709464 1699618 1633395 1508958 
1700.029 1350188 1200347 1098389 1061419 1080518 1133436 1195828 1249291 
1703.886 1282522 1290897 1277139 1249823 1220582 1199749 1193237 1201875 
1707.744 1222642 1250521 1280595 1310305 1339087 1368867 1402240 1441533 
1711.601 1487612 1539581 1595415 1652885 1710662 1767615 1822879 1873424 
1715.459 1913891 1937221 1937154 1912660 1871194 1827770 1800553 1801218 
1719.316 1832195 1886435 1952198 2016939 2070903 2109657 2133397 2145851 
1723.174 2152311 2157472 2163899 2171957 2181115 2190639 2200163 2208989 
1727.031 2215716 2217847 2213018 2200163 2181181 2161035 2145318 2137693 
1730.888 2136261 2132631 2111954 2057120 1955693 1808704 1636521 1473848 
1734.746 1355605 1298839 1298141 1333603 1381665 1423648 1446154 1444027 
1738.603 1419194 1379670 1336361 1299305 1275045 1265009 1267435 1279332 
1742.461 1297809 1320907 1347496 1377077 1409686 1445556 1484985 1527744 
1746.318 1572967 1619426 1665025 1707834 1745991 1778361 1803747 1822047 
1750.176 1833360 1839449 1843974 1852160 1869031 1897584 1936689 1980956 
1754.033 2021067 2045535 2044603 2012945 1952631 1873457 1790871 1719411 
1757.890 1667520 1635058 1614304 1595016 1566682 1523255 1463974 1394728 
1761.748 1324064 1261586 1214701 1186559 1176791 1181874 1196892 1215731 
1765.605 1231414 1238226 1232810 1216096 1193602 1174365 1166624 1173933 
1769.463 1192904 1214402 1226729 1219951 1191210 1146890 1102309 1073975 
1773.320 1072447 1099186 1147488 1207491 1270359 1332140 1392035 1451573 
1777.177 1511751 1570739 1624182 1667187 1695992 1710329 1714521 1715086 
1781.035 1718546 1728126 1742997 1759298 1772905 1780623 1782819 1781888 
1784.892 1781788 1785913 1795662 1810701 1829899 1852193 1877118 1904040 
1788.750 1930731 1952997 1964879 1959621 1931996 1881643 1813329 1737641 
1792.607 1666222 1608385 1567946 1543073 1528675 1519066 1509855 1498517 
1796.465 1483888 1465304 1442464 1414706 1382296 1345933 1307513 1269695 
1800.322 1235003 1204999 1180479 1161043 1146259 1136459 1132007 1133768 
1804.179 1141774 1155229 1172405 1191542 1211013 1230251 1249225 1267535 
1808.037 1284217 1297842 1306450 1309341 1307779 1304821 1305420 1313795 
1811.894 1332207 1359993 1393764 1429266 1462876 1493032 1520263 1546864 
1815.752 1575229 1606921 1641976 1679195 1716650 1752611 1786013 1816390 
1819.609 1843708 1868033 1889064 1906370 1919382 1926837 1926904 1917618 
1823.467 1897351 1866768 1829234 1791237 1761360 1746223 1748419 1764987 
1827.324 1787876 1806309 1810235 1794830 1762425 1722671 1688974 1673573 
1831.181 1681955 1712325 1756736 1806176 1853525 1895720 1933660 1971037 
1835.039 2011613 2057719 2109357 2165064 2223675 2285059 2351049 2424412 
1838.896 2507586 2601775 2705587 2816493 2930231 3043197 3151353 3251524 
1842.754 3342168 3423848 3500532 3578567 3666139 3769704 3891213 4027939 
1846.611 4172804 4316948 4451130 4569113 4667836 4747488 4810134 4857845 
1850.469 4890985 4908074 4906567 4884416 4841661 4780552 4704847 4617969 
1854.326 4522371 4418291 4305570 4184279 4055998 3924513 3794471 3669647 
1858.183 3551708 3440045 3332786 3228123 3126122 3028549 2938437 2857983 
1862.041 2787981 2727126 2673681 2626242 2585442 2553278 2531648 2520816 
1865.898 2517750 2517017 2511752 2497488 2473928 2445937 2421480 2408486 
1869.756 2411651 2430343 2460033 2494156 2527749 2557344 2581976 2601508 
1873.613 2616109 2625009 2627476 2622776 2611609 2595408 2575976 2554411 
1877.470 2530448 2502320 2468130 2427444 2381133 2332260 2283993 2238196 
1881.328 2194335 2149813 2100867 2045335 1983785 1920114 1859947 1809070 
1885.185 1770676 1744327 1726796 1712891 1698687 1681822 1662031 1641610 
1889.043 1623816 1611943 1608784 1616433 1636022 1667021 1707468 1752844 
1892.900 1798290 1838351 1869564 1891860 1908267 1924108 1944310 1971170 
1896.758 2004057 2039443 2072900 2102132 2127570 2151811 2178650 2210953 
1900.615 2248921 2290788 2333593 2375336 2415583 2455734 2497122 2539980 
1904.472 2582909 2622209 2654378 2677115 2690584 2697118 2699686 2700452 
1908.330 2699986 2697452 2691717 2682649 2671547 2660579 2652211 2647077 
1912.187 2644010 2640977 2635943 2628676 2620342 2612242 2604675 2595142 
1916.045 2579342 2552311 2511385 2458999 2402089 2350916 2313173 2291521 
1919.902 2281762 2275733 2263209 2237164 2196267 2144186 2088748 2037545 
1923.760 1995635 1964380 1942213 1926571 1916320 1911328 1911661 1916121 
1927.617 1921679 1923409 1917152 1901344 1877883 1851262 1826838 1807839 
1931.474 1794298 1783684 1772472 1759364 1745591 1735112 1731320 1735511 
1935.332 1745059 1754441 1757634 1751879 1738772 1723469 1712624 1710296 
1939.189 1716583 1727162 1736476 1739537 1736243 1730122 1727661 1734214 
1943.047 1752212 1779392 1811399 1844407 1876086 1907335 1940483 1976496 
1946.904 2014542 2051261 2082389 2105262 2119679 2127537 2132199 2136794 
1950.761 2142121 2147649 2152610 2157372 2163765 2174222 2189540 2207623 
1954.619 2222643 2227106 2214750 2183945 2137426 2084320 2035015 1997899 
1958.476 1977428 1972202 1977494 1987280 1997433 2006054 2013677 2021034 
1962.334 2028757 2036779 2045202 2054257 2065243 2079060 2094508 2108492 
1966.191 2117681 2118680 2112054 2102632 2097704 2104629 2127171 2162333 
1970.049 2202295 2237430 2259912 2267339 2262576 2251585 2240594 2233100 
1973.906 2229903 2231269 2239095 2259679 2301447 2371671 2471929 2594109 
1977.763 2723291 2840072 2931265 2989312 3016437 3019507 3006762 2983040 
1981.621 2950580 2908782 2858516 2803988 2751567 2708788 2680582 2667180 
1985.478 2664113 2665246 2665013 2662979 2661712 2666280 2679648 2701219 
1989.336 2725292 2745365 2757135 2760970 2762470 2770007 2790482 2825431 
1993.193 2870757 2918088 2960421 2993850 3019440 3041762 3065920 3094185 
1997.051 3124219 3151153 3169810 3177653 3175884 3168909 3160331 3153255 
2000.908 3145312 3132329 3108835 3071760 3021943 2964157 2904812 2850945 
2004.765 2808823 2781711 2770574 2775342 2792883 2817994 2842240 2856615 
2008.623 2852513 2826932 2782612 2730127 2681682 2649344 2639377 2650378 
2012.480 2673681 2697785 2714289 2719357 2715456 2708754 2705454 2709121 
2016.338 2719257 2734528 2754301 2781311 2820029 2875693 2949512 3036991 
2020.195 3129326 3215672 3287045 3339530 3374090 3394961 3405547 3408219 
2024.052 3400905 3382238 3350716 3308045 3258968 3207961 3158695 3112305 
2027.910 3066755 3020875 2975901 2936402 2908849 2900076 2913051 2946543 
2031.767 2995051 3052807 3116644 3187633 3268383 3362136 3467031 3576228 
2035.625 3679471 3766997 3832310 3875199 3900407 3914817 3923643 3928793 
2039.482 3929461 3923376 3910103 3892016 3874129 3862396 3859989 3866574 
2043.340 3878342 3889842 3897131 3899036 3897699 3896696 3900441 3911173 
2047.197 3929528 3954739 3984299 4015131 4042119 4058708 4057069 4030949 
2051.054 3977979 3901778 3812788 3724619 3652840 3608067 3593835 3604626 
2054.912 3629050 3653642 3668645 3669146 3657585 3639341 3620897 3606029 
2058.769 3596508 3591530 3590060 3591830 3597777 3608535 3624172 3642515 
2062.627 3661294 3677801 3691568 3703866 3717233 3733208 3751556 3769737 
2066.484 3783742 3789758 3787318 3777458 3764490 3751522 3740928 3731637 
2070.342 3722146 3709914 3694676 3678202 3663365 3652506 3645589 3639775 
2074.199 3630520 3613313 3586218 3550071 3509017 3468301 3431963 3402508 
2078.056 3379800 3362570 3349781 3340599 3334722 3331884 3330449 3327844 
2081.914 3321701 3310349 3294223 3276094 3259603 3247685 3241843 3240808 
2085.771 3242344 3243545 3242477 3238538 3232229 3223349 3211099 3193908 
2089.629 3170577 3141574 3109869 3080436 3058379 3047368 3047935 3057345 
2093.486 3071226 3084908 3096454 3106065 3115109 3125588 3137002 3147415 
2097.344 3154023 3154857 3150485 3144211 3140206 3142342 3151686 3167340 
2101.201 3185731 3204223 3221680 3239172 3258801 3282104 3308612 3335624 
2105.058 3360032 3379132 3393592 3406282 3421877 3444187 3474179 3509584 
2108.916 3546129 3579569 3607433 3630386 3651236 3673022 3697483 3723883 
2112.773 3749484 3771208 3787084 3797713 3805200 3812454 3821546 3833513 
2116.631 3847452 3862863 3879278 3897599 3919364 3945510 3975103 4006135 
2120.488 4035497 4060447 4079678 4094027 4105065 4114263 4121656 4125603 
2124.345 4123730 4114330 4096803 4072688 4044393 4013994 3981456 3945878 
2128.203 3904553 3855944 3800421 3740627 3680474 3624272 3574391 3531364 
2132.060 3494153 3460886 3430661 3404378 3383340 3368013 3357662 3349982 
2135.918 3342101 3332151 3320866 3310516 3304573 3304339 3309113 3315423 
2139.775 3318829 3316692 3309314 3299264 3291251 3288180 3290484 3294657 
2143.633 3296593 3292053 3280635 3264644 3248419 3235567 3227555 3222047 
2147.490 3215772 3204790 3187900 3166005 3141641 3115643 3087277 3054275 
2151.347 3013067 2962656 2904746 2842474 2779377 2716023 2649511 2575576 
2155.205 2492689 2405987 2331361 2291721 2313573 2416083 2601542 2853013 
2159.062 3137803 3417837 3659088 3841903 3961259 4024628 4046667 4043357 
2162.920 4029745 4017672 4014763 4024060 4044594 4071049 4095331 4110785 
2166.777 4112591 4101586 4082722 4063390 4049443 4042152 4037337 4027538 
2170.635 4005901 3969017 3919331 3865404 3817501 3783708 3768668 3770105 
2174.492 3782906 3801223 3820242 3837257 3850929 3859119 3858785 3845814 
2178.349 3817802 3776288 3728094 3683515 3652539 3642114 3652539 3678335 
2182.207 3709480 3736850 3754597 3762418 3763521 3762585 3763721 3768534 
2186.064 3777291 3789858 3806838 3829268 3858685 3894891 3936248 3979048 
2189.922 4019746 4056099 4087304 4114330 4138013 4157817 4171633 4178123 
2193.779 4176116 4168756 4161798 4162065 4174677 4200103 4234431 4269731 
2197.636 4297404 4312463 4313601 4305034 4291515 4278197 4266820 4256447 
2201.494 4243899 4227505 4207798 4187725 4172068 4163939 4164876 4173573 
2205.351 4187022 4202880 4219307 4236806 4255242 4274985 4294058 4309753 
2209.209 4320260 4324912 4325280 4324477 4325314 4329162 4335655 4342315 
2213.066 4347000 4348874 4349811 4352054 4357877 4367516 4378996 4389238 
2216.924 4395263 4397439 4397941 4401455 4411363 4429371 4452770 4476471 
2220.781 4495252 4505296 4506635 4501647 4494215 4486682 4479719 4470780 
2224.638 4457356 4438141 4414375 4389405 4367750 4352355 4343720 4339470 
2228.496 4335454 4327623 4313668 4293991 4270501 4246442 4224293 4206192 
2232.353 4193847 4187658 4187959 4194215 4204519 4216263 4225464 4229312 
2236.211 4227136 4220713 4214690 4213887 4221917 4239048 4262236 4285860 
2240.068 4305302 4317450 4323072 4325314 4328694 4336592 4350079 4367750 
2243.926 4386929 4404869 4419731 4431212 4439782 4446108 4450326 4452201 
2247.783 4452368 4451866 4452502 4456185 4463817 4474195 4485343 4494616 
2251.640 4500877 4505296 4511155 4522438 4542393 4570720 4603938 4636723 
2255.498 4662913 4678521 4682473 4676343 4663147 4645498 4624868 4601125 
2259.355 4574470 4545473 4516680 4492005 4475467 4470044 4476371 4492808 
2263.213 4516278 4543699 4572629 4601326 4629356 4655813 4679559 4699521 
2267.070 4714962 4726116 4734189 4741090 4748392 4756734 4765242 4772411 
2270.927 4776800 4777905 4776029 4772981 4770368 4768793 4767889 4766984 
2274.785 4764773 4761289 4757805 4756365 4759246 4767352 4781088 4799044 
2278.642 4819414 4840891 4862335 4884048 4906365 4929522 4953685 4978553 
2282.500 5003859 5029500 5054876 5079951 5103586 5124540 5141338 5152972 
2286.357 5159511 5162327 5163500 5165479 5169771 5176544 5184994 5193377 
2290.215 5200519 5205851 5209674 5213497 5218426 5225369 5234456 5245960 
2294.072 5259743 5276143 5295865 5318941 5344803 5371707 5397203 5418607 
2297.929 5434141 5443468 5447360 5447998 5447226 5446455 5446153 5445985 
2301.787 5445314 5443770 5440952 5436926 5431826 5424948 5415453 5402772 
2305.644 5386837 5368117 5347957 5328031 5309684 5293953 5280940 5270576 
2309.502 5262862 5257865 5255752 5256658 5259676 5263667 5266753 5267658 
2313.359 5266216 5263030 5259877 5258335 5259441 5262493 5265847 5267524 
2317.217 5265981 5260682 5252902 5244719 5238615 5237173 5242035 5253572 
2321.074 5271515 5294490 5319545 5342388 5357819 5360167 5345172 5310858 
2324.931 5258703 5193746 5122696 5052730 4990217 4938436 4898289 4867864 
2328.789 4844979 4827154 4813451 4803400 4797671 4796432 4799480 4806382 
2332.646 4816634 4830069 4846922 4867059 4889510 4912766 4934884 4954456 
2336.504 4971280 4986631 5002819 5022327 5046026 5072643 5099227 5122361 
2340.361 5139494 5150525 5156727 5160919 5164942 5169536 5173358 5175069 
2344.219 5174868 5176175 5185732 5211418 5260582 5336786 5438939 5561017 
2348.076 5694879 5831267 5960879 6076921 6174072 6249261 6301904 6333877 
2351.933 6349746 6354924 6355832 6357714 6363733 6374728 6389623 6407075 
2355.791 6426007 6446555 6470567 6500500 6538138 6584289 6637814 6696561 
2359.648 6757941 6819936 6881569 6943009 7004289 7065981 7127784 7189562 
2363.506 7250809 7311594 7371982 7432042 7491031 7547534 7599694 7645251 
2367.363 7682819 7711386 7731521 7743293 7748116 7746970 7741505 7733545 
2371.220 7725720 7721470 7723831 7735839 7759248 7795139 7843753 7905093 
2375.078 7979435 8067054 8168366 8283378 8411494 8551814 8703199 8865255 
2378.935 9037928 9221566 9416828 9622850 9837476 10056853 10276139 10489833 
2382.793 10693375 10883627 11058700 11217626 11360385 11486487 11595338 
2386.168 11686175 11758341 11811486 11845909 11862219 11861300 11844207 
2389.543 11812030 11766069 11707824 11639103 11561818 11477574 11387970 
2392.918 11293761 11195866 11095409 10993550 10892324 10793806 10700438 
2396.294 10614255 10537323 10470960 10416756 10376067 10350175 10340029 
2399.669 10346035 10368092 10405150 10456127 10520009 10596022 10684036 
2403.044 10783922 10895722 11019072 11153335 11297570 11451004 11613476 
2406.419 11784794 11965272 12154821 12353214 12560087 12775078 12998097 
2409.795 13229222 13468297 13714584 13966039 14219146 14469353 14711272 
2413.170 14939882 15151148 15341681 15509359 15652575 15770137 15861576 
2416.545 15926568 15966579 15983595 15980432 15960632 15926808 15881337 
2419.920 15825665 15760893 15687510 15606891 15519729 15427710 15331932 
2423.296 15233638 15134062 15035469 14940361 14852202 14775063 14712506 
2426.671 14667640 14642006 14636489 14651156 14686149 14742052 14819802 
2430.046 14919889 15042329 15186249 15349542 15529928 15725162 15934130 
2433.421 16156130 16391419 16640298 16902652 17178090 17466018 17765630 
2436.797 18076744 18399834 18735896 19086552 19453502 19838656 20244112 
2440.172 20671560 21122492 21597470 22096112 22616622 23156874 23714452 
2443.547 24287502 24875728 25478912 26097430 26730962 27377804 28035192 
2446.922 28699840 29368450 30038550 30708478 31377022 32042454 32702550 
2450.298 33354134 33993436 34617360 35222632 35806940 36367568 36900756 
2453.673 37401908 37864996 38283700 38652096 38965388 39219172 39410188 
2457.048 39534436 39587352 39563904 39459172 39269332 38992428 38628592 
2460.423 38179744 37649504 37042508 36363824 35619300 34815912 33961156 
2463.799 33063706 32132890 31177864 30207206 29229782 28253032 27284438 
2467.174 26332080 25403200 24505924 23647866 22835602 22074326 21367696 
2470.549 20717398 20123840 19586064 19102134 18668822 18281974 17936630 
2473.924 17626822 17346616 17090818 16854872 16635615 16430235 16236747 
2477.300 16053453 15878486 15710320 15547992 15391181 15240296 15095877 
2480.675 14958573 14828715 14706165 14590398 14481377 14378651 14282352 
2484.050 14192614 14109226 14031741 13959401 13891658 13828543 13770636 
2487.425 13718926 13674404 13637921 13609303 13587833 13572210 13561544 
2490.801 13555357 13553477 13556178 13563629 13575937 13592449 13612483 
2494.176 13635800 13662266 13691843 13724706 13760615 13798477 13836581 
2497.551 13873184 13906848 13936990 13963336 13986981 14008402 14028181 
2500.926 14046251 14062165 14075513 14086123 14094508 14101730 14109123 
2504.302 14117989 14129490 14144003 14161461 14181180 14201926 14222467 
2507.677 14241058 14256364 14267354 14273450 14274306 14270505 14262082 
2511.052 14248728 14229692 14203534 14168684 14123910 14068770 14003987 
2514.427 13931070 13852419 13770568 13687979 13606500 13527395 13451346 
2517.802 13378249 13308137 13240700 13175630 13113337 13054091 12998984 
2521.178 12948970 12904766 12866880 12834867 12808315 12786749 12770028 
2524.553 12758768 12753718 12755902 12765183 12780982 12801013 12823194 
2527.928 12845071 12865787 12885584 12905960 12928523 12954705 12984714 
2531.303 13017830 13053101 13089398 13126451 13165076 13206405 13251767 
2534.679 13301884 13357166 13417205 13481764 13550469 13623389 13700187 
2538.054 13779870 13861656 13943354 14023664 14101799 14177961 14253180 
2541.429 14328718 14405503 14483295 14561136 14637413 14711066 14781748 
2544.804 14850144 14917900 14986250 15056393 15127921 15199940 15270530 
2548.180 15338489 15402338 15461631 15516261 15566571 15613109 15656387 
2551.555 15697541 15737496 15777282 15818002 15859548 15901478 15942344 
2554.930 15980467 16014500 16043482 16066862 16084880 16097050 16103446 
2558.305 16103378 16096225 16081646 16059607 16030211 15994113 15951317 
2561.681 15901959 15846249 15784567 15718291 15649380 15580240 15513445 
2565.056 15450369 15391525 15336326 15283778 15233020 15184121 15137733 
2568.431 15095535 15059138 15029638 15007651 14993040 14985495 14984740 
2571.806 14990434 15002747 15021337 15045417 15073751 15104935 15137699 
2575.182 15171186 15205362 15240776 15278252 15318752 15362723 15410784 
2578.557 15463142 15519832 15580858 15646117 15714856 15786251 15859136 
2581.932 15932411 16005218 16077556 16149595 16222093 16295809 16371325 
2585.307 16449230 16529970 16613893 16700689 16790224 16881364 16972554 
2588.683 17061904 17147722 17228972 17305514 17377964 17447046 17513726 
2592.058 17578068 17639866 17698810 17755240 17810402 17866364 17925546 
2595.433 17989604 18059162 18133224 18209754 18286778 18362746 18438000 
2598.808 18514202 18594082 18679858 18773158 18874160 18981658 19094412 
2602.184 19210902 19330572 19453466 19580242 19711492 19847500 19988162 
2605.559 20132794 20280528 20430398 20581116 20731750 20881010 21028130 
2608.934 21172412 21313644 21451828 21586742 21717940 21843914 21962502 
2612.309 22071186 22166926 22247726 22312216 22360144 22392136 22409230 
2615.685 22412510 22403056 22381740 22349716 22308344 22259236 22204692 
2619.060 22146738 22087292 22027960 21969786 21913398 21859280 21807922 
2622.435 21759636 21715118 21674958 21640130 21611330 21589180 21574066 
2625.810 21566268 21565640 21572118 21585700 21606940 21636298 21674576 
2629.186 21722120 21778554 21843358 21914722 21990944 22070630 22152840 
2632.561 22237576 22325540 22417638 22514292 22615296 22720478 22828828 
2635.936 22939234 23051586 23165752 23281762 23399624 23518814 23638314 
2639.311 23757182 23874054 23988924 24101832 24213328 24324050 24434484 
2642.687 24544734 24654208 24762306 24869026 24973982 25077598 25180428 
2646.062 25283002 25385880 25489382 25594350 25701134 25810512 25923048 
2649.437 26039130 26159222 26283182 26411440 26543926 26681422 26824598 
2652.812 26973886 27129892 27292376 27461064 27635252 27814352 27997728 
2656.188 28185144 28376460 28571400 28769826 28971496 29176412 29384474 
2659.563 29595898 29810550 30028112 30247666 30467580 30686786 30904006 
2662.938 31118878 31332110 31544664 31757430 31971048 32185376 32399670 
2666.313 32613140 32825608 33037640 33250746 33466890 33688048 33915264 
2669.688 34148760 34387768 34631212 34877592 35125944 35375516 35625592 
2673.064 35875452 36124232 36370344 36612380 36848812 37078372 37300260 
2676.439 37514128 37720156 37919008 38112020 38300812 38487624 38675024 
2679.814 38865620 39061664 39265812 39479820 39705692 39945452 40200716 
2683.189 40473300 40764544 41075104 41405088 41753824 42120544 42503832 
2686.565 42902384 43314956 43740268 44176748 44623360 45078956 45542612 
2689.940 46013952 46492952 46979904 47474796 47977724 48488168 49005996 
2693.315 49530980 50063400 50603852 51153468 51713120 52283168 52863656 
2696.690 53453920 54052564 54658460 55270024 55885688 56504148 57123908 
2700.066 57743268 58361388 58977048 59589632 60198400 60802644 61400868 
2703.441 61990896 62570392 63135608 63682876 64208052 64706372 65173188 
2706.816 65603852 65993904 66339688 66638300 66888184 67088948 67240480 
2710.191 67343736 67399376 67407856 67370352 67287984 67162000 66994064 
2713.567 66785344 66536216 66246436 65915072 65541044 65124020 64664952 
2716.942 64165608 63629164 63059212 62459580 61834036 61185820 60518528 
2720.317 59835456 59141116 58440148 57737968 57040208 56352920 55681712 
2723.692 55031696 54407364 53812280 53248988 52719080 52223452 51762652 
2727.068 51336908 50947012 50593244 50276732 49997408 49755456 49550180 
2730.443 49380152 49244080 49140808 49069352 49029252 49020052 49041456 
2733.818 49092320 49170976 49275332 49402356 49549956 49715292 49896040 
2737.193 50089468 50292768 50502528 50715292 50927788 51136624 51339592 
2740.569 51534856 51720920 51896568 52060632 52212164 52350480 52475756 
2743.944 52589288 52693004 52789756 52882596 52973960 53066388 53161200 
2747.319 53259176 53360920 53466176 53574640 53685760 53799116 53914080 
2750.694 54030840 54149992 54273384 54403348 54543000 54695852 54865380 
2754.070 55054828 55266936 55503548 55766208 56055036 56370008 56709564 
2757.445 57072020 57454748 57854320 58266724 58687448 59110632 59529736 
2760.820 59937916 60328168 60693236 61027612 61326148 61584904 61800800 
2764.195 61971784 62096004 62172348 62200796 62182252 62118788 62014012 
2767.571 61871896 61697212 61495300 61271504 61031656 60782140 60528700 
2770.946 60277192 60032296 59797048 59573140 59360700 59159072 58967488 
2774.321 58785120 58612128 58448644 58294804 58149924 58012280 57878552 
2777.696 57744364 57604204 57451836 57281340 57086684 56863412 56608280 
2781.072 56319608 55998304 55647024 55270136 54873088 54461748 54042584 
2784.447 53620824 53201644 52789120 52386588 51996352 51619932 51257892 
2787.822 50910052 50575708 50254300 49944656 49646156 49358512 49081560 
2791.197 48815420 48560156 48315780 48082384 47859736 47647588 47445188 
2794.573 47251088 47063240 46879604 46696972 46512276 46322792 46125764 
2797.948 45919364 45702124 45473000 45231272 44976232 44707344 44424164 
2801.323 44126312 43813312 43485148 43141756 42783752 42412308 42028880 
2804.698 41635724 41235056 40829768 40422896 40016836 39614612 39219244 
2808.073 38833768 38461344 38105256 37768368 37453192 37161564 36894260 
2811.449 36651492 36433076 36238140 36065868 35915256 35785568 35675520 
2814.824 35584412 35511196 35455000 35415312 35392196 35385652 35396152 
2818.199 35424620 35471756 35538452 35625772 35734480 35865628 36020076 
2821.574 36197944 36399096 36622148 36865044 37124712 37397752 37680728 
2824.950 37970176 38262996 38556164 38847104 39131708 39406344 39666228 
2828.325 39905856 40120036 40303920 40452828 40564092 40636124 40668724 
2831.700 40662760 40620448 40544376 40437480 40303412 40146380 39970700 
2835.075 39781760 39584084 39382436 39180228 38979268 38780256 38583144 
2838.451 38387060 38191792 37997840 37805776 37617452 37433908 37256540 
2841.826 37085956 36922792 36768172 36624128 36493976 36381876 36293072 
2845.201 36233028 36205652 36213360 36255572 36328372 36423596 36529944 
2848.576 36633032 36716068 36763156 36759772 36695444 36565052 36369192 
2851.952 36114580 35811472 35473876 35117032 34755244 34402220 34069408 
2855.327 33765464 33496666 33266020 33074252 32919102 32796592 32700944 
2858.702 32625712 32564100 32510464 32459114 32405846 32347906 32282766 
2862.077 32209500 32128252 32039672 31945474 31848554 31751760 31658768 
2865.453 31573206 31498204 31436932 31391554 31363346 31352978 31360600 
2868.828 31385426 31426742 31483420 31554356 31637810 31731692 31833724 
2872.203 31940910 32050408 32160148 32269168 32377928 32488036 32602568 
2875.578 32724880 32858272 33005464 33168160 33347302 33542876 33754044 
2878.954 33979716 34218596 34468828 34728972 34997276 35272436 35553232 
2882.329 35838460 36126428 36414696 36700092 36978932 37247080 37500872 
2885.704 37737536 37955600 38154852 38336352 38501856 38653544 38794060 
2889.079 38926028 39052748 39177576 39304552 39438308 39583428 39745488 
2892.455 39930448 40145072 40397112 40694856 41046152 41458200 41935632 
2895.830 42478620 43081820 43732940 44411684 45088660 45730912 46300752 
2899.205 46760992 47082444 47244476 47239968 47075500 46770176 46352580 
2902.580 45853996 45307836 44744108 44186796 43655444 43163824 42720648 
2905.956 42331432 41998224 41720960 41497828 41326912 41206640 41136296 
2909.331 41116444 41148348 41232832 41369552 41556088 41787276 42055892 
2912.706 42352728 42666944 42987756 43303168 43601336 43871444 44103172 
2916.081 44288680 44423136 44504920 44535756 44520152 44464428 44375428 
2919.457 44259252 44121212 43965108 43792784 43605436 43403376 43187172 
2922.832 42957796 42717468 42469488 42218072 41967456 41721504 41482768 
2926.207 41252616 41031180 40817976 40613060 40416968 40231616 40059168 
2929.582 39902808 39764984 39647680 39552108 39478948 39427856 39398400 
2932.958 39389472 39399412 39426444 39468604 39524380 39593048 39674872 
2936.333 39770648 39881268 40007104 40146892 40298648 40459664 40627104 
2939.708 40799340 40976084 41157856 41345504 41539060 41736352 41932968 
2943.083 42121568 42292532 42435252 42538548 42591432 42585656 42515384 
2946.458 42378848 42179144 41924284 41626500 41300132 40960792 40622736 
2949.834 40296684 39990028 39706128 39445128 39205100 38982896 38775364 
2953.209 38578944 38390284 38206152 38023296 37838784 37650192 37455648 
2956.584 37254588 37046836 36833124 36614364 36391676 36166544 35939908 
2959.959 35713216 35487504 35263772 35043288 34827040 34616392 34412800 
2963.335 34218200 34034824 33865108 33711608 33576560 33462272 33370200 
2966.710 33301256 33255648 33232432 33229678 33244092 33271492 33307124 
2970.085 33345618 33382542 33413998 33437614 33452324 33458262 33456762 
2973.460 33449710 33439406 33427808 33416144 33404444 33390560 33370200 
2976.836 33336210 33279580 33189510 33054482 32864846 32612998 32295472 
2980.211 31913486 31473518 30986732 30467224 29931368 29396316 28876226 
2983.586 28383960 27928078 27514294 27145234 26822238 26546006 26317400 
2986.961 26138284 26010108 25933002 25903984 25914994 25950518 25989494 
2990.337 26006026 25970814 25859180 25652518 25343518 24937206 24451310 
2993.712 23912984 23351966 22798586 22277372 21803394 21383914 21018322 
2997.087 20701376 20425362 20182740 19967416 19774184 19598890 19438254 
3000.462 19288484 19146522 19010216 18877620 18748454 18622684 18500440 
3003.838 18381792 18266562 18154404 18045278 17939288 17837260 17740260 
3007.213 17649564 17565578 17488888 17419004 17355512 17297790 17245072 
3010.588 17196464 17151514 17109052 17068452 17028960 16990816 16954362 
3013.963 16920806 16891560 16867514 16849844 16838650 16834174 16836068 
3017.339 16844196 16858250 16877572 16901102 16926906 16952846 16976242 
3020.714 16994778 17006632 17010456 17005598 16991850 16969006 16936860 
3024.089 16895900 16846676 16791052 16731646 16671423 16613996 16562257 
3027.464 16518096 16481854 16452739 16428582 16406318 16383024 16356049 
3030.840 16323674 16285248 16241459 16193856 16144505 16095435 16048193 
3034.215 16003843 15962660 15924539 15889345 15857384 15829066 15805287 
3037.590 15786698 15773986 15767559 15767319 15773023 15784636 15801955 
3040.965 15824635 15852228 15883949 15918525 15954891 15991775 16028630 
3044.341 16064970 16100695 16135564 16169472 16201628 16231552 16258691 
3047.716 16282909 16304752 16324878 16343869 16362036 16379341 16395377 
3051.091 16409347 16420599 16428340 16431576 16429408 16420530 16403910 
3054.466 16379479 16347894 16311221 16272623 16235404 16202318 16174871 
3057.842 16152896 16134877 16119126 16104100 16089348 16075321 16063010 
3061.217 16053213 16046233 16041592 16038325 16035231 16032171 16029179 
3064.592 16027084 16026532 16028045 16031174 16035678 16040938 16046921 
3067.967 16054209 16063802 16076798 16093647 16114037 16137386 16162766 
3071.343 16189592 16217725 16247684 16280087 16315348 16353020 16392486 
3074.718 16432401 16471736 16509594 16546182 16582187 16618574 16656239 
3078.093 16695868 16737329 16780134 16823254 16865862 16906854 16945680 
3081.468 16982030 17015936 17047638 17077792 17106500 17133796 17159648 
3084.844 17183640 17205564 17225490 17243968 17261966 17280722 17301480 
3088.219 17325238 17352616 17383414 17417280 17453842 17492130 17531630 
3091.594 17571824 17612124 17652254 17692218 17732116 17772084 17812576 
3094.969 17853658 17894918 17936076 17976790 18016956 18057092 18098334 
3098.344 18141688 18188158 18237706 18289404 18341558 18392542 18440800 
3101.720 18486402 18530314 18574370 18620540 18670034 18722682 18777656 
3105.095 18833224 18888002 18940712 18991456 19040542 19088802 19136758 
3108.470 19184684 19232580 19280622 19328738 19377308 19426750 19477030 
3111.845 19527974 19578856 19628980 19677964 19725916 19773490 19821902 
3115.221 19872332 19925612 19981744 20040486 20100520 20160908 20220506 
3118.596 20278688 20335144 20389834 20443352 20496286 20549156 20602624 
3121.971 20657070 20712150 20767444 20821982 20874856 20925444 20973638 
3125.346 21019782 21064926 21109762 21155470 21202576 21251564 21302614 
3128.722 21355930 21411378 21468954 21527826 21587230 21645980 21702754 
3132.097 21756954 21808480 21858096 21907056 21956856 22008650 22063238 
3135.472 22120692 22181084 22244028 22309146 22376298 22444888 22513978 
3138.847 22582836 22650446 22715870 22778928 22839934 22899412 22958026 
3142.223 23016332 23074368 23132060 23189378 23246456 23304068 23363050 
3145.598 23424034 23487684 23553548 23620926 23688558 23755678 23822212 
3148.973 23888790 23956292 24025554 24097032 24170590 24245176 24319600 
3152.348 24392878 24464384 24534218 24602976 24671464 24740242 24809804 
3155.724 24879938 24950224 25020206 25089496 25158166 25226392 25294978 
3159.099 25364840 25436820 25511870 25590376 25672310 25757280 25844726 
3162.474 25933600 26023054 26112386 26200856 26288462 26374892 26460316 
3165.849 26544982 26629066 26712710 26795908 26878314 26959220 27037954 
3169.225 27113422 27184636 27251096 27312418 27368558 27420014 27466886 
3172.600 27509140 27547054 27580312 27609122 27633770 27654568 27672224 
3175.975 27687374 27700334 27711564 27721278 27729860 27738054 27746390 
3179.350 27755854 27766946 27779734 27794004 27809088 27824206 27838620 
3182.726 27851974 27864480 27876422 27888258 27901154 27915710 27932460 
3186.101 27951894 27974016 27998400 28024552 28051520 28078136 28104010 
3189.476 28128756 28152724 28176554 28201374 28227856 28256816 28288644 
3192.851 28323232 28360332 28399276 28439286 28479014 28516872 28551194 
3196.227 28581026 28605870 28626608 28645154 28663984 28685364 28710530 
3199.602 28739662 28771278 28803248 28833168 28859372 28881150 28898962 
3202.977 28913694 28927010 28940116 28954352 28970574 28989524 29011876 
3206.352 29037700 29066856 29098352 29130842 29162840 29192996 29220356 
3209.728 29244774 29266572 29286066 29303542 29318854 29331686 29341506 
3213.103 29348418 29352992 29356290 29359976 29365436 29373944 29385820 
3216.478 29400748 29418120 29436664 29455528 29473682 29490848 29507196 
3219.853 29523226 29540390 29559684 29582100 29607994 29637116 29668264 
3223.229 29700196 29731632 29761650 29790074 29817116 29843412 29869180 
3226.604 29894736 29919760 29944574 29969140 29994098 30020230 30047890 
3229.979 30077006 30107226 30137520 30167246 30196122 30224504 30253384 
3233.354 30283440 30314846 30346932 30378732 30408834 30436766 30462604 
3236.729 30487660 30513288 30540590 30569916 30600528 30631176 30660934 
3240.105 30689916 30718792 30749342 30782738 30819588 30859250 30899984 
3243.480 30939550 30976412 31010042 31041252 31071608 31102860 31136428 
3246.855 31172950 31212362 31254444 31298458 31344150 31390768 31437394 
3250.230 31482886 31525780 31565082 31600572 31632892 31663508 31694230 
3253.606 31726204 31759710 31794074 31827696 31859036 31887136 31912312 
3256.981 31935350 31957850 31980854 32005142 32030362 32055866 32080662 
3260.356 32104276 32126218 32146662 32165642 32182984 32198294 32210748 
3263.731 32219742 32224558 32225556 32223202 32218348 32212604 32207038 
3267.107 32202970 32201008 32201398 32203898 32207788 32211460 32213316 
3270.482 32212138 32206788 32197010 32183130 32166250 32147552 32128290 
3273.857 32108810 32089402 32069638 32048910 32026760 32003324 31978752 
3277.232 31954322 31930782 31909422 31890664 31875010 31862282 31852264 
3280.608 31844452 31838536 31833972 31830512 31827516 31824130 31819530 
3283.983 31812898 31803522 31791508 31777498 31762384 31747590 31734116 
3287.358 31722390 31712480 31703748 31695514 31687136 31678618 31670562 
3290.733 31663578 31658768 31656556 31657376 31660978 31666964 31674664 
3294.109 31683680 31693768 31704922 31716864 31730230 31745416 31762704 
3297.484 31782738 31805768 31831440 31859108 31887706 31916160 31943586 
3300.859 31969726 31995300 32021232 32048840 32078878 32111696 32146662 
3304.234 32183200 32220240 32257390 32294866 32333198 32373324 32415662 
3307.610 32460756 32508354 32558172 32609854 32663040 32717626 32773402 
3310.985 32830432 32888434 32947372 33007216 33068106 33130430 33194196 
3314.360 33259258 33325262 33391524 33457368 33522938 33588336 33654568 
3317.735 33721992 33790964 33860524 33929876 33997092 34060988 34121196 
3321.111 34178080 34232896 34287036 34341292 34395872 34450536 34503840 
3324.486 34554892 34602936 34647828 34689884 34729688 34767556 34803956 
3327.861 34838744 34871916 34902940 34931452 34956948 34978640 34996200 
3331.236 35009240 35018148 35023784 35027052 35028780 35029492 35028200 
3334.612 35024144 35015772 35001624 34981224 34954648 34923052 34887392 
3337.987 34849084 34808804 34766660 34722688 34676176 34626400 34572544 
3341.362 34513776 34449100 34378084 34300124 34215760 34126036 34031996 
3344.737 33934824 33835664 33734596 33631620 33526230 33418578 33308696 
3348.113 33197272 33084694 32971538 32857270 32741386 32623068 32502070 
3351.488 32378964 32254856 32131534 32010424 31892628 31778782 31668284 
3354.863 31561018 31456594 31354654 31255584 31159030 31064492 30971716 
3358.238 30879814 30788644 30698806 30611086 30527082 30447536 30372656 
3361.614 30301560 30232710 30164156 30094940 30024810 29954728 29886074 
3364.989 29820486 29758846 29701580 29648150 29597708 29549222 29502300 
3368.364 29456238 29410746 29366074 29321618 29277098 29231872 29185554 
3371.739 29137398 29087086 29033944 28977624 28917802 28854944 28789016 
3375.115 28720832 28650604 28578302 28503428 28424568 28340456 28249674 
3378.490 28151098 28044522 27929810 27807286 27677592 27540734 27396862 
3381.865 27245804 27087536 26921956 26748862 26568760 26381758 26188326 
3385.240 25989352 25785970 25579518 25371724 25164208 24957596 24752484 
3388.615 24548732 24345672 24142882 23939590 23735906 23531930 23328506 
3391.991 23126294 22926134 22728752 22534392 22342946 22153606 21965046 
3395.366 21776184 21585872 21393556 21199932 21006430 20815342 20628822 
3398.741 20448110 20273308 20103122 19935430 19767768 19598230 19426126 
3402.116 19251770 19076236 18900738 18726522 18553932 18383036 18213450 
3405.492 18045416 17878862 17714444 17552640 17393276 17236074 17080376 
3408.867 16925216 16770422 16616028 16462719 16311632 16163522 16018797 
3412.242 15877144 15737772 15599954 15462969 15326441 15190744 15056496 
3415.617 14924519 14795461 14669354 14546129 14425096 14305329 14186007 
3418.993 14066340 13946330 13826422 13707813 13592243 13481114 13375789 
3422.368 13276638 13183246 13094589 13008851 12923949 12838244 12750442 
3425.743 12659553 12564794 12466237 12364361 12260055 12155060 12051860 
3429.118 11952568 11859734 11774342 11696693 11625490 11558927 11494619 
3432.494 11430491 11365079 11297672 11227997 11156021 11081677 11004696 
3435.869 10925078 10842723 10758447 10673509 10589469 10507924 10429891 
3439.244 10355604 10284688 10215685 10147132 10077879 10007245 9935268 
3442.619 9862592 9790096 9718527 9647885 9577898 9507753 9436434 9363569 
3446.477 9289633 9215744 9143627 9075142 9011439 8952513 8897620 8845067 
3450.334 8793265 8740758 8687953 8635054 8583513 8534242 8487375 8442136 
3454.192 8397036 8350556 8301615 8250283 8197302 8144192 8092236 8041941 
3458.049 7992968 7944337 7894667 7843381 7790181 7736007 7682043 7629637 
3461.906 7579261 7530980 7484188 7437469 7390316 7341989 7292758 7243128 
3465.764 7193537 7145232 7098616 7054329 7012235 6972435 6934154 6897054 
3469.621 6860059 6822292 6782913 6741754 6698479 6653527 6607300 6560775 
3473.479 6514760 6469961 6427453 6387841 6351662 6319319 6290575 6264791 
3477.336 6240858 6217732 6194272 6169434 6142818 6114422 6084112 6052628 
3481.194 6020643 5988829 5958091 5929271 5903004 5879662 5859309 5841241 
3485.051 5824954 5809507 5794631 5780125 5766627 5754506 5744366 5736476 
3488.908 5730433 5725631 5721334 5716432 5710893 5704413 5697330 5690515 
3492.766 5684438 5679369 5676213 5674703 5675140 5678094 5683767 5692663 
3496.623 5705488 5722711 5744467 5770723 5800809 5833685 5867638 5901459 
3500.481 5933570 5962929 5989602 6014395 6039357 6067076 6100577 6142784 
3504.338 6195246 6258304 6331119 6411245 6495320 6579916 6661938 6739499 
3508.196 6812329 6881636 6949709 7019374 7092486 7170394 7252494 7337709 
3512.053 7424155 7510618 7596895 7683258 7770987 7860656 7952537 8045587 
3515.910 8137372 8225429 8307559 8381902 8448251 8507345 8560634 8609435 
3519.768 8654591 8696201 8733252 8764255 8787077 8799789 8801244 8790729 
3523.625 8768921 8736904 8696438 8648405 8593821 8531707 8461461 8381700 
3527.483 8291314 8190751 8081401 7965125 7844799 7722752 7600638 7479368 
3531.340 7359378 7240095 7120745 7000046 6876654 6748619 6614768 6474468 
3535.198 6328296 6178543 6027967 5879662 5735939 5598003 5465680 5338564 
3539.055 5215576 5096546 4982072 4872622 4768860 4669913 4574203 4479283 
3542.912 4382611 4282078 4176751 4067069 3954338 3840767 3728963 3621432 
3546.770 3521309 3430894 3352085 3285709 3230293 3182660 3138403 3092549 
3550.627 3040794 2981005 2913552 2841373 2768273 2698452 2634510 2577676 
3554.485 2527349 2481759 2439640 2399124 2359211 2318936 2277465 2234333 
3558.342 2189207 2142354 2094741 2047898 2003890 1964247 1930065 1901777 
3562.199 1878848 1860146 1843242 1825707 1803780 1772872 1729124 1669282 
3566.057 1593286 1504801 1411481 1323532 1250056 1197921 1168485 1159182 
3569.914 1164066 1175993 1188585 1196892 1197656 1189881 1173701 1150378 
3573.772 1121642 1090018 1057633 1026578 998149 973109 951059 930604 910582 
3578.111 889631 867387 844247 821473 800460 782535 768693 759731 755582 
3582.451 756147 760760 767864 774768 777987 773340 756279 724350 676826 
3586.791 617361 552297 490130 439480 405949 391257 393412 407441 427175 
3591.130 446346 459911 464356 457656 440508 414671 383596 350998 321054 
3595.470 296518 279244 269496 266346 267938 271154 273508 272314 266247 
3599.809 255604 242211 229049 219502 216087 219734 229613 243437 257859 
3604.149 270424 278713 280934 276193 263362 241912 211910 174651 133683 
3608.489 94873 64085 45992 41585 47616 57690 63887 59943 42910 15639 -15307 
3613.792 -41780 -56489 -56522 -43900 -25114 -8449 -1822 -11331 -38997 -82661 
3618.614 -136457 -192068 -241148 -276382 -294031 -293898 -278766 -252639 
3622.472 -220484 -185577 -149607 -112574 -73253 -31376 10934 47549 68261 
3626.811 60672 13684 -77195 -203560 -343199 -466574 -546202 -570061 -542661 
3631.151 -480111 -402094 -326148 -264726 -223034 -200679 -192863 -192962 
3635.008 -195380 -196539 -195645 -193128 -189849 -186338 -182728 -179284 
3638.866 -176601 -176137 -179151 -186537 -197500 -209522 -219258 -222504 
3642.723 -216510 -200249 -175508 -146030 -116715 -93692 -81270 -83125 
3646.581 -100980 -134337 -181470 -239526 -305123 -374187 -440856 -498381 
3650.438 -538260 -552986 -538491 -495435 -429966 -352436 -276514 -215847 
3654.295 -181172 -178886 -207700 -258269 -314460 -359918 -383059 -379947 
3658.153 -354654 -316016 -274031 -235949 -206508 -186603 -175044 -169414 
3662.010 -167129 -166201 -164744 -161697 -155437 -144672 -128541 -106844 
3665.868 -80972 -53309 -28262 -11497 -9012 -25777 -63778 -118703 -178125 
3670.207 -223795 -237406 -207502 -133443 -25976 95105 206242 284615 311041 
3674.547 277022 188606 68957 -51454 -148713 -212469 -248334 -268369 -284495 
3678.886 -303136 -323863 -341676 -350350 -346874 -332207 -311083 -289759 
3682.744 -271978 -257706 -243731 -225517 -200878 -171865 -145400 -130925 
3686.601 -138047 -172792 -234194 -314030 -398816 -475147 -533660 -571451 
3690.459 -590742 -595474 -588657 -571451 -544084 -507217 -463629 -417189 
3694.316 -373260 -336379 -308964 -290951 -279495 -270256 -259825 -246513 
3698.174 -231777 -218894 -213363 -220119 -241811 -278170 -324956 -374650 
3702.031 -418016 -447145 -457207 -447244 -419969 -380708 -335716 -290190 
3705.888 -248268 -212006 -182132 -158285 -140598 -129601 -127282 -136391 
3709.746 -158815 -195446 -244460 -300653 -355978 -401630 -429867 -436387 
3713.603 -421260 -388223 -343729 -295322 -249626 -212370 -186537 -172792 
3717.461 -169248 -173090 -180708 -189717 -199321 -209787 -221842 -235850 
3721.318 -250851 -264527 -274627 -279528 -279726 -277706 -277475 -283137 
3725.176 -296249 -315222 -334690 -346940 -343695 -319526 -273998 -211906 
3729.033 -142055 -75174 -21901 10238 18456 5202 -22629 -56059 -88425 -118073 
3733.855 -148514 -185345 -232439 -289064 -347403 -396433 -425299 -428476 
3737.712 -407556 -368559 -318334 -261944 -200977 -135298 -65004 5400 66538 
3742.052 102064 94011 27866 -97535 -260554 -420962 -531476 -563807 -518039 
3746.391 -418546 -297441 -184981 -104525 -67720 -76367 -121916 -190777 
3750.249 -268203 -342735 -407721 -458200 -489345 -495634 -473558 -424272 
3754.106 -354555 -275455 -199851 -137418 -94719 -73054 -68913 -76831 -91771 
3758.446 -110786 -132913 -157159 -180377 -197169 -201441 -189452 -162127 
3762.303 -125493 -89817 -65600 -60001 -73882 -101146 -131522 -153151 -158815 
3766.643 -148680 -129037 -110057 -100881 -107208 -128541 -159411 -190545 
3770.500 -213032 -221875 -215781 -197566 -172064 -144208 -117775 -94620 
3774.358 -74743 -56887 -39460 -21901 -4870 8051 12392 3876 -19581 -56059 
3779.179 -99125 -138676 -164711 -171236 -157921 -130197 -97336 -69012 -52448 
3783.519 -50360 -61094 -79514 -99490 -115655 -125791 -129866 -129137 -125228 
3787.859 -119001 -111183 -102173 -93162 -85510 -80143 -76831 -73617 -67753 
3792.198 -56522 -39129 -18057 1590 13320 12094 -3777 -30449 -59107 -78851 
3797.020 -80872 -62651 -29156 8813 36382 38669 5831 -63480 -158252 -257010 
3801.842 -332869 -364122 -343993 -280289 -191571 -100152 -28693 6461 -2021 
3806.181 -49797 -121220 -193525 -244460 -261878 -245884 -205680 -153383 
3810.039 -99225 -48406 -662 46920 97292 149659 198120 232663 241581 216518 
3814.861 156818 72437 -15373 -82562 -111812 -98032 -50890 11563 65974 92884 
3819.682 78137 18721 -75008 -180244 -268468 -317904 -320288 -282210 -219358 
3824.022 -150733 -92964 -55794 -42078 -46650 -59835 -69840 -68184 -52182 
3828.362 -25148 5964 33632 51857 58386 54873 46489 38768 37211 45164 62793 
3833.666 87747 115056 138654 151283 146212 118636 67863 -1822 -80640 -155304 
3838.487 -212734 -244957 -250089 -232770 -201342 -165241 -132217 -107042 
3842.345 -91639 -84417 -82727 -82065 -78487 -68383 -49896 -22729 12127 52255 
3847.167 94873 138124 181115 224574 269231 314721 357431 388670 395469 
3851.506 362571 276724 134777 -49433 -242374 -403782 -502948 -529821 -495799 
3855.846 -421790 -329856 -235916 -150071 -76731 -16765 30716 67035 92950 
3860.185 109521 117741 119000 114592 104484 87350 61236 25911 -15837 -55694 
3865.007 -82893 -86901 -62552 -13816 47583 103224 135473 130501 84997 8217 
3869.829 -78156 -149011 -187233 -188723 -163618 -128176 -99026 -87034 -93162 
3874.168 -110057 -124632 -124433 -101676 -56788 2783 65378 118404 151482 
3878.508 157945 136765 93713 40193 -9277 -41051 -46120 -23590 19450 69719 
3883.330 112604 133385 123143 81848 20046 -43005 -87233 -96840 -68317 -9277 
3888.152 64649 135870 188772 212175 203059 166232 114062 61136 20974 1358 
3892.973 3843 24354 56894 95602 135439 173425 207435 235945 256964 269164 
3897.795 270955 262500 245360 223546 200805 180684 164110 149294 132291 
3902.135 108295 74823 32174 -14346 -57318 -87730 -98661 -88260 -58245 -14446 
3906.957 36813 88576 136036 176109 207501 230508 245758 254875 259483 261837 
3911.778 264390 269231 277420 288560 300762 310212 313329 307261 291511 
3916.118 268070 241017 215723 196927 187048 186485 193943 207037 223314 
3920.458 241249 259351 276293 290384 299635 302320 297347 285609 269761 
3924.797 253615 241713 237105 241183 252853 269629 288196 305106 317739 
3929.137 324304 323575 314821 297910 273541 243769 211711 182109 159470 
3933.476 147405 147604 159205 178828 202098 224607 243139 256433 264888 
3937.816 270192 274668 279310 284349 288096 288726 283952 273110 257063 
3942.156 238398 221159 209059 204750 208993 220629 236575 253483 268104 
3946.495 278149 282758 282393 278779 273574 268932 266280 266578 270292 
3950.835 277884 288826 302983 319330 336440 352689 365953 374940 378787 
3955.174 377826 373282 367180 361377 357331 355939 357000 359852 363334 
3959.514 366517 368606 369203 368374 366318 363566 360813 358459 357232 
3963.854 357796 360382 365058 371060 377792 384127 389400 392882 394640 
3968.193 395369 395900 397027 399614 403926 409597 416263 422730 428634 
3972.533 433078 436329 438452 439977 441271 442863 444753 446777 448800 
3976.872 450790 452581 454604 457192 460409 464422 469133 474108 479050 
3981.212 484092 489234 495139 501972 510066 519089 527914 535942 542212 
3985.552 546193 547719 547122 545098 542079 538563 534748 530767 526852 
3989.891 523170 519885 517132 514545 511559 507379 501375 493546 484325 
3994.231 474473 465484 457888 452548 449397 448734 450094 453842 460409 
3998.570 469696 481207 493712 505090 513052 
##END=
