
##TITLE=mdmaHCL00385_5
##JCAMP-DX=5.01  $$ Nicolet v. 1
##DATATYPE=INFRARED SPECTRUM
##ORIGIN=UniL
##OWNER=Nicolet
##LONGDATE=2011/08/23
##TIME=16:06:57
##SPECTROMETER/DATA SYSTEM=Nicolet iS5
##DATA PROCESSING=
Ratio against background
%Transmittance->Absorbance
Truncated
ElementMultiply or ElementDivide
##COMMENTS=
Number of sample scans: 32
Collection length: 51.22 sec
Sample gain: 2.0
Background collected on: Mar Aout 23 16:05:13 2011 (GMT+02:00);
Number of background scans: 32
Background gain: 2.0
Sample spacing:  1.000
Number of scan points: 12415
Resolution points: 8192
Number of FFT points: 65536
Apodization: N-B fort;
Phase correction: Mertz;
Laser frequency: 15798.0 cm-1
Number of rejected sample scans: 0
Number of rejected background scans: 0
Bench serial number: ASB1000141;
##RESOLUTION=4.000
##XUNITS=1/CM
##YUNITS=ABSORBANCE
##FIRSTX=649.893372
##LASTX=4000.122314
##FIRSTY=0.057250
##MAXX=4000.122314
##MINX=649.893372
##MAXY=0.207295
##MINY=-0.001648
##XFACTOR=1.000000
##YFACTOR=1.000000E-009
##NPOINTS=6950
##DELTAX=0.482117
##ZPD=6100
##XYDATA=(X++(Y..Y))
649.893 57250304 56883772 56525284 56196692 55904304 55645440 55414212 
653.268 55209516 55041024 54923956 54872972 54893952 54979084 55109328 
656.643 55263060 55421928 55581040 55745184 55925220 56129948 56363524 
660.018 56624324 56909716 57220404 57562896 57944804 58370372 58832696 
663.393 59314016 59785372 60218384 60588084 60873392 61058464 61130012 
666.767 61085808 60947312 60771512 60643020 60626752 60740412 60950744 
670.142 61204092 61441516 61615984 61700420 61687356 61591396 61442088 
673.517 61272304 61104836 60943500 60777188 60586904 60360492 60096832 
676.892 59807584 59509524 59216524 58931660 58649676 58361236 58060912 
680.267 57751892 57445412 57153120 56882976 56633080 56392988 56149104 
683.642 55890924 55615724 55328732 55039480 54754632 54476208 54200440 
687.016 53920644 53633120 53339528 53046620 52764088 52499760 52256860 
690.391 52034860 51832052 51648108 51486436 51352684 51251816 51184712 
693.766 51147468 51131516 51128160 51132336 51145792 51176468 51235336 
697.141 51332804 51475580 51665088 51899892 52177904 52498528 52862012 
700.516 53268016 53712492 54186288 54675484 55166172 55645552 56108420 
703.890 56555176 56989656 57414928 57829904 58228608 58602460 58944488 
707.265 59253060 59532892 59793776 60046072 60297788 60553192 60815876 
710.640 61091796 61394800 61746712 62173308 62698036 63330732 64058380 
714.015 64839260 65610020 66290432 66797480 67070232 67075180 66820396 
717.390 66352656 65756680 65141232 64615696 64285880 64231908 64495632 
720.765 65079412 65939836 66994912 68121512 69177488 70020304 70518832 
724.139 70589688 70211648 69435408 68371168 67169192 65989012 64951644 
727.514 64131996 63548804 63177304 62969640 62876576 62864280 62914452 
730.889 63020780 63178524 63376888 63598208 63823284 64037228 64235940 
734.264 64425104 64615152 64814524 65023332 65235248 65441408 65636576 
737.639 65823644 66011532 66210584 66426120 66655024 66886216 67106620 
741.013 67309152 67495160 67674640 67859296 68057256 68267784 68482688 
744.388 68691096 68887184 69073408 69260064 69459320 69678616 69916408 
747.763 70163048 70406944 70639272 70860192 71076304 71296072 71522784 
751.138 71751576 71970056 72165776 72331384 72469872 72592440 72714208 
754.513 72846360 72991840 73146704 73305224 73465304 73631792 73813664 
757.888 74019184 74249536 74497544 74750576 74997064 75234152 75469408 
761.262 75717440 75992096 76298976 76633136 76982824 77337112 77694344 
764.637 78065592 78471248 78934112 79469400 80083072 80771272 81527128 
768.012 82345128 83223912 84167088 85186568 86308080 87584144 89110800 
771.387 91017888 93451744 96527856 100256952 104483840 108835720 112785704 
774.762 115690232 116951784 116214152 113439176 108954424 103322288 97242560 
778.136 91351224 86085144 81684296 78170456 75421584 73239528 71431000 
781.511 69849432 68400096 67042008 65764548 64572172 63475436 62489120 
784.886 61633816 60932712 60408732 60078792 59949860 60022100 60294780 
788.261 60773416 61475260 62426832 63657784 65196052 67062268 69271296 
791.636 71839496 74789152 78149000 81947360 86193864 90861592 95861720 
795.010 101044800 106193496 111022232 115224696 118474088 120457512 
797.903 120938720 119772968 116953600 112614544 107026072 100552680 93577576 
801.278 86494888 79644616 73277496 67575680 62630288 58458800 55025868 
804.653 52262688 50088168 48420040 47191320 46350296 45856608 45678636 
808.028 45780572 46112500 46610388 47188880 47748508 48195548 48443564 
811.402 48430672 48126508 47528836 46660852 45562632 44289044 42900592 
814.777 41457692 40020872 38641304 37357744 36197188 35171968 34283236 
818.152 33525836 32891974 32375678 31973936 31686210 31512812 31453318 
821.527 31506646 31672668 31954784 32361400 32907092 33609924 34485544 
824.902 35543524 36779568 38171636 39672548 41210828 42693412 44001848 
828.277 45013716 45616840 45723876 45299416 44365956 43006448 41342512 
831.651 39519300 37683796 35952220 34411260 33108402 32054334 31232192 
835.026 30604828 30126368 29743766 29406312 29073622 28715874 28321250 
838.401 27894760 27454956 27026388 26632342 26289412 26004198 25774578 
841.776 25593610 25454248 25351772 25283564 25248374 25243528 25264142 
845.151 25304672 25360414 25429830 25515104 25620216 25748874 25902016 
848.525 26077374 26271320 26480884 26706332 26951922 27223370 27526684 
851.900 27864516 28236448 28639774 29073162 29538192 30041144 30590466 
855.275 31195342 31863316 32599174 33406838 34292308 35264600 36337884 
858.650 37529408 38856236 40334316 41976724 43792820 45789076 47965328 
862.025 50310696 52792672 55352440 57901644 60316708 62461188 64196916 
865.400 65397380 65976976 65895288 65166636 63856900 62080868 59990868 
868.774 57746748 55514692 53444288 51646724 50204832 49161476 48523808 
872.149 48268972 48348704 48697016 49226304 49838320 50430288 50894184 
875.524 51139604 51101024 50745640 50080172 49145076 48008884 46748632 
878.899 45445336 44175024 42997744 41963620 41110908 40465084 40042160 
882.274 39845856 39867828 40085292 40464320 40963960 41537160 42139564 
885.648 42735232 43297528 43815728 44296308 44762328 45248776 45796664 
889.023 46445640 47222276 48136872 49180324 50328892 51548664 52803376 
892.398 54063520 55304684 56508716 57662172 58750148 59756060 60660928 
895.773 61439836 62063320 62496388 62694824 62611496 62202712 61433460 
899.148 60292268 58794608 56988560 54945128 52753800 50513952 48315484 
902.523 46239304 44351168 42694180 41296048 40167316 39304768 38693716 
905.897 38311964 38134920 38137924 38301864 38615408 39073048 39674544 
909.272 40419952 41308804 42337752 43501852 44794616 46207612 47727868 
912.647 49333160 50991724 52660948 54291632 55841864 57282400 58606820 
916.022 59833592 61005268 62181604 63426732 64807556 66382460 68191712 
919.397 70254808 72559976 75060232 77665408 80255344 82695040 84849992 
922.771 86626408 87989512 88980072 89709216 90350960 91123560 92240072 
926.146 93900584 96258344 99389000 103278784 107798104 112709416 117635496 
929.521 122092152 125561696 127500952 127468080 125207376 120684512 
932.414 114122904 105954912 96781808 87231736 77883072 69226136 61579444 
935.789 55121480 49911280 45916084 43054852 41226384 40335480 40287600 
939.163 40982528 42305356 44095064 46140172 48201656 50005996 51301372 
942.538 51902392 51704796 50715888 49040936 46868900 44420680 41909976 
945.913 39524200 37386196 35560964 34063960 32875210 31955854 31261106 
949.288 30751262 30391314 30151016 30006454 29935166 29917526 29938468 
952.663 29986110 30052824 30135176 30231360 30341174 30464666 30602518 
956.037 30755424 30924784 31112364 31319574 31547122 31794540 32059614 
959.412 32340090 32633428 32938294 33254322 33581892 33921388 34272408 
962.787 34633792 35003560 35380156 35762752 36152032 36549696 36957464 
966.162 37376412 37806144 38245376 38692552 39146936 39609528 40082532 
969.537 40568928 41071460 41591240 42128756 42683800 43257156 43850660 
972.912 44467844 45112520 45788048 46496348 47237604 48011400 48817496 
976.286 49657264 50533124 51448496 52406664 53409628 54458784 55555660 
979.661 56703600 57908496 59179160 60525156 61955584 63476852 65091572 
983.036 66798216 68590232 70456272 72375920 74316016 76231040 78057496 
986.411 79717976 81134856 82231320 82947808 83251760 83139752 82639808 
989.786 81806088 80719040 79472616 78163992 76893032 75742960 74777736 
993.160 74041304 73553248 73315232 73316288 73540216 73969408 74587632 
996.535 75381888 76339776 77448424 78695432 80067568 81551792 83136264 
999.910 84806208 86541512 88314440 90084400 91801336 93412664 94864632 
1003.285 96115488 97139528 97929664 98499288 98879856 99121776 99284920 
1006.660 99438984 99657168 100002968 100530584 101277968 102264168 103494368 
1010.035 104963776 106664344 108587344 110726816 113077760 115634616 
1012.927 118389744 121334872 124460632 127759144 131221384 134829968 
1015.820 138552400 142332016 146078896 149682176 153015296 155951632 
1018.713 158395536 160290096 161632912 162475168 162923072 163127600 
1021.605 163255888 163492640 164008576 164934976 166363552 168329600 
1024.498 170817040 173763856 177078704 180656928 184380448 188134176 
1027.391 191804864 195273472 198430736 201178800 203440160 205172880 
1030.284 206370512 207061376 207294784 207136208 206657664 205927104 
1033.177 205012784 203975248 202856048 201672784 200405392 198998304 
1036.070 197358048 195374032 192940736 189965872 186393536 182205856 
1038.963 177420624 172087536 166283520 160113312 153695200 147160912 
1041.856 140646336 134268496 128127264 122298184 116827144 111743088 
1044.750 107061936 102790896 98934528 95493816 92464840 89838656 87600160 
1048.125 85731040 84209480 83013664 82122376 81513088 81162136 81043448 
1051.500 81126952 81383192 81783568 82301680 82915712 83604008 84341352 
1054.875 85097448 85831880 86495664 87038936 87410600 87566592 87476528 
1058.250 87122024 86501960 85632152 84548576 83305864 81971768 80628872 
1061.626 79359280 78237936 77330936 76684600 76327296 76271328 76513376 
1065.001 77037296 77813672 78803864 79956864 81211624 82506368 83777128 
1068.376 84966184 86029600 86932016 87649296 88165920 88471168 88559608 
1071.751 88431608 88094488 87562984 86858232 86010208 85054040 84031080 
1075.127 82991800 81988776 81076984 80309800 79727648 79357848 79209984 
1078.502 79276392 79535008 79953712 80496208 81120240 81778888 82424072 
1081.877 83001072 83458504 83757352 83877600 83829528 83655472 83432168 
1085.252 83256976 83237432 83486696 84100648 85154680 86694888 88727760 
1088.628 91214752 94063336 97139160 100258280 103205240 105773920 107771144 
1092.003 109054160 109552176 109264744 108262632 106667016 104643144 
1094.896 102368840 100008640 97712472 95587288 93695016 92055440 90647616 
1098.271 89419672 88295840 87193992 86030568 84728080 83230168 81500984 
1101.646 79532944 77347168 74993200 72542944 70075120 67673552 65413176 
1105.022 63350708 61529428 59975992 58702732 57713976 57006996 56574872 
1108.397 56406380 56486336 56795964 57310640 58003116 58841764 59789404 
1111.772 60806192 61845420 62853752 63778416 64565480 65167256 65550292 
1115.147 65693848 65593332 65257540 64707212 63971416 63083536 62082128 
1118.523 61005420 59887900 58761148 57649156 56568952 55532992 54549124 
1121.898 53622660 52756456 51949744 51197012 50487152 49805468 49136060 
1125.273 48467308 47796624 47134036 46502504 45932252 45459056 45115604 
1128.648 44924748 44898916 45037020 45326300 45742804 46255228 46826716 
1132.024 47414292 47975616 48472012 48872040 49159584 49334904 49416240 
1135.399 49434100 49428640 49442712 49512300 49664804 49913804 50257092 
1138.774 50676080 51137480 51598960 52009460 52318560 52483680 52470332 
1142.149 52258392 51840412 51219904 50408924 49425968 48296484 47049356 
1145.525 45717364 44336528 42939840 41557216 40213148 38923672 37698976 
1148.900 36544288 35461688 34452220 33517602 32659360 31879644 31179962 
1152.275 30560924 30023070 29566672 29192606 28902254 28696902 28577170 
1155.650 28542208 28589732 28716760 28920104 29197816 29549044 29973934 
1159.026 30472520 31044134 31686888 32397706 33172272 34004872 34887896 
1162.401 35809528 36753172 37698180 38618560 39486204 40275020 40959412 
1165.776 41518132 41934428 42194956 42291436 42221280 41988804 41604948 
1169.151 41086832 40456572 39736480 38948680 38113576 37248304 36368972 
1172.527 35491460 34630924 33802928 33022374 32301076 31649000 31072640 
1175.902 30575890 30161244 29830884 29586534 29430246 29363166 29386458 
1179.277 29500280 29705588 30004146 30399452 30895966 31498276 32209854 
1182.652 33032458 33966532 35012504 36172196 37450048 38852864 40387732 
1186.028 42059616 43868476 45806644 47855220 49982948 52146776 54286412 
1189.403 56330396 58201556 59818764 61115024 62044860 62591284 62769168 
1192.778 62620796 62210244 61605788 60875336 60076888 59249376 58415512 
1196.153 57582036 56744040 55890096 55007816 54088668 53128884 52130300 
1199.529 51098232 50039160 48958036 47857036 46737116 45599728 44449268 
1202.904 43296284 42156032 41048044 39993588 39010188 38110864 37301812 
1206.279 36582748 35948404 35390688 34901180 34471448 34093744 33761708 
1209.654 33469178 33211686 32986696 32794662 32639072 32525998 32463148 
1213.030 32458436 32518852 32650824 32859556 33149704 33525728 33990612 
1216.405 34545600 35188996 35916732 36722956 37601232 38546932 39556972 
1219.780 40629832 41764292 42958716 44211084 45520132 46886912 48317076 
1223.155 49819816 51408588 53097016 54896020 56812348 58845752 60988220 
1226.531 63221716 65518616 67838112 70123056 72307120 74312360 76055856 
1229.906 77463664 78471168 79031792 79123944 78752464 77953848 76792624 
1233.281 75368096 73803528 72230264 70791544 69619064 68823888 68502352 
1236.656 68724472 69538840 70977736 73055696 75770376 79097504 82990000 
1240.031 87369672 92120936 97105504 102152232 107065704 111651936 115706320 
1243.407 119036808 121489784 122950480 123367272 122755448 121196008 
1246.300 118822304 115798488 112321304 108590280 104794656 101114088 
1249.193 97684304 94588768 91848784 89417472 87188272 85008744 82723984 
1252.568 80194288 77327680 74100848 70556560 66796936 62951372 59166288 
1255.943 55574900 52273112 49323176 46743540 44517252 42599436 40929772 
1259.319 39443712 38075128 36769688 35486352 34197552 32891688 31568642 
1262.694 30237292 28910684 27603474 26330110 25102802 23932308 22827746 
1266.069 21795974 20841622 19966862 19170210 18448096 17795144 17206288 
1269.444 16677724 16206650 15791303 15429151 15116496 14848362 14619217 
1272.820 14424411 14261225 14128223 14024725 13949171 13898363 13867643 
1276.195 13852043 13847494 13852556 13867437 13894087 13933397 13985201 
1279.570 14047722 14117920 14192820 14269169 14343410 14409032 14456541 
1282.945 14473600 14446127 14363102 14220002 14020687 13777647 13509791 
1286.321 13239846 12988298 12773167 12607872 12501462 12460747 12490585 
1289.696 12593717 12770813 13019161 13333351 13705009 14123397 14576658 
1293.071 15049464 15524056 15980294 16394654 16746247 17019312 17206804 
1296.446 17312170 17348342 17335720 17295824 17249244 17213182 17199876 
1299.822 17218284 17274964 17372758 17511622 17685868 17885284 18094396 
1303.197 18295176 18471810 18609334 18697914 18731712 18708120 18627628 
1306.572 18493870 18314426 18101272 17869540 17637106 17420110 17231180 
1309.947 17078308 16964114 16888666 16851084 16851258 16890492 16969798 
1313.323 17088786 17244244 17431008 17643662 17878310 18133778 18411692 
1316.698 18714622 19044764 19402356 19786356 20195166 20628334 21086804 
1320.073 21571840 22083492 22617810 23166346 23716204 24251342 24756764 
1323.448 25219616 25631956 25992660 26309268 26598382 26884344 27199380 
1326.823 27577628 28046678 28622714 29302158 30060566 30852634 31623416 
1330.199 32319352 32895546 33328268 33616012 33778396 33849744 33873024 
1333.574 33895416 33958004 34096932 34340104 34704204 35195428 35809420 
1336.949 36534052 37351136 38240672 39184576 40165608 41168168 42177392 
1340.324 43177436 44152612 45087780 45966836 46772944 47485068 48075244 
1343.700 48511060 48757032 48779088 48553784 48069840 47331408 46354424 
1347.075 45165276 43797220 42285192 40669128 38992284 37298636 35637856 
1350.450 34060416 32612246 31336348 30264790 29415994 28796664 28402600 
1353.825 28221704 28235988 28423294 28755806 29197284 29706936 30238856 
1357.201 30746460 31191072 31542276 31781062 31900756 31905070 31808410 
1360.576 31633108 31413530 31193920 31022994 30953176 31028332 31275098 
1363.951 31702500 32301612 33053338 33932568 34913176 35966404 37053980 
1367.326 38129424 39133524 39997328 40656284 41054196 41152360 40935744 
1370.702 40411620 39609820 38576152 37376916 36092868 34809340 33617908 
1374.077 32597140 31799744 31249068 30937806 30840076 30923608 31164406 
1377.452 31552110 32091718 32799844 33701332 34826248 36203384 37857112 
1380.827 39796032 41999972 44400860 46869824 49234804 51280188 52786684 
1384.203 53575804 53514032 52546316 50704492 48127468 45051024 41766516 
1387.578 38586800 35754948 33408344 31581224 30225996 29254874 28567472 
1390.953 28077818 27716262 27428660 27177756 26935282 26681984 26408764 
1394.328 26115974 25812412 25511062 25223654 24956752 24710392 24479738 
1397.704 24258980 24044288 23835442 23636668 23454528 23295608 23163794 
1401.079 23060180 22983458 22931932 22905280 22906154 22940594 23017240 
1404.454 23145620 23332352 23579504 23883014 24234734 24624542 25043760 
1407.829 25487416 25953684 26442780 26954742 27487396 28035862 28594190 
1411.205 29156532 29718822 30278572 30833284 31378694 31908672 32415770 
1414.580 32894940 33345618 33773056 34186580 34597228 35014948 35446408 
1417.955 35897188 36374056 36884812 37440048 38046732 38703348 39399956 
1421.330 40120944 40850552 41577416 42300680 43030816 43788496 44597068 
1424.706 45475388 46433620 47471728 48584908 49767904 51017920 52330184 
1428.081 53691080 55074688 56437472 57724420 58883580 59875008 60683368 
1431.456 61320304 61821280 62237236 62621368 63028096 63507304 64107612 
1434.831 64884888 65900268 67212048 68860584 70842832 73110272 75584176 
1438.207 78178392 80809112 83385712 85810280 87954336 89666848 90808984 
1441.582 91261520 90957912 89891752 88108496 85690552 82735488 79354544 
1444.957 75654568 71729456 67672736 63575192 59538972 55694332 52181488 
1448.332 49129308 46627208 44700144 43317996 42417460 41933588 41813288 
1451.708 42019684 42526712 43304412 44314144 45517776 46878608 48374296 
1455.083 50000716 51758172 53636420 55593656 57553852 59425780 61136000 
1458.458 62650652 63966572 65096924 66059484 66873996 67561504 68142336 
1461.833 68633576 69042528 69363064 69579440 69673728 69641008 69498632 
1465.208 69287152 69054288 68833824 68637304 68451960 68251616 68004704 
1468.584 67681992 67255992 66692040 65943772 64951448 63652984 62014012 
1471.959 60060720 57898952 55684684 53572204 51661764 49981536 48512508 
1475.334 47223752 46101520 45161120 44440828 43979148 43804844 43925548 
1478.709 44334068 45021176 45985588 47239156 48801632 50690044 52908304 
1482.085 55441692 58261456 61334772 64632536 68139152 71846568 75740552 
1485.460 79791312 83928848 88027248 91916256 95370848 98135464 99965840 
1488.835 100646496 100047512 98167160 95153656 91284288 86886568 82280568 
1492.210 77697032 73259376 69017280 64962796 61071544 57339792 53793716 
1495.586 50496200 47531756 44974540 42863068 41188788 39912576 38980176 
1498.961 38341708 37961932 37816044 37885996 38155144 38604072 39209380 
1502.336 39945924 40779976 41670444 42565372 43384008 44015232 44315536 
1505.711 44121212 43310420 41868672 39912508 37634076 35210340 32750678 
1509.087 30298646 27867376 25470092 23127866 20882714 18784818 16874300 
1512.462 15177773 13699572 12425764 11333109 10395207 9587112 8884193 
1515.837 8264804 7712533 7218264 6782812 6412926 6114858 5887353 5717775 
1519.695 5583235 5457896 5322228 5174264 5032182 4924428 4872052 4876877 
1523.552 4923523 4987334 5047736 5093394 5127121 5162494 5216180 5298448 
1527.409 5408307 5536115 5670406 5805108 5941732 6087607 6250606 6434011 
1531.267 6633810 6839660 7039310 7225777 7401371 7578114 7768726 7980210 
1535.124 8208951 8443555 8669159 8873541 9049633 9194965 9310790 9398815 
1538.982 9458411 9485875 9477172 9435926 9374268 9308794 9252705 9208502 
1542.839 9167688 9114899 9036100 8925387 8789105 8643335 8506939 8392341 
1546.697 8299656 8218946 8134773 8034920 7914676 7780330 7645048 7523664 
1550.554 7423346 7341686 7267925 7189865 7099492 6996847 6889378 6788567 
1554.411 6704604 6640506 6591623 6547455 6494950 6419954 6307250 6144196 
1558.269 5926583 5669063 5405892 5178891 5015925 4921445 4882707 4879122 
1562.126 4889711 4895776 4884986 4853154 4805444 4754221 4713556 4693961 
1565.984 4697243 4716905 4741927 4762696 4773718 4775761 4774622 4778609 
1569.841 4794421 4824842 4870243 4929656 5003020 5090478 5190862 5300460 
1573.698 5411629 5515343 5604514 5678194 5745843 5825122 5936458 6091303 
1577.556 6290205 6527004 6794289 7089388 7414987 7778171 8187105 8646918 
1581.413 9157975 9714732 10307183 10922734 11544669 12151993 12720348 
1584.789 13220034 13623013 13908627 14067983 14108918 14055046 13946502 
1588.164 13831655 13762770 13792423 13962480 14303378 14829504 15535903 
1591.539 16394034 17348444 18324172 19224512 19945560 20397128 20507506 
1594.914 20242028 19608424 18657202 17471570 16147256 14784182 13464401 
1598.290 12246082 11167579 10245944 9483843 8873270 8400583 8049468 7804956 
1602.147 7656852 7599998 7633887 7759585 7977240 8283479 8670477 9125118 
1606.004 9627864 10154052 10669027 11130864 11495741 11719363 11767601 
1609.380 11621917 11282301 10768331 10116845 9379177 8608928 7854482 7153282 
1613.237 6524010 5971461 5489471 5067045 4691784 4354764 4053523 3791128 
1617.094 3574291 3409621 3299164 3239306 3221647 3233831 3262240 3294022 
1620.952 3318429 3329814 3328679 3321600 3318161 3326876 3351851 3391555 
1624.809 3441147 3495288 3550405 3604994 3658620 3710884 3760546 3806805 
1628.667 3849157 3889742 3932303 3980921 4038374 4104497 4175681 4245673 
1632.524 4306975 4352790 4377256 4376888 4351585 4305871 4248885 4193479 
1636.382 4152866 4135772 4144336 4174677 4218973 4267556 4310690 4342114 
1640.239 4359450 4365977 4368554 4374846 4389606 4413204 4440585 4463650 
1644.096 4473860 4464419 4432518 4380536 4315843 4248684 4190468 4151662 
1647.954 4139117 4156177 4201776 4271605 4356337 4441957 4510686 4539882 
1651.811 4508678 4410158 4265649 4124265 4033323 4014195 4055965 4132828 
1655.669 4219843 4300650 4367382 4417856 4453540 4477040 4489829 4492072 
1659.526 4482798 4460670 4424718 4375080 4312731 4239349 4158319 4074762 
1663.384 3994966 3926185 3873862 3839731 3821379 3812019 3801958 3780299 
1667.241 3737920 3670215 3578433 3470572 3358229 3253927 3166372 3099290 
1671.098 3052440 3021943 3003025 2988678 2970263 2938237 2883965 2803888 
1674.956 2703553 2597742 2504153 2436075 2396758 2378634 2368839 2355147 
1678.813 2330462 2295185 2257081 2226073 2209788 2207556 2209788 2198865 
1682.671 2155907 2068273 1939418 1792069 1660601 1571571 1531169 1528143 
1686.528 1543838 1562260 1572602 1569708 1553614 1526347 1491303 1452304 
1690.385 1414207 1382496 1362153 1356370 1364148 1379437 1390307 1382263 
1694.243 1342111 1263813 1155362 1039232 943488 886577 869379 876948 886577 
1698.583 873064 817855 715821 582588 450989 352722 304210 300497 325266 
1702.922 359288 387343 399150 390229 362107 321486 278680 242708 219634 
1707.262 210684 213833 224905 239824 256367 274038 294363 319695 351893 
1711.601 391456 437191 486945 538463 590518 642612 694514 745061 790800 
1715.941 826486 846902 850554 841425 830403 830735 851517 894844 955841 
1720.281 1025283 1093539 1152704 1199084 1232411 1255306 1271622 1284582 
1724.138 1296014 1306184 1314792 1321405 1326224 1329249 1329614 1325659 
1727.995 1315556 1298241 1275344 1251252 1230982 1218688 1213638 1209850 
1731.853 1195097 1154332 1075370 955874 810053 665012 551037 485519 467375 
1736.192 482666 513085 542842 559862 558535 538928 506583 470194 438286 
1740.532 417225 409000 412714 425948 446180 471587 501110 534582 572303 
1744.872 614375 660631 709946 760329 809157 853874 892852 925458 952288 
1749.211 974471 992835 1008378 1022227 1036243 1053448 1076964 1108886 
1753.069 1148119 1190778 1229753 1256070 1262018 1243343 1201776 1144797 
1756.926 1084405 1031825 993001 967098 948004 927317 897168 853077 795514 
1761.266 729163 661594 600704 552729 520682 505057 503995 513981 530203 
1765.605 546857 558004 559198 549710 532790 515241 504593 504593 514014 
1769.945 526354 532923 526089 503564 470559 439115 422531 429463 460475 
1774.284 510099 570014 632857 694647 754288 812078 868316 921407 968028 
1778.624 1004725 1029667 1043251 1049362 1053082 1058795 1068129 1079788 
1782.481 1090184 1096130 1095831 1090616 1083342 1078127 1077861 1083574 
1786.339 1094768 1110149 1128552 1149216 1171176 1192606 1209351 1216462 
1790.196 1208355 1181375 1135661 1076433 1012695 954048 907660 875952 856099 
1794.536 843383 832461 819747 802850 781074 754155 722326 685786 645599 
1798.875 603624 562317 524563 492850 468038 449861 436826 428037 422963 
1803.215 421835 425251 433311 444952 458684 472649 485851 498257 510929 
1807.555 525160 541416 559065 576251 591082 602230 610260 617062 625457 
1811.894 637071 652800 671483 691262 710776 729528 748214 768627 792560 
1816.234 821141 854439 891424 930438 969988 1008511 1045078 1078725 1108620 
1820.573 1134200 1154863 1170146 1179448 1181575 1175262 1159016 1133369 
1824.431 1100714 1066700 1038302 1021530 1019072 1029135 1045576 1059891 
1828.288 1063777 1052883 1028471 997916 971283 958664 965006 989481 1026445 
1832.628 1069026 1111178 1149780 1184233 1216728 1249690 1285081 1323998 
1836.485 1367272 1415171 1469127 1530604 1601135 1681124 1769944 1865504 
1840.343 1965146 2065909 2165430 2261544 2352681 2438074 2519117 2598942 
1844.200 2682782 2776643 2884465 3006728 3139738 3276695 3409287 3530128 
1848.058 3634296 3720141 3788856 3842773 3884025 3913246 3929027 3929294 
1851.915 3912076 3877105 3825858 3760713 3684050 3597577 3501902 3397299 
1855.772 3284775 3166873 3047234 2929830 2817527 2710922 2609142 2510485 
1859.630 2413817 2319669 2229670 2145784 2069105 1998831 1932894 1869464 
1863.487 1807839 1750282 1700317 1661932 1637219 1625479 1622818 1624182 
1867.345 1625413 1625346 1625612 1629969 1641443 1661000 1685947 1712558 
1871.202 1736243 1754940 1767548 1774402 1776498 1774102 1767016 1755505 
1875.060 1740235 1723303 1707169 1693664 1682754 1671910 1656643 1632463 
1878.917 1596446 1548426 1491402 1429067 1365544 1303060 1242114 1182605 
1882.774 1124267 1068627 1018541 976829 944983 922635 906897 893881 880202 
1887.114 864830 848629 834287 824394 820909 824328 833856 848961 869312 
1891.454 894910 925225 958232 990411 1018341 1039398 1053414 1063744 1074905 
1895.793 1091646 1116460 1148917 1185495 1222011 1255638 1286011 1314725 
1899.651 1343972 1375781 1409587 1443561 1475311 1503571 1529273 1554678 
1903.508 1582013 1612442 1644437 1675236 1701880 1722637 1738040 1750448 
1907.365 1762691 1776465 1790871 1803348 1811300 1812963 1807906 1798124 
1911.223 1785547 1771108 1754540 1734713 1710529 1682853 1653583 1625512 
1915.080 1600203 1577424 1553980 1526979 1493863 1455762 1416734 1382396 
1918.938 1356536 1339685 1327088 1312432 1289102 1254110 1208288 1157355 
1922.795 1108288 1066933 1036010 1015419 1002798 996522 996289 1002699 
1926.653 1015319 1031493 1045343 1050359 1041026 1017013 982706 946211 
1930.510 916559 900389 898828 907793 920510 930771 934921 932696 926321 
1934.850 918186 909586 900356 890428 880766 873296 871537 876882 888270 
1939.189 901750 911379 913039 906166 894910 886577 889000 906830 938939 
1943.529 979585 1022626 1062349 1097293 1129183 1159847 1189449 1214933 
1947.386 1230883 1233042 1220283 1197390 1172173 1154166 1149747 1160710 
1951.244 1183668 1212109 1239921 1263713 1282323 1296912 1307414 1312399 
1955.101 1308477 1293190 1266039 1230617 1193469 1162505 1143136 1137754 
1958.958 1143900 1158053 1175794 1195363 1216163 1237927 1258562 1276009 
1962.816 1286344 1287806 1282223 1274281 1269794 1274580 1289700 1313329 
1966.673 1339984 1365577 1388578 1411947 1439206 1473715 1513679 1553581 
1970.531 1585937 1604826 1608019 1599572 1585771 1573899 1568545 1572967 
1974.388 1588298 1618395 1669449 1750016 1865770 2015441 2187409 2360277 
1978.246 2509419 2616575 2672547 2680615 2652478 2603542 2546779 2489823 
1982.103 2436441 2387029 2342321 2304645 2276665 2259812 2252384 2249054 
1985.960 2243525 2230436 2208389 2181448 2156406 2140456 2137826 2148082 
1989.818 2167428 2190772 2214683 2238096 2262943 2290522 2320801 2351682 
1993.675 2380366 2403588 2421180 2434408 2445638 2455701 2463065 2463931 
1997.533 2454368 2431909 2399324 2362509 2329529 2307077 2297284 2297650 
2001.390 2301614 2301614 2293220 2275466 2251152 2224275 2198731 2176486 
2005.248 2158704 2145584 2140023 2144119 2161201 2190539 2229104 2268705 
2009.105 2301348 2320601 2324132 2314139 2296518 2276732 2258446 2242126 
2012.962 2227405 2212885 2200030 2191904 2192271 2203627 2225607 2255382 
2016.820 2289456 2324765 2362309 2404521 2453901 2511152 2573510 2634609 
2020.677 2687883 2727893 2752734 2763471 2764304 2758569 2748199 2734161 
2024.535 2717123 2698919 2682482 2670413 2663546 2658145 2647577 2624609 
2028.392 2584776 2530348 2471096 2420714 2392560 2395459 2429410 2487124 
2032.250 2557011 2627509 2692084 2748432 2798752 2845042 2888535 2927962 
2036.107 2961355 2988612 3011232 3033053 3057879 3087477 3120682 3154123 
2039.964 3183595 3207861 3226688 3242477 3257666 3273090 3286711 3295091 
2043.822 3294356 3283740 3264844 3242377 3222448 3210097 3208295 3217942 
2047.679 3238071 3266513 3299498 3331183 3353888 3358162 3335958 3284174 
2051.537 3205057 3109235 3010131 2924126 2862285 2829200 2820395 2825498 
2055.394 2832802 2832402 2821063 2801053 2777243 2755401 2737996 2725459 
2059.251 2716123 2708988 2704987 2706087 2714322 2729860 2750366 2771441 
2063.109 2788581 2800053 2806822 2812625 2821163 2834936 2852546 2870357 
2066.966 2882998 2887934 2883965 2874092 2861718 2849845 2839105 2828366 
2070.824 2815393 2798952 2779677 2760170 2742697 2728393 2716490 2703786 
2074.681 2687716 2666613 2641943 2617075 2596675 2583742 2578376 2578076 
2078.539 2579009 2576776 2569443 2556678 2540413 2522516 2504520 2486791 
2082.396 2469529 2452868 2437807 2425379 2415916 2408852 2401722 2391927 
2086.253 2376935 2356146 2330895 2303846 2277765 2253883 2231369 2207323 
2090.111 2178717 2143686 2102865 2059351 2017738 1982720 1958056 1945941 
2093.968 1946906 1960553 1985616 2019669 2058951 2098237 2132365 2156473 
2097.826 2168161 2168394 2160902 2150745 2143387 2141655 2146450 2156839 
2101.683 2170925 2187908 2208755 2234333 2265641 2301781 2340189 2377468 
2105.541 2410852 2439273 2463898 2486691 2509686 2533081 2555578 2574609 
2109.398 2588675 2597775 2604275 2611508 2622809 2639043 2658778 2678415 
2113.255 2694084 2703486 2707254 2707521 2708054 2711588 2719390 2730927 
2117.113 2744531 2758602 2772474 2785946 2799452 2812992 2826065 2837905 
2120.970 2847843 2856315 2863753 2871324 2878395 2883031 2881764 2871157 
2124.828 2849244 2816694 2776609 2733494 2690950 2650478 2609942 2565210 
2128.685 2512118 2448370 2375369 2296984 2219945 2151478 2096106 2057719 
2132.542 2037345 2034815 2048897 2077628 2116915 2160602 2200929 2230370 
2136.400 2243758 2240228 2222976 2198865 2174155 2153776 2138359 2126039 
2140.257 2113320 2097804 2079160 2059917 2043737 2034016 2032019 2037645 
2144.115 2048964 2063512 2078627 2093009 2102765 2104629 2093975 2068006 
2147.972 2026393 1973533 1917053 1866536 1828635 1806874 1798190 1796194 
2151.830 1791736 1778161 1750482 1707535 1649659 1579219 1499116 1416568 
2155.687 1342776 1296546 1299537 1375748 1539382 1789906 2106927 2454901 
2159.544 2792182 3082271 3302169 3445890 3521409 3545761 3538479 3518670 
2163.402 3499564 3490078 3493451 3508516 3531063 3553679 3569079 3571217 
2167.259 3556385 3524349 3478621 3423981 3364707 3303805 3241976 3178454 
2171.117 3112906 3046634 2983507 2928896 2888235 2865353 2861051 2872791 
2174.974 2895439 2921891 2945509 2960588 2962623 2950413 2924893 2889902 
2178.832 2851579 2817227 2793950 2786847 2797918 2824731 2862919 2906747 
2182.689 2951380 2993983 3033253 3067856 3097388 3119147 3131795 3134498 
2186.546 3129192 3119747 3111571 3110036 3118846 3138370 3167106 3200951 
2190.404 3237103 3272489 3306275 3338095 3367612 3394427 3417870 3437440 
2194.261 3454306 3469470 3484700 3500098 3515063 3526554 3532399 3530462 
2198.119 3520908 3504841 3485168 3463959 3442918 3422278 3402241 3383140 
2201.976 3366777 3355257 3350850 3353788 3362236 3372187 3379366 3380836 
2205.833 3376962 3371051 3367646 3371352 3384175 3405213 3431395 3458615 
2209.691 3484299 3506678 3525986 3542755 3556418 3566006 3569848 3566540 
2213.548 3556652 3542254 3526654 3512157 3500399 3490646 3481560 3472709 
2217.406 3464794 3460118 3461854 3471841 3489510 3511789 3534103 3552008 
2221.263 3562498 3565204 3561529 3554046 3544058 3532099 3517167 3498495 
2225.121 3476216 3452202 3429058 3409788 3396163 3388215 3384275 3382772 
2228.978 3381904 3381069 3379533 3377563 3374090 3368313 3359531 3348512 
2232.835 3337093 3328345 3325440 3329747 3340365 3354289 3367412 3376962 
2236.693 3381437 3382806 3383874 3388182 3396998 3409989 3424983 3439945 
2240.550 3453405 3466096 3479289 3495055 3513960 3535473 3557420 3577398 
2244.408 3593234 3603858 3609103 3609270 3604693 3595739 3582743 3567041 
2248.265 3550371 3535807 3525384 3520708 3521075 3525017 3530428 3536508 
2252.123 3543724 3554347 3570683 3594069 3623470 3655780 3686389 3711084 
2255.980 3726624 3732071 3728428 3717066 3699187 3676063 3648630 3618492 
2259.837 3588589 3562732 3544525 3536675 3539682 3551607 3569513 3590494 
2263.695 3612912 3636668 3662831 3692303 3725053 3759477 3793067 3822917 
2267.552 3846884 3864569 3876470 3883524 3887034 3887335 3884828 3880582 
2271.410 3876136 3873661 3875233 3881919 3892885 3906191 3918996 3929027 
2275.267 3935145 3938054 3939492 3941598 3945745 3952298 3960657 3970321 
2279.125 3981222 3993996 4010215 4030748 4055865 4084929 4116538 4148417 
2282.982 4179629 4209203 4236505 4260864 4281074 4295731 4303897 4305068 
2286.839 4300483 4292218 4283082 4275520 4270701 4268627 4268192 4267824 
2290.697 4266619 4264645 4262804 4262704 4265950 4273211 4284722 4299680 
2294.554 4317215 4336023 4354832 4372269 4387196 4398710 4406576 4411028 
2298.412 4412969 4413271 4412668 4410827 4407179 4400484 4390175 4376151 
2302.269 4359551 4342147 4325782 4311459 4298977 4287499 4275419 4261934 
2306.126 4247111 4231988 4218304 4207531 4200137 4195486 4192408 4188862 
2309.984 4183543 4175781 4165277 4152866 4139218 4125503 4112792 4102222 
2313.841 4094796 4091318 4091686 4095231 4099813 4103727 4104864 4102556 
2317.699 4096971 4089946 4083290 4078909 4078273 4082020 4090247 4102322 
2321.556 4116973 4131758 4142663 4143867 4129784 4095097 4037470 3958016 
2325.414 3861994 3757304 3652773 3556719 3473945 3406482 3352653 3309848 
2329.271 3274926 3245949 3222615 3205524 3195711 3193274 3197647 3207761 
2333.128 3222148 3239740 3259803 3281736 3304873 3328045 3349948 3369783 
2336.986 3387113 3402575 3416968 3431329 3445890 3460919 3475983 3491347 
2340.843 3507146 3524215 3542488 3561128 3578133 3591930 3601886 3610005 
2344.701 3621699 3644954 3687358 3754831 3848288 3963634 4092856 4225999 
2348.558 4353526 4466930 4560508 4630896 4677047 4699923 4702335 4688502 
2352.416 4662578 4629121 4592117 4554614 4519358 4488791 4464754 4449489 
2356.273 4444602 4451029 4469207 4498500 4537873 4585554 4639603 4698583 
2360.130 4760452 4823971 4887433 4949194 5008216 5063726 5116561 5168228 
2363.988 5220975 5276747 5336619 5399753 5464506 5529001 5591089 5649258 
2367.845 5703070 5751954 5795470 5832644 5862231 5883658 5897630 5906665 
2371.703 5915096 5928095 5951070 5987720 6040399 6109616 6194776 6294744 
2375.560 6408320 6534303 6671863 6819633 6976846 7142402 7315907 7497065 
2379.417 7686293 7883802 8089164 8300974 8516840 8733252 8946594 9152967 
2383.275 9349248 9532613 9700671 9851169 9982292 10092359 10180813 10247776 
2387.132 10294494 10322826 10334872 10332089 10315632 10285842 10242756 
2390.508 10186376 10117557 10037830 9949371 9854694 9756817 9658150 9560522 
2394.365 9465760 9374776 9288279 9207182 9132224 9064620 9006128 8958736 
2398.222 8924305 8904215 8899277 8909051 8932760 8969054 9017020 9076429 
2402.080 9147519 9230704 9326769 9435553 9556288 9687728 9828426 9977172 
2405.937 10133497 10297412 10468889 10648108 10834977 11029404 11231499 
2409.313 11441682 11660784 11889223 12126472 12370600 12617458 12862306 
2412.688 13098960 13321495 13525276 13706445 13862409 13991908 14094166 
2416.063 14169746 14220139 14247804 14256192 14248728 14228973 14199153 
2419.438 14160572 14113744 14058777 13995604 13924639 13846365 13761641 
2422.813 13671258 13576483 13479064 13381974 13288389 13202681 13129012 
2426.189 13070514 13029234 13005949 13000452 13012470 13042447 13091311 
2429.564 13160364 13250538 13361472 13491744 13638775 13800187 13973875 
2432.939 14159442 14357211 14568023 14792821 15031970 15284842 15550842 
2436.314 15829686 16121292 16426517 16745696 17079412 17427318 17789274 
2439.690 18165320 18556768 18965978 19395532 19848296 20325734 20827266 
2443.065 21351232 21894616 22454028 23027024 23611410 24205692 24808506 
2446.440 25418588 26034346 26654362 27277592 27902886 28528938 29153662 
2449.815 29774282 30386942 30987444 31572278 32138244 32683186 33205032 
2453.191 33701044 34167364 34598592 34988228 35330192 35618468 35847384 
2456.566 36012656 36109972 36135288 36085384 35957188 35749120 35461580 
2459.941 35096416 34656904 34147148 33571760 32934830 32240618 31493430 
2463.316 30698486 29861690 28990588 28093160 27178814 26257276 25337582 
2466.692 24429052 23540394 22678758 21851162 21063502 20320456 19625720 
2470.067 18981590 18388566 17846616 17354030 16908508 16506704 16144814 
2473.442 15818587 15523301 15254469 15008166 14781131 14570832 14375089 
2476.817 14191519 14018292 13853104 13693758 13539085 13388500 13242408 
2480.193 13102170 12969555 12846095 12732904 12629909 12536623 12451779 
2483.568 12373804 12301230 12232995 12168008 12106029 12047023 11991907 
2486.943 11941158 11895898 11856635 11823880 11797390 11777270 11763141 
2490.318 11755208 11753133 11756945 11766069 11779653 11796573 11815333 
2493.694 11835116 11855444 11876249 11898044 11921098 11945177 11969938 
2497.069 11994462 12018033 12040108 12060819 12080341 12099215 12117477 
2500.444 12135228 12151890 12167394 12181672 12195235 12208594 12222839 
2503.819 12238686 12256545 12276416 12298025 12321136 12344998 12369168 
2507.195 12392726 12414716 12434083 12449733 12461225 12468419 12470874 
2510.570 12468419 12460508 12445812 12423547 12392521 12352669 12304502 
2513.945 12249490 12189613 12126369 12061466 11996029 11930056 11863854 
2517.320 11797731 11731992 11667012 11603403 11541266 11480908 11422803 
2520.696 11367869 11317022 11272337 11234117 11203244 11179444 11161936 
2524.071 11149425 11141539 11137731 11138479 11144089 11154830 11169925 
2527.446 11188420 11208650 11229799 11251424 11274446 11299781 11328892 
2530.821 11362086 11399502 11440152 11483256 11527929 11574205 11621917 
2534.197 11671233 11722222 11774716 11828306 11883128 11939694 11998822 
2537.572 12061739 12129163 12200722 12275496 12351645 12427229 12500986 
2540.947 12572195 12641268 12708885 12776239 12843876 12912173 12981914 
2544.322 13052861 13125119 13198549 13272435 13345617 13417102 13485455 
2547.698 13549888 13610295 13667223 13721628 13774056 13824883 13873390 
2551.073 13918891 13960906 13999230 14034786 14069146 14103476 14138595 
2554.448 14174333 14209731 14243113 14273073 14297899 14317657 14331971 
2557.823 14341252 14345773 14345190 14338787 14326116 14306151 14278688 
2561.198 14243935 14202645 14155677 14104263 14049331 13991805 13932268 
2564.574 13871405 13809525 13747551 13686030 13626432 13569886 13518131 
2567.949 13471955 13432310 13399606 13373738 13354433 13341859 13335845 
2571.324 13336563 13344011 13358088 13377941 13402647 13430703 13461086 
2574.699 13493283 13527395 13563561 13602842 13645785 13692801 13743994 
2578.075 13799571 13858953 13922106 13988246 14056381 14125005 14192853 
2581.450 14258521 14321493 14381871 14440750 14499397 14559355 14621307 
2584.825 14685566 14751856 14819528 14888547 14958950 15031250 15105758 
2588.200 15182577 15260990 15339759 15417376 15492464 15564029 15631724 
2591.576 15695583 15756221 15814772 15872231 15929937 15988888 16050048 
2594.951 16113762 16180340 16248647 16317928 16387220 16456526 16526252 
2598.326 16598057 16673798 16755270 16843610 16938962 17040504 17147308 
2601.701 17257966 17371412 17487370 17605568 17725938 17848514 17973338 
2605.077 18100234 18229380 18360982 18495150 18631988 18771324 18912124 
2608.452 19053488 19193758 19331648 19465594 19594314 19716242 19830262 
2611.827 19934668 20028376 20110306 20179894 20236336 20279800 20309900 
2615.202 20326950 20331048 20323096 20303998 20275494 20239356 20197838 
2618.578 20152680 20105344 20057072 20008806 19961276 19915380 19871708 
2621.953 19831060 19793638 19759620 19728792 19701472 19677652 19658030 
2625.328 19643608 19635220 19633554 19639274 19652240 19672486 19700084 
2628.703 19735104 19777826 19828354 19886588 19951978 20023344 20099790 
2632.079 20180344 20264594 20352436 20443978 20539048 20637506 20738286 
2635.454 20840752 20943838 21047608 21152164 21258350 21366826 21478528 
2638.829 21593220 21710380 21829282 21948492 22066830 22183316 22297008 
2642.204 22407416 22514432 22618124 22718802 22817304 22914468 23011300 
2645.580 23108752 23207132 23306864 23408262 23511188 23615676 23721942 
2648.955 23829912 23940152 24052692 24168312 24287290 24410720 24539126 
2652.330 24673076 24813136 24959208 25111192 25268954 25431904 25600042 
2655.705 25773066 25951116 26133252 26319162 26507930 26698896 26891394 
2659.081 27085596 27281438 27479312 27679040 27880238 28081954 28282950 
2662.456 28482128 28678920 28873180 29065510 29256754 29447586 29638642 
2665.831 29830280 30022644 30216086 30411356 30609096 30810198 31015662 
2669.206 31225996 31441278 31661548 31886638 32115656 32347836 32582030 
2672.582 32816600 33049904 33280436 33507008 33728512 33944460 34154748 
2675.957 34359148 34557580 34750076 34936404 35117072 35293244 35466540 
2679.332 35639440 35814672 35995016 36183400 36382268 36593636 36819092 
2682.707 37060080 37317228 37590860 37881296 38188316 38511412 38850836 
2686.083 39205828 39576028 39960672 40358348 40767384 41186200 41613188 
2689.458 42047496 42488668 42937020 43392868 43856560 44328268 44808392 
2692.833 45296952 45794676 46301856 46819332 47347000 47884632 48431264 
2696.208 48985560 49546428 50113044 50685204 51262628 51845416 52433284 
2699.583 53024756 53618536 54212568 54805304 55395348 55981604 56562568 
2702.959 57136532 57700880 58252932 58789220 59306800 59802372 60272892 
2706.334 60714804 61124212 61496864 61828652 62115996 62356676 62549456 
2709.709 62694824 62793560 62846936 62855668 62820704 62742672 62622176 
2713.084 62460424 62258460 62017376 61737660 61419496 61062924 60667596 
2716.460 60234140 59763624 59257996 58719648 58152080 57558920 56944096 
2719.835 56312256 55668036 55016504 54362600 53710920 53065976 52431788 
2723.210 51812188 51211068 50632032 50078500 49553260 49058556 48595840 
2726.585 48166008 47769480 47406384 47077348 46782544 46522420 46297100 
2729.961 46106608 45950116 45826448 45734372 45672640 45639696 45634840 
2733.336 45656700 45704076 45775936 45870788 45987132 46123556 46277932 
2736.711 46447924 46630860 46823320 47021552 47222200 47421756 47617192 
2740.086 47806612 47987788 48159084 48319148 48466864 48601732 48723964 
2743.462 48834736 48936008 49030108 49119104 49204888 49288952 49372396 
2746.837 49456304 49541788 49630184 49722240 49818436 49918712 50022020 
2750.212 50127956 50236224 50347348 50463184 50586316 50719388 50865460 
2753.587 51027272 51206892 51406424 51627880 51872932 52143376 52439752 
2756.963 52761620 53107092 53473368 53855936 54249844 54649972 55050424 
2760.338 55445416 55829348 56196356 56540640 56857480 57142200 57390912 
2763.713 57600460 57768168 57891648 57969680 58002060 57989712 57935412 
2767.088 57843040 57717304 57563120 57385808 57189748 56979680 56760088 
2770.464 56535168 56309240 56086364 55869784 55661936 55464956 55279656 
2773.839 55106620 54945880 54796924 54658764 54529964 54408076 54290052 
2777.214 54172060 54050236 53919632 53775192 53611976 53424688 53209212 
2780.589 52962504 52683616 52373696 52036204 51675760 51298128 50909156 
2783.965 50514252 50118024 49724468 49336868 48958408 48591244 48237200 
2787.340 47897212 47571312 47258848 46959192 46671516 46395272 46130520 
2790.715 45877492 45636092 45406300 45187888 44980456 44783520 44596484 
2794.090 44418660 44248540 44084028 43922288 43760056 43593752 43419928 
2797.466 43235924 43039924 42830776 42607808 42370772 42119520 41854332 
2800.841 41575192 41282424 40976848 40658648 40328208 39985848 39632108 
2804.216 39267916 38894644 38514524 38130108 37744908 37361716 36983800 
2807.591 36613640 36253880 35906944 35574956 35260396 34965532 34692184 
2810.967 34441640 34214540 34011068 33830688 33672540 33535786 33419292 
2814.342 33321828 33242446 33179962 33133540 33102718 33087268 33087376 
2817.717 33103362 33135544 33184648 33250962 33335172 33437866 33559948 
2821.092 33702404 33865968 34050844 34256380 34480952 34722332 34977380 
2824.468 35242932 35515584 35791756 36067992 36340296 36604232 36855664 
2827.843 37090136 37303256 37491336 37651096 37779896 37875732 37937448 
2831.218 37964352 37956900 37916188 37844132 37743212 37616768 37468760 
2834.593 37302860 37123812 36935888 36742968 36548360 36354024 36161392 
2837.969 35970328 35780528 35591104 35401828 35212604 35024036 34837164 
2841.344 34653424 34474640 34303460 34142276 33995088 33865860 33759236 
2844.719 33679880 33631688 33617476 33638064 33691376 33772808 33873528 
2848.094 33982116 34084352 34164104 34205904 34196436 34125788 33989712 
2851.469 33789212 33530488 33223990 32882824 32521818 32155510 31798034 
2854.845 31462044 31157252 30891056 30667016 30485742 30344444 30237614 
2858.220 30158652 30100230 30055026 30017068 29980964 29942694 29898996 
2861.595 29848098 29788726 29721128 29646412 29566282 29483118 29399400 
2864.970 29317684 29240414 29170706 29111498 29066324 29038762 29031572 
2868.346 29046380 29083224 29140480 29215500 29304356 29403548 29509288 
2871.721 29618884 29729892 29840716 29950858 30060352 30170408 30283084 
2875.096 30400944 30526832 30663390 30812510 30975274 31152126 31342938 
2878.471 31547408 31764914 31994410 32234478 32483396 32738850 32998494 
2881.847 33260406 33523404 33786024 34047904 34307580 34563536 34813076 
2885.222 35053272 35280772 35493040 35688360 35866564 36028388 36176300 
2888.597 36312632 36440824 36564620 36687184 36812460 36944296 37086348 
2891.972 37243252 37420148 37622800 37858272 38134524 38458880 38838516 
2895.348 39277888 39777620 40332792 40932284 41557836 42183160 42778632 
2898.723 43310268 43744228 44053148 44216992 44227480 44088828 43817416 
2902.098 43438784 42981796 42478112 41956068 41437712 40941060 40477700 
2905.473 40055244 39678136 39349312 39070004 38841416 38663216 38535452 
2908.849 38457108 38427388 38445196 38509600 38618924 38771052 38962668 
2912.224 39188892 39443060 39716840 40000380 40282400 40550744 40794316 
2915.599 41002448 41167112 41283188 41348780 41365324 41336428 41267516 
2918.974 41164888 41034276 40880984 40709008 40521204 40319700 40106044 
2922.350 39881412 39647352 39406160 39160572 38914068 38669988 38431548 
2925.725 38201052 37979864 37768440 37566692 37374608 37192352 37020784 
2929.100 36861832 36717616 36590716 36483852 36399240 36338388 36302220 
2932.475 36290656 36302652 36336444 36389692 36459920 36545008 36642984 
2935.851 36752560 36872872 37002672 37140776 37285456 37435100 37588152 
2939.226 37743648 37901764 38063084 38228804 38399548 38575032 38753376 
2942.601 38931064 39102488 39260044 39394984 39497200 39556100 39562524 
2945.976 39509248 39392772 39214460 38980612 38702444 38393252 38068360 
2949.352 37741804 37424624 37125004 36846972 36591472 36356940 36139860 
2952.727 35936528 35742568 35554060 35368256 35182636 34995952 34807224 
2956.102 34615960 34421444 34223000 34019884 33811488 33598144 33381004 
2959.477 33162080 32943800 32728702 32518498 32314320 32116442 31924934 
2962.853 31739890 31562232 31393298 31235362 31090794 30961896 30850856 
2966.228 30759442 30688920 30639958 30612970 30607034 30620082 30648988 
2969.603 30689134 30735152 30781884 30824284 30858612 30882624 30895432 
2972.978 30897352 30890238 30876648 30859358 30841074 30823252 30805076 
2976.354 30783342 30751332 30699660 30617842 30494520 30320744 30090784 
2979.729 29802884 29459570 29067848 28637756 28180690 27709412 27236492 
2983.104 26772756 26328102 25910492 25525398 25177022 24868010 24600064 
2986.479 24375076 24194902 24061064 23974148 23931678 23926986 23946768 
2989.854 23972748 23981712 23947538 23847764 23665116 23392108 23032194 
2993.230 22599938 22118392 21613280 21110874 20633270 20194366 19801406 
2996.605 19454818 19150576 18882432 18643782 18429600 18235668 18059474 
2999.980 17898958 17751858 17616264 17490060 17371102 17257382 17147652 
3003.355 17040540 16935380 16831658 16729338 16628731 16530728 16436497 
3006.731 16347172 16263817 16186908 16116273 16051218 15990710 15933821 
3010.106 15879620 15827967 15778761 15732549 15689708 15650410 15614688 
3013.481 15582369 15553349 15527593 15505719 15488481 15477219 15473167 
3016.856 15477184 15489374 15509118 15534564 15563239 15593016 15621352 
3020.232 15646219 15666556 15681189 15689090 15689228 15680261 15661094 
3023.607 15631519 15591780 15543665 15489649 15433237 15377004 15323660 
3026.982 15274683 15230653 15191705 15157565 15127749 15101984 15079549 
3030.357 15059583 15040820 15021611 15000312 14975480 14946432 14912962 
3033.733 14875621 14835470 14793541 14751513 14710758 14672748 14638784 
3037.108 14610136 14587589 14571826 14562747 14560657 14565179 14576144 
3040.483 14593345 14616510 14645331 14679019 14716756 14757751 14800706 
3043.858 14844659 14888615 14931411 14971913 15009023 15041849 15069635 
3047.234 15092687 15111728 15128092 15143222 15158662 15175063 15192632 
3050.609 15210818 15228388 15244276 15256528 15263907 15264936 15258690 
3053.984 15244653 15223308 15196132 15165010 15132655 15101435 15072961 
3057.359 15048126 15026619 15007926 14991291 14976406 14963682 14953393 
3060.735 14946363 14942420 14940911 14940877 14941254 14941185 14940430 
3064.110 14939195 14938235 14938235 14939847 14943071 14948318 14955623 
3067.485 14965294 14977846 14993555 15012350 15033823 15057285 15081675 
3070.860 15106512 15131523 15157186 15184121 15213048 15244653 15279145 
3074.236 15316453 15356235 15398116 15441271 15485391 15529825 15574058 
3077.611 15617470 15659651 15700290 15739009 15775910 15810579 15843293 
3080.986 15873984 15903126 15931208 15958913 15986929 16015153 16043345 
3084.361 16070712 16096329 16119780 16141307 16162319 16184466 16209953 
3087.737 16239738 16273931 16311392 16349856 16387427 16422492 16454700 
3091.112 16484883 16514413 16545046 16577816 16613273 16651418 16691841 
3094.487 16734401 16779170 16826216 16875714 16927594 16981168 17035610 
3097.862 17089854 17142690 17193602 17242210 17288412 17332582 17374964 
3101.238 17416210 17456636 17496822 17537252 17578310 17620300 17663160 
3104.613 17707162 17752788 17800148 17849828 17902030 17956346 18011914 
3107.988 18067728 18122274 18174476 18224300 18271952 18318710 18365960 
3111.363 18414770 18465692 18518662 18572848 18627282 18681172 18734376 
3114.739 18786686 18838586 18890564 18943134 18996716 19051412 19107154 
3118.114 19163976 19221360 19278612 19335388 19390716 19444178 19495846 
3121.489 19545928 19595320 19645030 19696062 19748732 19802968 19858390 
3124.864 19914132 19969220 20023310 20075916 20127344 20178054 20228664 
3128.240 20280042 20332644 20386848 20442552 20499862 20558258 20617736 
3131.615 20677676 20737972 20797926 20857266 20915222 20971272 21025418 
3134.990 21077900 21129380 21181250 21234760 21290816 21349770 21411202 
3138.365 21473934 21536462 21597258 21655244 21710102 21762180 21812104 
3141.740 21860814 21909182 21957832 22007604 22058846 22111976 22167414 
3145.116 22225266 22285220 22346890 22409510 22472312 22534882 22597112 
3148.491 22659176 22721770 22785492 22851006 22918762 22989082 23062068 
3151.866 23137476 23214892 23293334 23371652 23448932 23524444 23597976 
3155.241 23669874 23740840 23811606 23882736 23954400 24026008 24097066 
3158.617 24167298 24236766 24306388 24377282 24450714 24527380 24607324 
3161.992 24689736 24773636 24857588 24940750 25022770 25103680 25184044 
3165.367 25264074 25344082 25423682 25502454 25579342 25653292 25723704 
3168.742 25790014 25852182 25910738 25966524 26020308 26072660 26123540 
3172.118 26172350 26217854 26258650 26293462 26321658 26343136 26358838 
3175.493 26369962 26378060 26384928 26391968 26400384 26411052 26424012 
3178.868 26438872 26454682 26470284 26484722 26497328 26508528 26519306 
3182.243 26531070 26545124 26562312 26581862 26602786 26623642 26643158 
3185.619 26660986 26677652 26694282 26712004 26731384 26752670 26775574 
3188.994 26799716 26824774 26851316 26879690 26910358 26942932 26976496 
3192.369 27009744 27041444 27070926 27098680 27125590 27153030 27181742 
3195.744 27211762 27242206 27272300 27301092 27328156 27353914 27378970 
3199.120 27404028 27429156 27454074 27478180 27501232 27523190 27544688 
3202.495 27566436 27589068 27612194 27635710 27658946 27681688 27704362 
3205.870 27727884 27752890 27779804 27807744 27834946 27859746 27880874 
3209.245 27897868 27912180 27925924 27941188 27959598 27980978 28004266 
3212.621 28027664 28049224 28068452 28085524 28101748 28118540 28136992 
3215.996 28157320 28179028 28200772 28221208 28239242 28254342 28266894 
3219.371 28277574 28287760 28299110 28313222 28331366 28354354 28382262 
3222.746 28414274 28448836 28484392 28518924 28551548 28581378 28608558 
3226.122 28633616 28657328 28680300 28703166 28726246 28749824 28773828 
3229.497 28798292 28823076 28848110 28873924 28900766 28929842 28962038 
3232.872 28997812 29037098 29078972 29121772 29163868 29203874 29241266 
3236.247 29276390 29310098 29343138 29375930 29408122 29439004 29468224 
3239.623 29496026 29523474 29552342 29584406 29620162 29659254 29699946 
3242.998 29739968 29777512 29812004 29843874 29874966 29907194 29942018 
3246.373 29979792 30019910 30061560 30103462 30145404 30187600 30230542 
3249.748 30274558 30319252 30363738 30406912 30447180 30483894 30516844 
3253.124 30546312 30572868 30597078 30619406 30639850 30658732 30676334 
3256.499 30693294 30710540 30728820 30748736 30770574 30793872 30818094 
3259.874 30841928 30864126 30883194 30898136 30908488 30914252 30916422 
3263.249 30916352 30915570 30915532 30917028 30920086 30923788 30927416 
3266.625 30929870 30930690 30929906 30927736 30925070 30921868 30918342 
3270.000 30913932 30908416 30901160 30892016 30880988 30868536 30854804 
3273.375 30840290 30825208 30809558 30793446 30776550 30758376 30739134 
3276.750 30718508 30697030 30675728 30655532 30637646 30622392 30609664 
3280.125 30598360 30587444 30575676 30562630 30548838 30535506 30523952 
3283.501 30515208 30508988 30504652 30500350 30494628 30487022 30477746 
3286.876 30467864 30458516 30450378 30443090 30435736 30427028 30416260 
3290.251 30403894 30391314 30380654 30373760 30371412 30373722 30379444 
3293.626 30387262 30395898 30405244 30415620 30427774 30442452 30459938 
3297.002 30479876 30501488 30523846 30546348 30568566 30590360 30611548 
3300.377 30632064 30651656 30670216 30688174 30706168 30725442 30747066 
3303.752 30772212 30801518 30834528 30870990 30909734 30949904 30990894 
3307.127 31032318 31074634 31118130 31163480 31211186 31261354 31313450 
3310.503 31366800 31420368 31473372 31525496 31576910 31628546 31681150 
3313.878 31735614 31792116 31850442 31909208 31967230 32023586 32077984 
3317.253 32130644 32182484 32234338 32286800 32340124 32393888 32447476 
3320.628 32500394 32552138 32602318 32650646 32696478 32739420 32778834 
3324.004 32814744 32847226 32877106 32905374 32932826 32960064 32987234 
3327.379 33014260 33040858 33066924 33092026 33115804 33137512 33156392 
3330.754 33171200 33181570 33187364 33189404 33188902 33187114 33184540 
3334.129 33180996 33175382 33166014 33151780 33131752 33106148 33075542 
3337.505 33040572 33001888 32959350 32912598 32861524 32806668 32748782 
3340.880 32688834 32627962 32566208 32502818 32436762 32366828 32292154 
3344.255 32212426 32128144 32039672 31947258 31850766 31749550 31643476 
3347.630 31532944 31419370 31304936 31192210 31083140 30978798 30878924 
3351.006 30782596 30688316 30594660 30500670 30405776 30310158 30213954 
3354.381 30117524 30021260 29925512 29830708 29737662 29646660 29557912 
3357.756 29471344 29386636 29303754 29222764 29143882 29067600 28994520 
3361.131 28924494 28857104 28791634 28727238 28663418 28600384 28538386 
3364.507 28478308 28420784 28365816 28312938 28261344 28209966 28158064 
3367.882 28105638 28052934 28000768 27950058 27901756 27855896 27812302 
3371.257 27770196 27728094 27684548 27637900 27586844 27530920 27470240 
3374.632 27404978 27335988 27263340 27187070 27106192 27019934 26927492 
3378.008 26828440 26723422 26613074 26498316 26379434 26256290 26127586 
3381.383 25991640 25846872 25692556 25528562 25356022 25176776 24992620 
3384.758 24805384 24616406 24426456 24235752 24044148 23851756 23658364 
3388.133 23464356 23270122 23076360 22883416 22691502 22500370 22308902 
3391.509 22116404 21921934 21725602 21528070 21330594 21134980 20942620 
3394.884 20754028 20568820 20386050 20204504 20023726 19844136 19667114 
3398.259 19494046 19326140 19163422 19004780 18848102 18690996 18531696 
3401.634 18369104 18203326 18035124 17865190 17694046 17521590 17347720 
3405.010 17172678 16997018 16822188 16650077 16482232 16319683 16162490 
3408.385 16010340 15862195 15717432 15575225 15435640 15298261 15163225 
3411.760 15029877 14897428 14765465 14633267 14501316 14369884 14239587 
3415.135 14111348 13985475 13862100 13740643 13620859 13502340 13384605 
3418.510 13267550 13150766 13034252 12918351 12803675 12691314 12582461 
3421.886 12478547 12380213 12287322 12199325 12114649 12031659 11948583 
3425.261 11864024 11777167 11687605 11595270 11500709 11404230 11307024 
3428.636 11210248 11114853 11022096 10932486 10846426 10763678 10683697 
3432.011 10605937 10529753 10454939 10381022 10307760 10234647 10161072 
3435.387 10086696 10011484 9935913 9860829 9787283 9715816 9646733 9579219 
3439.244 9512257 9444594 9375588 9304731 9232566 9159634 9086545 9013705 
3443.102 8940979 8867690 8793230 8717093 8639550 8561547 8484571 8410785 
3446.959 8341740 8278548 8221478 8169750 8121539 8074818 8027428 7978118 
3450.816 7926081 7871352 7814942 7757730 7700964 7644677 7589208 7534385 
3454.674 7480109 7426750 7374644 7324735 7277494 7232751 7189764 7146916 
3458.531 7102658 7055306 7004255 6949607 6892072 6833702 6775778 6720015 
3462.389 6667019 6617056 6569858 6524414 6479748 6434919 6389355 6343223 
3466.246 6296929 6251043 6206271 6162982 6120638 6078501 6035527 5990844 
3470.104 5944117 5896085 5847757 5801145 5757192 5716567 5678966 5643619 
3473.961 5609549 5575817 5542223 5509034 5476585 5445146 5414950 5385863 
3477.818 5357752 5330547 5304284 5279430 5255920 5233585 5211955 5190259 
3481.676 5167759 5144255 5120215 5096713 5074688 5054977 5037512 5021623 
3485.533 5006138 4990083 4972621 4954053 4934917 4916486 4899965 4886628 
3489.391 4876844 4870913 4868534 4869304 4872320 4876743 4881937 4887097 
3493.248 4891990 4896614 4901640 4907505 4915011 4924260 4935219 4947418 
3497.105 4960421 4974162 4988742 5004462 5022059 5041903 5064463 5089438 
3500.963 5117064 5147171 5180232 5216717 5257228 5302607 5352988 5408408 
3504.820 5468297 5532189 5599144 5667754 5737080 5805880 5873381 5939414 
3508.678 6004820 6070941 6139961 6213430 6292256 6376107 6463975 6553880 
3512.535 6643938 6732971 6820508 6906446 6990853 7073054 7152137 7226889 
3516.393 7296767 7361602 7422908 7482503 7542072 7602189 7661741 7717862 
3520.250 7766129 7802898 7824962 7831169 7822296 7800807 7770076 7733241 
3524.107 7692633 7649298 7602864 7551377 7492582 7424054 7343943 7251652 
3527.965 7147691 7034056 6913718 6789240 6663216 6537128 6411749 6287348 
3531.822 6163453 6039760 5915197 5788587 5658187 5522390 5380731 5233518 
3535.680 5083102 4932974 4787252 4649349 4520597 4400484 4286729 4176517 
3539.537 4067437 3958384 3850160 3744169 3642014 3544325 3450666 3359331 
3543.395 3268282 3175551 3080503 2983107 2884332 2785513 2688083 2593775 
3547.252 2503753 2419581 2342488 2272835 2209821 2152044 2096505 2040408 
3551.109 1981023 1917585 1850596 1782320 1715485 1652685 1595381 1544203 
3554.967 1498285 1456626 1417964 1381000 1344970 1308942 1272054 1233341 
3558.824 1192373 1149481 1105199 1061187 1019138 980581 946543 917422 892287 
3563.164 869810 847666 823033 793024 754653 706063 647490 581228 512056 
3567.503 446379 389798 345692 315418 296584 285444 277586 269463 258290 
3571.843 243073 223513 200208 173922 145681 116216 86355 56894 28529 1789 
3576.665 -23392 -47213 -70139 -93295 -116616 -140498 -164446 -187696 -209257 
3581.004 -228299 -243665 -254494 -260322 -260918 -257441 -252374 -249692 
3584.862 -254163 -271084 -304163 -354091 -418215 -489445 -558413 -615459 
3588.719 -653507 -670049 -666575 -648280 -621911 -594547 -571914 -558678 
3592.577 -557122 -567778 -589286 -618536 -652250 -686623 -718314 -744777 
3596.434 -764788 -778051 -785229 -788404 -789363 -791083 -795515 -804246 
3600.292 -816879 -831894 -846676 -858449 -864864 -864963 -859176 -849256 
3604.149 -837582 -827099 -820385 -819955 -828025 -846015 -874057 -910892 
3608.006 -952849 -994802 -1031066 -1057146 -1071689 -1076911 -1077341 
3611.382 -1078927 -1086463 -1101600 -1122421 -1144002 -1159798 -1165052 
3614.757 -1157584 -1139573 -1116539 -1095288 -1082398 -1082861 -1099188 
3618.132 -1130353 -1173016 -1221291 -1268636 -1309006 -1337679 -1352907 
3621.507 -1354657 -1344913 -1326580 -1302531 -1274682 -1243759 -1209429 
3624.883 -1171892 -1132898 -1097006 -1071656 -1067425 -1094461 -1157947 
3628.258 -1253307 -1364566 -1467773 -1539822 -1568810 -1556726 -1515521 
3631.633 -1460871 -1407503 -1365359 -1338472 -1325523 -1321427 -1319974 
3635.008 -1316901 -1310195 -1300946 -1291663 -1284065 -1278944 -1274980 
3638.384 -1270586 -1264606 -1257073 -1249573 -1244056 -1242470 -1245146 
3641.759 -1250928 -1256644 -1259287 -1256445 -1247360 -1233219 -1217095 
3645.134 -1202557 -1193404 -1192379 -1201400 -1220763 -1250565 -1289582 
3648.509 -1336655 -1389239 -1443138 -1492176 -1528629 -1545137 -1537544 
3651.885 -1505648 -1454828 -1393434 -1332856 -1283999 -1256247 -1254860 
3655.260 -1279142 -1321889 -1370148 -1410311 -1432438 -1432537 -1413646 
3658.635 -1382865 -1348745 -1318024 -1295660 -1283073 -1279208 -1281323 
3662.010 -1285915 -1289317 -1288657 -1282347 -1269561 -1250862 -1227932 
3665.385 -1202689 -1177972 -1156328 -1140994 -1134914 -1141622 -1163301 
3668.761 -1200111 -1248351 -1298501 -1336622 -1349306 -1327571 -1271015 
3672.136 -1187786 -1093305 -1006174 -944749 -924184 -951461 -1020984 
3675.511 -1113168 -1202755 -1270288 -1308279 -1322781 -1325919 -1329950 
3678.886 -1341709 -1361990 -1386002 -1407173 -1419294 -1420417 -1411896 
3682.262 -1398025 -1382435 -1366845 -1350859 -1332526 -1311054 -1287831 
3685.637 -1266985 -1254595 -1257172 -1278481 -1318289 -1371073 -1428013 
3689.012 -1480024 -1521332 -1550024 -1568017 -1577789 -1581091 -1577789 
3692.387 -1566994 -1548802 -1524337 -1496931 -1470316 -1447761 -1430985 
3695.763 -1419228 -1409683 -1398586 -1383360 -1363245 -1340685 -1319742 
3699.138 -1306198 -1304646 -1317628 -1343988 -1379793 -1418303 -1452153 
3702.513 -1475434 -1485242 -1481345 -1466188 -1442709 -1414571 -1383690 
3705.888 -1351684 -1319280 -1287071 -1256247 -1228825 -1207348 -1195155 
3709.264 -1195155 -1208967 -1236919 -1276929 -1324334 -1372626 -1414340 
3712.639 -1443138 -1454630 -1447596 -1424149 -1388513 -1346399 -1303886 
3716.014 -1266159 -1236886 -1217624 -1208174 -1206158 -1209363 -1215410 
3719.389 -1223703 -1234342 -1248285 -1265894 -1286377 -1307850 -1327406 
3722.765 -1342997 -1352874 -1357960 -1360405 -1362717 -1366845 -1372692 
3726.140 -1377646 -1377547 -1367836 -1345541 -1311021 -1267744 -1221820 
3729.515 -1180913 -1152197 -1140895 -1147769 -1169513 -1199384 -1229188 
3732.890 -1253076 -1269958 -1284065 -1302069 -1329586 -1368200 -1413250 
3736.266 -1455720 -1485176 -1495181 -1483888 -1455059 -1412920 -1362254 
3739.641 -1305273 -1242966 -1176849 -1111581 -1055890 -1024025 -1032256 
3743.016 -1093172 -1208174 -1358654 -1508290 -1613872 -1647773 -1609052 
3746.391 -1517799 -1403441 -1293909 -1212139 -1170703 -1172751 -1211015 
3749.767 -1272502 -1341874 -1407008 -1460971 -1500497 -1522620 -1524700 
3753.142 -1504525 -1462424 -1402913 -1334145 -1266093 -1207711 -1165514 
3756.517 -1142382 -1136731 -1144530 -1160987 -1182268 -1205795 -1229849 
3759.892 -1251688 -1267447 -1273063 -1266093 -1247096 -1221093 -1195122 
3763.268 -1176981 -1171562 -1179691 -1196543 -1214485 -1224860 -1222943 
3766.643 -1209429 -1190265 -1174007 -1168059 -1176386 -1197699 -1226148 
3770.018 -1252844 -1269495 -1271610 -1258824 -1234706 -1204870 -1175031 
3773.393 -1149586 -1131146 -1119777 -1114192 -1111813 -1110292 -1108574 
3776.769 -1106987 -1107648 -1113234 -1125561 -1144398 -1166506 -1186167 
3780.144 -1196807 -1194560 -1178732 -1152891 -1122884 -1095519 -1076052 
3783.519 -1066500 -1066004 -1071590 -1079390 -1086628 -1092809 -1099022 
3786.894 -1106921 -1117662 -1130882 -1144729 -1157022 -1165415 -1168984 
3790.270 -1167431 -1161285 -1150644 -1136136 -1118092 -1097766 -1078200 
3793.645 -1063492 -1057741 -1064318 -1082761 -1108970 -1134748 -1150347 
3797.020 -1148066 -1126090 -1088645 -1046040 -1012257 -1001711 -1024653 
3800.395 -1083720 -1170174 -1265168 -1342898 -1382237 -1373914 -1323277 
3803.771 -1245411 -1160194 -1088380 -1046040 -1041842 -1074333 -1132005 
3807.146 -1195750 -1245146 -1268009 -1262029 -1233516 -1191950 -1146744 
3810.521 -1103550 -1063128 -1023893 -983232 -941013 -901403 -872205 -862648 
3814.378 -880736 -928152 -998009 -1073209 -1133459 -1162706 -1155105 
3817.754 -1117200 -1064054 -1015397 -988852 -997579 -1045378 -1124008 
3821.129 -1213923 -1289681 -1332328 -1333616 -1299096 -1242305 -1179922 
3824.504 -1126751 -1091388 -1076779 -1078266 -1087554 -1094263 -1090925 
3827.879 -1074961 -1049246 -1020157 -994901 -979364 -976256 -984620 -1000323 
3831.737 -1017678 -1030801 -1035561 -1030140 -1015562 -995001 -973611 
3835.112 -957709 -954139 -968289 -1003001 -1056418 -1122256 -1189604 
3838.487 -1247162 -1286344 -1302994 -1298765 -1279208 -1251291 -1221853 
3841.863 -1195585 -1175329 -1161384 -1152891 -1146976 -1141523 -1134087 
3845.238 -1122521 -1105996 -1083951 -1056782 -1024752 -988323 -947526 
3848.613 -902163 -852562 -800839 -751756 -713816 -699194 -721325 -791910 
3852.470 -913835 -1075787 -1248384 -1396571 -1491681 -1523412 -1499209 
3855.846 -1436929 -1356078 -1271048 -1192214 -1124636 -1069474 -1026140 
3859.221 -992720 -967694 -949345 -936417 -928582 -925771 -928879 -940253 
3863.078 -961280 -992323 -1030272 -1067161 -1093503 -1100576 -1083588 
3866.454 -1045940 -997579 -953874 -930334 -938699 -982141 -1052915 -1132104 
3870.311 -1197732 -1234045 -1236820 -1213956 -1179525 -1148760 -1131444 
3873.686 -1130353 -1139904 -1150082 -1150247 -1133426 -1099022 -1052221 
3877.062 -1002240 -958437 -929507 -920779 -933905 -965875 -1008753 -1052221 
3880.919 -1085174 -1099188 -1091586 -1065872 -1030801 -998108 -980587 
3884.294 -987728 -1022008 -1076647 -1136269 -1182169 -1198625 -1179360 
3887.669 -1128800 -1059757 -987860 -928681 -893698 -888441 -910132 -949345 
3891.527 -993182 -1028950 -1048452 -1049081 -1033115 -1005447 -970669 
3894.902 -933442 -897104 -864103 -836921 -817806 -808016 -808711 -818632 
3898.760 -835366 -854547 -872304 -885432 -893599 -898493 -904081 -914463 
3902.617 -932384 -957974 -988025 -1017381 -1040057 -1050898 -1047791 
3905.992 -1031363 -1004720 -972157 -937938 -905437 -877264 -854381 -837284 
3909.850 -825280 -817541 -812382 -808380 -803386 -796044 -785493 -771866 
3913.707 -757479 -745042 -737864 -738889 -749474 -768592 -793464 -820385 
3917.564 -845122 -865029 -878752 -886358 -888209 -885068 -877066 -864666 
3921.422 -848693 -830968 -814399 -802096 -796441 -798260 -805866 -815689 
3925.279 -823725 -825974 -820881 -809471 -794688 -779804 -768195 -761679 
3929.137 -760687 -764160 -771073 -780268 -791380 -804345 -818533 -832621 
3932.994 -844857 -852926 -855109 -850876 -841517 -829149 -816648 -806363 
3936.852 -799550 -795945 -794390 -793464 -792108 -790057 -788503 -788635 
3940.709 -792571 -800839 -813308 -828025 -842278 -852893 -857258 -854381 
3944.566 -844626 -829877 -813341 -798094 -786882 -780863 -780069 -782748 
3948.424 -786419 -788801 -787974 -783443 -776034 -767269 -758735 -751392 
3952.281 -745902 -741403 -737368 -732737 -727147 -720961 -714576 -709052 
3956.139 -705116 -702899 -702635 -703627 -705248 -706538 -707100 -706439 
3959.996 -704652 -701874 -698764 -695621 -692843 -690461 -688476 -686689 
3963.854 -685135 -683944 -683613 -684572 -687153 -691056 -695721 -700021 
3967.711 -702502 -702436 -699558 -694133 -687053 -679445 -672199 -665881 
3971.568 -660521 -656319 -653342 -651721 -651886 -653441 -655558 -657147 
3975.426 -656386 -651853 -643218 -631009 -617146 -603547 -592297 -584422 
3979.283 -580385 -579624 -580815 -583131 -585679 -588194 -590213 -591205 
3983.141 -590676 -587731 -582304 -574594 -565759 -557188 -550438 -546930 
3986.998 -546566 -549147 -553615 -558942 -564303 -569432 -573866 -577804 
3990.855 -580815 -582933 -583694 -583529 -582933 -582602 -583959 -587334 
3994.713 -592860 -599709 -606757 -612746 -616848 -618867 -619164 -618767 
3998.570 -618271 -618437 -619462 -621216 -623598 
##END=
