
##TITLE=mdmaHCL00386_7
##JCAMP-DX=5.01  $$ Nicolet v. 1
##DATATYPE=INFRARED SPECTRUM
##ORIGIN=UniL
##OWNER=Nicolet
##LONGDATE=2011/08/24
##TIME=08:13:33
##SPECTROMETER/DATA SYSTEM=Nicolet iS5
##DATA PROCESSING=
Ratio against background
%Transmittance->Absorbance
Truncated
ElementMultiply or ElementDivide
##COMMENTS=
Number of sample scans: 32
Collection length: 51.17 sec
Sample gain: 2.0
Background collected on: Mer Aout 24 08:12:14 2011 (GMT+02:00);
Number of background scans: 32
Background gain: 2.0
Sample spacing:  1.000
Number of scan points: 12415
Resolution points: 8192
Number of FFT points: 65536
Apodization: N-B fort;
Phase correction: Mertz;
Laser frequency: 15798.0 cm-1
Number of rejected sample scans: 0
Number of rejected background scans: 0
Bench serial number: ASB1000141;
##RESOLUTION=4.000
##XUNITS=1/CM
##YUNITS=ABSORBANCE
##FIRSTX=649.893372
##LASTX=4000.122314
##FIRSTY=0.081267
##MAXX=4000.122314
##MINX=649.893372
##MAXY=0.213412
##MINY=0.001530
##XFACTOR=1.000000
##YFACTOR=1.000000E-009
##NPOINTS=6950
##DELTAX=0.482117
##ZPD=6100
##XYDATA=(X++(Y..Y))
649.893 81267000 81300280 81415168 81609760 81858616 82128424 82389872 
653.268 82634720 82876984 83143008 83454248 83816832 84216472 84629616 
656.643 85034736 85426024 85813592 86216776 86649744 87110640 87580824 
660.018 88032440 88443424 88806896 89134272 89445968 89762208 90089776 
663.393 90419544 90729888 90994640 91190096 91295248 91291688 91162224 
666.767 90896840 90504176 90020472 89506312 89019928 88591416 88209200 
670.142 87832224 87404280 86875360 86220296 85444096 84582312 83684760 
673.517 82800312 81958208 81161736 80396832 79644968 78897240 78157248 
676.892 77439272 76756280 76114472 75507248 74922408 74348568 73784056 
680.267 73237136 72723928 72256952 71841176 71470712 71133440 70818032 
683.642 70520384 70245968 70005240 69807320 69653416 69534216 69434864 
687.016 69340632 69242928 69142592 69047072 68964688 68899136 68846640 
690.391 68797920 68744384 68681584 68612312 68544256 68484704 68436056 
693.766 68395136 68353912 68305864 68249792 68192144 68142952 68110856 
697.141 68098688 68100464 68105272 68100784 68079960 68044000 68000248 
700.516 67957664 67923064 67896992 67875840 67854264 67828896 67800384 
703.890 67772496 67748368 67727768 67705616 67673672 67624728 67555856 
707.265 67469728 67372632 67271192 67168848 67064008 66952968 66832916 
710.640 66706328 66582828 66477708 66405780 66378676 66397324 66450796 
714.015 66514516 66556068 66537140 66418788 66171684 65778112 65239408 
717.390 64578168 63838592 63081696 62371056 61769096 61322480 61055220 
720.765 60968432 61038520 61222056 61453656 61657724 61755688 61671852 
724.139 61353852 60782484 59980444 59007904 57953476 56915348 55970900 
727.514 55169332 54522376 54011888 53602304 53256100 52947008 52660612 
730.889 52392648 52142668 51908144 51683484 51462412 51242720 51028164 
734.264 50827728 50651580 50504944 50385264 50282316 50184036 50080208 
737.639 49967668 49850064 49735020 49629476 49535696 49451144 49370800 
741.013 49291068 49211720 49136168 49068464 49010412 48959520 48911048 
744.388 48859912 48805040 48750284 48703244 48670588 48654100 48648504 
747.763 48644204 48630672 48601808 48558152 48506692 48456272 48412484 
751.138 48375928 48342256 48305892 48264156 48220136 48180448 48152976 
754.513 48141128 48142092 48147868 48149608 48141240 48123324 48101596 
757.888 48084012 48077240 48083756 48102556 48132244 48173780 48231352 
761.262 48310892 48416448 48547184 48696832 48857468 49023576 49196616 
764.637 49385908 49606004 49871472 50191364 50568856 51001300 51484792 
768.012 52014580 52586704 53195764 53835724 54505172 55218096 56018656 
771.387 56981720 58206976 59792564 61784644 64136804 66670136 69098888 
774.762 71047184 72136824 72108312 70870136 68548752 65434672 61934064 
778.136 58452700 55299940 52677520 50647224 49165560 48124844 47402836 
781.511 46895920 46526660 46251836 46048540 45904596 45814008 45774720 
784.886 45789116 45864232 46009456 46233188 46539348 46928736 47401800 
788.261 47962516 48622336 49399756 50316240 51394004 52651560 54103040 
791.636 55762476 57645712 59771232 62157704 64815024 67733960 70873888 
795.010 74160072 77479312 80676904 83580632 85999224 87739560 88645752 
798.385 88607952 87593144 85653624 82927752 79619064 75952120 72166368 
801.760 68472520 65027528 61943584 59272996 57018520 55148268 53610252 
805.135 52349208 51316024 50478892 49823196 49346784 49051472 48932300 
808.510 48967720 49117804 49322952 49511300 49616588 49582044 49372508 
811.885 48977472 48406816 47685528 46845428 45923412 44955504 43975044 
815.259 43014060 42099516 41251924 40486104 39808996 39221892 38722076 
818.634 38305372 37968148 37707144 37520124 37404508 37357420 37376628 
822.009 37461972 37617272 37849988 38171744 38595344 39130620 39782052 
825.384 40545612 41407096 42338736 43300276 44239404 45088992 45777632 
828.759 46238272 46414964 46281692 45845860 45152076 44270408 43288452 
832.133 42297500 41372508 40571076 39926200 39445128 39114416 38902872 
835.508 38770764 38670456 38556164 38392200 38154960 37839216 37456624 
838.883 37032580 36597744 36180336 35802512 35475528 35202220 34979644 
842.258 34803204 34668820 34573800 34515248 34489708 34491464 34514316 
845.633 34552992 34604440 34668352 34747204 34843448 34958600 35092284 
849.008 35243184 35409668 35591388 35788804 36002868 36233568 36479416 
852.382 36738028 37007684 37289208 37586996 37908848 38263540 38658508 
855.757 39098752 39586152 40120944 40704312 41339996 42035052 42799292 
859.132 43642840 44575812 45607160 46744608 47995596 49364600 50850264 
862.507 52438032 54095724 55770428 57384220 58846812 60062888 60940680 
865.882 61412280 61437812 61013924 60174156 58987448 57551620 55971880 
869.256 54358732 52810708 51400420 50179724 49175800 48394112 47826552 
872.631 47454576 47254672 47197780 47252196 47384320 47558152 47741924 
876.006 47910236 48047444 48149420 48222468 48280120 48338224 48413000 
879.381 48518544 48665772 48864328 49122552 49447316 49843448 50311964 
882.756 50849928 51448684 52095448 52774904 53468464 54157800 54826580 
886.131 55461152 56055108 56610696 57141180 57667924 58216976 58814260 
889.505 59476504 60209360 61004160 61842520 62698692 63545464 64359620 
892.880 65120980 65812848 66421448 66932788 67333480 67611832 67757200 
896.255 67761112 67617104 67320176 66868432 66264956 65521084 64657532 
899.630 63704088 62698692 61679568 60682340 59736932 58863432 58074428 
903.005 57376964 56774136 56267256 55856252 55539508 55312548 55168580 
906.379 55100192 55100156 55164180 55291020 55482352 55740588 56067324 
909.754 56462260 56923280 57447864 58033568 58679028 59382696 60141732 
913.129 60950628 61801528 62685556 63596712 64533956 65503896 66519148 
916.504 67598512 68763296 70033424 71428176 72961704 74640864 76460752 
919.879 78399408 80414696 82438696 84387552 86172408 87709872 88947296 
923.254 89873536 90528304 90995864 91399928 91890536 92610560 93691272 
926.628 95229232 97268344 99792944 102714448 105880792 109058544 111955744 
930.003 114264264 115659608 115870696 114726096 112172928 108307608 
932.896 103358360 97672064 91635632 85627992 79990600 74961976 70690392 
936.271 67240320 64606696 62744664 61590096 61078980 61147252 61726392 
939.646 62739416 64079536 65608168 67168688 68581776 69679944 70337160 
943.020 70476192 70090768 69239696 68039736 66634864 65171108 63781568 
946.395 62558532 61554092 60783972 60236500 59884972 59697396 59646572 
949.770 59708880 59865612 60101092 60400432 60749560 61137600 61556460 
953.145 62002168 62473968 62972052 63495264 64040988 64604616 65181964 
956.520 65770752 66371492 66986448 67618376 68268016 68933544 69610792 
959.894 70295008 70983312 71675136 72372480 73077184 73789944 74508600 
963.269 75229032 75946600 76659104 77367440 78075696 78788856 79510136 
966.644 80240680 80978680 81721928 82469912 83225032 83992240 84777976 
970.019 85586840 86421224 87281400 88167104 89080168 90025568 91010536 
973.394 92042744 93127880 94267720 95460784 96704296 97996640 99338600 
976.768 100732688 102180984 103681824 105228192 106808984 108409368 
979.661 110014912 111613416 113193024 114741800 116245368 117685240 
982.554 119042992 120303200 121457872 122508032 123462632 124333600 
985.447 125130248 125856816 126511824 127091360 127593352 128020376 
988.339 128380208 128684552 128945840 129175352 129385400 129589272 
991.232 129803536 130048440 130343792 130705016 131139992 131647168 
994.125 132217856 132839840 133502960 134200480 134928736 135684720 
997.017 136461952 137249600 138035440 138808064 139560960 140294928 
999.910 141015600 141729392 142438848 143141584 143830592 144499584 
1002.803 145145712 145772432 146388048 147002384 147622800 148252896 
1005.695 148895024 149553072 150236736 150962768 151750528 152618080 
1008.588 153576352 154626240 155760176 156966096 158233312 159553808 
1011.481 160922976 162335888 163784384 165255968 166737408 168218352 
1014.374 169696816 171179136 172677248 174200736 175750704 177314512 
1017.266 178869744 180388144 181842080 183212560 184488720 185667472 
1020.159 186751664 187749680 188678416 189564384 190447120 191375360 
1023.052 192395056 193545152 194845392 196294464 197872080 199547616 
1025.945 201287888 203058208 204825152 206551664 208189824 209686480 
1028.838 210985424 212034496 212798384 213258480 213412048 213265840 
1031.731 212830944 212120672 211151616 209949520 208550528 206994400 
1034.624 205319968 203552064 201694112 199727904 197620096 195335104 
1037.517 192841504 190123600 187180336 184024912 180681632 177185680 
1040.410 173586720 169944704 166331776 162826064 159495056 156392656 
1043.303 153550768 150977504 148664240 146593344 144746992 143110160 
1046.196 141672592 140425936 139360464 138463776 137722480 137122672 
1049.089 136653312 136305744 136070304 135933808 135877168 135874224 
1051.982 135897744 135922752 135930848 135912640 135864352 135783120 
1054.875 135663696 135494544 135259264 134941072 134523104 133991344 
1057.768 133334648 132541168 131599936 130502208 129245352 127837760 
1060.661 126300376 124667080 122977840 121272352 119587520 117951136 
1063.554 116384304 114903528 113520856 112245272 111080512 110023656 
1066.448 109063744 108182664 107361152 106579984 105824936 105088688 
1069.341 104367208 103658400 102959440 102265472 101571216 100873440 
1072.234 100172232 99470688 98774112 98086952 97411416 96747688 96095640 
1075.609 95456824 94835728 94238568 93670600 93133136 92621792 92127776 
1078.984 91641192 91154784 90668480 90188824 89727704 89296952 88906304 
1082.359 88560944 88262952 88014792 87822816 87698968 87662112 87734976 
1085.735 87941432 88306280 88849792 89588648 90532296 91679456 93012600 
1089.110 94491800 96057688 97626880 99101384 100388192 101403248 102089096 
1092.485 102423704 102419976 102123680 101602784 100945872 100245640 
1095.378 99587192 99046984 98677408 98504608 98528848 98725616 99051264 
1098.753 99446944 99850904 100199600 100431616 100496960 100355464 99983440 
1102.129 99377336 98555544 97556736 96430864 95236416 94029096 92853368 
1105.504 91745264 90728736 89818072 89021800 88342496 87777312 87317088 
1108.879 86946640 86645616 86389360 86153176 85913160 85645672 85330232 
1112.254 84945920 84472584 83894360 83199864 82386144 81459288 80433552 
1115.630 79328768 78166136 76967280 75752272 74538960 73344808 72185696 
1119.005 71074824 70022208 69032968 68107096 67240592 66426276 65656072 
1122.380 64919664 64205288 63498104 62778892 62027508 61224116 60354056 
1125.755 59412480 58406452 57354536 56282384 55220576 54198564 53239700 
1129.131 52361284 51572468 50874624 50262412 49725324 49248716 48814232 
1132.506 48403668 48000520 47592016 47172336 46742172 46309376 45886068 
1135.881 45487236 45129428 44826980 44592772 44436532 44363720 44375280 
1139.256 44467000 44629856 44850640 45113624 45403948 45707648 46014096 
1142.632 46316232 46608952 46889132 47154568 47404240 47638492 47859288 
1146.007 48069912 48274120 48474792 48673592 48870892 49066420 49260892 
1149.382 49456304 49657004 49868200 50094972 50341172 50608764 50898316 
1152.757 51209912 51543964 51901088 52281936 52685936 53110720 53551664 
1156.133 54002884 54457808 54909368 55351012 55775020 56171880 56530904 
1159.508 56839540 57084948 57256652 57346332 57347656 57256500 57068432 
1162.883 56778968 56384156 55881164 55270324 54555660 53744780 52846932 
1166.258 51871964 50829888 49729964 48581944 47397700 46189812 44972664 
1169.634 43761124 42567640 41403084 40276004 39191720 38154928 37169976 
1173.009 36240304 35369912 34562284 33819832 33144020 32535530 31994336 
1176.384 31520258 31113324 30773206 30499710 30292320 30150128 30072994 
1179.759 30061844 30119408 30249726 30457700 30747456 31121654 31580866 
1183.135 32124612 32752498 33465244 34265736 35158204 36146520 37232528 
1186.510 38413520 39681296 41020292 42407668 43814152 45201124 46523784 
1189.885 47735008 48785168 49632748 50249280 50622872 50760352 50686168 
1193.260 50437952 50057528 49587840 49066792 48520732 47965960 47407420 
1196.635 46841588 46259652 45651880 45012028 44338988 43638372 42920744 
1200.011 42199920 41489480 40799884 40138752 39509936 38914652 38353112 
1203.386 37825228 37330264 36866664 36430732 36015968 35613112 35212388 
1206.761 34803848 34379916 33936432 33472904 32992274 32499678 32002718 
1210.136 31510212 31031606 30577916 30160036 29788264 29472018 29218264 
1213.512 29031784 28915394 28870418 28898004 28999548 29176412 29429892 
1216.887 29760160 30166074 30645468 31195414 31813864 32499250 33250924 
1220.262 34068656 34951704 35898988 36909340 37982436 39119744 40324388 
1223.637 41600864 42953516 44384784 45894688 47480044 49133872 50844380 
1227.013 52594596 54360308 56107212 57794856 59374948 60794988 62007328 
1230.388 62968380 63644508 64016336 64079388 63848384 63356148 62658340 
1233.763 61827808 60945712 60102728 59385092 58867036 58615236 58680128 
1237.138 59099508 59901480 61102588 62708908 64712672 67091308 69802576 
1240.514 72781440 75948288 79202904 82428928 85508880 88315696 90725920 
1243.889 92637016 93965456 94664488 94727208 94185808 93105864 91573768 
1247.264 89698088 87593432 85373352 83150792 81017048 79034176 77227608 
1250.639 75579088 74030032 72489888 70862616 69059152 67018496 64722940 
1254.015 62197664 59507164 56735504 53980748 51334148 48864140 46618024 
1257.390 44614548 42848660 41297072 39926272 38700236 37582516 36543604 
1260.765 35561756 34621736 33715688 32840650 31996798 31185518 30409152 
1264.140 29670040 28970610 28313646 27702066 27138568 26624804 26161404 
1267.516 25747118 25379910 25057272 24777284 24538984 24342026 24185722 
1270.891 24068874 23988506 23940782 23921104 23925796 23951496 23996278 
1274.266 24058332 24136016 24226852 24328782 24439566 24557990 24683142 
1277.641 24813768 24947066 25078334 25200476 25305936 25388270 25443322 
1281.017 25469848 25468932 25442126 25390132 25312012 25205816 25069594 
1284.392 24903624 24711830 24501052 24281054 24063304 23858162 23675124 
1287.767 23522206 23404974 23327840 23293124 23300746 23348364 23430922 
1291.142 23542424 23676346 23827322 23991866 24167472 24352576 24545298 
1294.518 24743224 24944012 25146232 25350684 25560364 25779956 26015348 
1297.893 26271144 26551324 26858294 27193914 27559904 27957444 28386968 
1301.268 28846518 29330374 29830778 30336770 30837338 31323422 31787694 
1304.643 32225486 32634250 33012722 33360862 33680524 33976024 34253728 
1308.019 34521992 34789200 35061892 35343848 35635016 35932964 36233604 
1311.394 36532216 36824720 37106776 37373232 37618828 37837408 38023264 
1314.769 38172112 38281200 38349200 38375624 38359988 38302192 38203004 
1318.144 38065720 37896376 37704396 37501668 37299176 37106088 36928100 
1321.520 36766872 36621824 36491488 36375676 36275780 36195604 36140688 
1324.895 36118076 36137088 36207812 36342532 36553228 36847984 37228380 
1328.270 37685460 38199856 38740876 39273468 39764656 40186216 40521860 
1331.645 40767128 40928824 41020656 41061228 41071568 41070004 41073572 
1335.021 41096080 41146892 41231484 41351624 41506428 41693420 41911072 
1338.396 42158772 42437956 42750480 43097296 43476948 43884972 44313740 
1341.771 44751604 45183952 45592624 45953948 46242808 46433104 46500956 
1345.146 46431152 46217228 45862944 45379560 44784368 44097080 43337548 
1348.521 42526340 41684704 40833228 39994752 39192376 38447188 37778704 
1351.897 37201088 36722376 36344584 36064428 35875344 35768224 35733328 
1355.272 35760308 35837308 35952904 36095424 36254384 36421004 36588588 
1358.647 36750864 36902376 37036948 37149184 37236140 37300112 37350412 
1362.022 37403388 37482124 37610952 37810080 38093972 38468508 38932732 
1365.398 39480944 40103572 40787220 41510768 42246408 42957104 43597196 
1368.773 44121544 44485792 44652884 44598760 44311904 43796524 43070804 
1372.148 42169832 41143652 40050084 38956908 37928084 37012736 36241884 
1375.523 35623180 35146492 34792544 34542588 34385616 34321564 34361048 
1378.899 34523824 34836624 35326056 36016076 36919912 38030424 39309336 
1382.274 40677388 42024392 43207412 44075628 44500584 44379756 43662368 
1385.649 42358644 40553324 38400672 36095716 33851140 31834186 30141144 
1389.024 28798150 27775212 27014822 26450842 26027522 25700044 25434678 
1392.400 25209046 25007816 24822538 24652244 24501544 24378264 24289744 
1395.775 24238730 24222122 24232598 24260066 24294964 24330742 24364070 
1399.150 24395542 24428210 24465786 24510168 24561214 24615634 24669708 
1402.525 24719476 24763392 24803384 24845098 24897482 24969036 25066190 
1405.901 25191102 25341622 25512890 25699692 25898358 26107424 26327434 
1409.276 26559320 26803734 27060312 27327944 27606332 27896138 28199110 
1412.651 28518004 28854696 29209582 29581640 29969140 30370100 30782630 
1416.026 31205596 31636388 32071528 32507784 32943800 33384118 33838316 
1419.402 34320704 34842552 35404416 35997248 36603872 37206320 37790088 
1422.777 38351120 38897400 39448612 40029304 40661412 41358840 42123756 
1426.152 42950740 43830976 44756820 45719756 46707196 47700800 48671184 
1429.527 49582268 50399848 51097784 51666652 52115544 52469960 52764200 
1432.903 53031684 53302292 53598592 53939292 54347276 54854704 55504300 
1436.278 56344812 57410008 58706260 60209440 61871328 63630812 65415600 
1439.653 67150048 68742136 70089680 71100576 71693576 71817056 71453688 
1443.028 70614320 69332432 67653416 65635688 63340888 60829328 58166476 
1446.404 55420196 52668280 50008932 47546988 45378236 43568512 42136024 
1449.779 41056164 40278876 39753400 39441064 39321560 39388676 39637296 
1453.154 40054480 40619172 41301408 42071260 42907980 43797000 44731840 
1456.529 45705696 46707304 47714888 48700168 49637536 50507104 51295776 
1459.905 51996836 52609668 53137608 53583336 53946984 54220600 54387948 
1463.280 54430612 54335524 54108704 53778264 53391568 52997916 52630164 
1466.655 52300472 52001432 51716700 51426564 51112732 50755696 50328296 
1470.030 49792316 49100924 48208360 47094036 45784516 44363792 42946312 
1473.406 41638496 40501964 39544524 38740768 38058704 37481800 37016200 
1476.781 36686464 36518988 36533004 36731788 37106164 37642964 38334040 
1480.156 39180988 40194032 41386360 42766020 44332196 46074664 47979612 
1483.531 50034624 52235820 54585156 57083472 59722412 62467960 65247720 
1486.906 67955224 70441736 72531160 74049360 74834496 74776592 73849016 
1490.282 72125016 69769936 66992984 64007884 60974688 57982520 55068292 
1493.657 52227412 49443420 46716528 44073868 41575484 39304476 37337448 
1497.032 35722104 34464096 33537220 32897976 32502748 32318566 32321136 
1500.407 32492928 32818246 33279184 33854252 34519088 35240740 35977128 
1503.783 36675504 37256788 37619008 37641012 37205204 36252584 34827720 
1507.158 33075720 31171062 29244384 27354478 25506634 23687684 21892036 
1510.533 20128942 18428526 16831796 15373124 14076608 12947537 11975422 
1513.908 11140519 10420049 9792366 9237541 8739642 8289119 7883835 7528856 
1517.766 7232077 6997251 6819262 6681722 6558825 6424898 6262606 6075376 
1521.623 5887386 5732313 5634153 5595150 5598271 5617168 5628950 5619786 
1525.481 5590719 5553701 5524839 5515007 5524772 5546519 5570985 5593102 
1529.338 5614785 5642175 5680913 5730164 5780964 5817868 5824988 5795605 
1533.196 5738389 5676784 5637006 5636737 5676885 5745205 5822939 5892525 
1537.053 5942774 5967464 5965381 5937030 5883389 5805544 5708643 5605454 
1540.910 5514437 5452930 5429846 5440751 5471250 5502658 5520812 5521652 
1544.768 5512960 5509537 5525980 5568770 5633078 5705890 5771764 5820320 
1548.625 5849066 5864783 5878923 5901593 5935652 5975055 6008448 6025044 
1552.483 6019736 5995984 5964305 5938777 5931151 5945595 5978012 6017855 
1556.340 6051587 6063448 6036266 5955908 5817465 5637509 5453534 5310556 
1560.198 5236972 5235127 5289559 5377007 5474740 5562628 5628211 5667351 
1564.055 5685277 5694375 5708711 5738625 5785632 5842920 5898772 5942471 
1567.912 5967127 5972401 5964608 5954295 5952851 5968270 6005122 6064422 
1571.770 6145439 6245328 6358723 6477259 6588663 6679670 6740004 6768441 
1575.627 6776653 6788466 6830774 6920182 7058640 7237198 7444177 7671454 
1579.485 7916970 8184403 8479808 8808480 9172291 9568549 9990904 10431350 
1583.342 10879549 11322464 11744452 12125313 12444176 12683740 12833536 
1586.717 12894184 12878142 12809886 12720689 12645805 12621653 12678759 
1590.093 12842170 13129217 13546401 14086807 14725976 15423040 16118336 
1593.468 16740495 17221180 17498686 17532698 17312064 16856148 16211053 
1596.843 15437081 14603214 13770328 12985021 12281971 11680082 11186754 
1600.218 10800362 10513085 10313970 10192143 10139738 10152695 10230034 
1603.594 10372504 10579284 10847139 11169585 11536571 11934449 12346327 
1606.969 12749214 13115249 13414574 13616038 13695023 13637510 13442631 
1610.344 13124230 12709635 12237391 11747447 11274514 10843810 10464850 
1613.719 10135261 9843170 9573901 9313803 9056704 8807262 8581350 8399806 
1617.577 8278785 8224517 8231237 8285167 8367817 8460482 8546677 8613829 
1621.434 8655672 8673655 8676933 8678759 8691266 8722265 8771794 8834787 
1625.292 8903639 8972267 9036878 9095781 9149279 9198484 9244953 9291462 
1629.149 9341157 9398104 9465421 9544467 9634063 9729913 9823953 9906285 
1633.006 9965780 9991073 9973138 9908691 9805176 9681019 9562452 9475038 
1636.864 9431761 9432100 9464777 9513916 9563536 9601508 9622071 9626305 
1640.721 9621867 9619191 9627864 9652323 9690370 9733402 9768983 9783724 
1644.579 9765730 9707989 9610722 9483708 9344983 9217504 9124408 9080962 
1648.436 9092364 9153915 9253686 9372812 9486078 9563773 9569938 9472397 
1652.293 9260490 8968613 8674838 8457069 8352110 8346232 8402475 8482578 
1656.151 8560668 8623292 8665644 8689914 8700225 8700663 8692686 8675142 
1660.008 8644484 8596693 8528903 8440447 8334545 8218709 8104288 8003632 
1663.866 7927465 7881575 7865716 7873444 7894093 7914473 7920547 7900234 
1667.723 7846115 7757494 7641508 7511427 7384620 7276045 7195626 7146242 
1671.581 7124685 7122428 7127111 7124348 7099290 7040017 6943480 6819363 
1675.438 6689293 6576922 6499423 6459670 6448471 6450254 6450388 6441443 
1679.295 6424259 6406705 6398501 6405495 6423687 6438685 6427218 6365616 
1683.153 6238437 6052864 5841006 5650735 5520108 5458601 5452427 5476418 
1687.010 5508161 5531115 5536719 5522960 5492692 5451722 5407804 5370063 
1690.868 5347487 5346011 5367916 5408777 5457997 5498564 5511920 5482525 
1694.725 5405925 5295060 5179730 5094702 5059737 5072676 5111230 5144791 
1698.583 5140935 5076632 4948892 4782562 4625036 4519190 4484640 4511423 
1702.440 4574437 4645631 4703607 4734826 4734658 4707191 4663583 4618807 
1706.297 4584985 4568577 4569983 4584851 4607287 4632370 4657253 4681535 
1710.155 4706454 4733921 4765309 4800753 4839082 4878619 4917860 4956064 
1714.012 4992764 5027020 5055881 5073850 5073615 5049110 4999166 4931331 
1717.870 4860693 4805678 4779044 4784873 4817739 4867261 4921613 4970945 
1721.727 5010328 5038283 5057189 5070900 5083571 5097417 5113376 5131111 
1725.584 5150256 5170408 5190829 5210211 5226508 5237207 5241432 5241164 
1729.442 5240728 5245724 5259508 5280504 5300460 5304451 5274098 5194718 
1733.299 5063961 4899529 4735797 4611205 4548453 4546344 4587463 4647608 
1737.157 4705349 4743702 4753987 4735563 4696440 4649282 4607186 4579996 
1741.014 4570821 4577584 4595566 4620313 4647976 4676477 4705215 4734122 
1744.872 4763299 4792813 4822061 4850172 4876140 4898892 4917156 4929891 
1748.729 4935487 4932873 4921044 4900468 4873995 4847022 4826819 4819817 
1752.586 4829399 4854829 4890247 4926640 4953450 4961762 4946513 4909381 
1756.444 4858113 4805309 4762897 4736969 4726988 4725681 4723068 4708766 
1760.301 4676176 4623897 4556690 4484204 4417254 4365675 4334852 4325046 
1764.159 4332676 4351886 4375114 4394962 4405840 4405338 4395330 4382176 
1768.016 4374009 4377524 4394024 4417957 4438409 4443062 4422074 4373607 
1771.874 4306640 4239583 4192107 4177019 4196323 4241892 4301520 4363165 
1775.731 4419463 4467667 4508109 4542661 4572026 4594830 4609129 4613348 
1779.588 4608861 4599953 4593021 4593926 4605010 4624399 4646871 4666296 
1783.446 4678118 4681234 4677817 4672759 4671051 4676109 4689372 4710440 
1787.303 4737974 4770334 4805812 4841326 4872086 4891588 4892794 4870343 
1791.161 4823301 4756901 4682540 4613181 4560273 4528766 4516847 4518454 
1795.018 4526087 4533788 4537973 4537137 4531779 4522304 4508811 4490934 
1798.875 4468102 4440719 4409890 4378427 4348807 4323674 4304399 4291448 
1802.733 4284254 4282246 4284722 4290946 4300014 4310957 4322704 4334684 
1806.590 4346331 4357777 4369089 4379866 4388836 4394560 4395966 4393053 
1810.448 4387263 4381741 4380268 4385858 4399982 4421672 4448820 4478279 
1814.305 4507472 4534625 4559670 4582942 4605545 4627648 4649416 4670147 
1818.163 4689975 4709101 4728629 4749933 4774287 4802160 4832984 4864077 
1822.020 4892023 4912531 4921747 4917525 4900501 4875001 4848195 4828226 
1825.877 4820755 4828125 4846821 4870276 4889175 4895642 4885221 4859587 
1829.735 4825914 4794455 4775326 4774321 4791272 4821659 4858984 4897217 
1833.592 4932706 4964343 4992965 5020987 5050048 5081225 5114650 5150424 
1837.450 5188783 5230969 5278793 5334237 5398444 5471687 5552325 5637140 
1841.307 5722140 5801918 5871265 5926919 5968438 6000452 6031126 6071243 
1845.165 6128805 6206808 6302442 6408050 6514020 6610866 6692860 6757403 
1849.022 6806270 6842824 6870729 6891870 6905739 6910318 6903551 6884060 
1852.879 6852821 6811925 6763561 6709214 6649119 6582607 6509278 6430009 
1856.737 6347123 6264287 6184693 6110288 6041339 5977205 5916137 5857395 
1860.594 5801347 5748697 5700150 5655703 5614751 5576455 5540847 5509235 
1864.452 5483833 5466419 5456923 5452393 5447998 5437429 5416124 5383314 
1868.309 5343092 5302472 5270274 5252902 5252197 5266048 5289157 5316225 
1872.167 5342891 5366071 5384656 5398075 5406194 5408878 5406596 5400222 
1876.024 5390628 5379322 5366943 5353257 5337591 5318874 5296267 5270241 
1879.881 5242371 5214436 5188045 5163803 5141170 5118774 5095640 5071503 
1883.739 5047434 5025311 5006842 4992865 4983078 4976174 4970241 4963371 
1887.596 4954288 4942458 4928014 4911794 4895642 4881736 4872923 4871349 
1891.454 4878151 4892291 4910889 4929756 4944603 4953517 4957003 4958846 
1895.311 4963706 4976475 4999434 5031344 5068989 5108112 5145730 5180199 
1899.168 5212491 5243679 5274601 5305022 5333465 5358322 5379355 5397639 
1903.026 5415487 5435181 5457762 5482525 5506718 5527659 5542995 5552325 
1906.883 5556285 5556251 5553298 5547660 5538800 5526417 5511450 5495645 
1910.741 5481652 5471787 5467023 5467694 5472895 5481988 5495444 5513900 
1914.598 5537122 5563332 5588202 5605387 5609515 5597466 5570381 5534874 
1918.456 5499537 5470847 5451353 5438234 5425082 5405254 5375095 5335210 
1922.313 5290901 5249447 5216214 5194014 5181037 5172788 5165144 5156124 
1926.170 5145897 5136811 5130742 5128563 5129200 5131312 5134263 5139527 
1930.028 5148982 5164808 5186905 5212458 5235899 5252432 5258737 5255584 
1933.885 5246463 5236703 5230197 5228822 5230834 5233920 5235831 5236770 
1937.743 5238682 5243813 5252902 5263801 5272454 5273796 5265545 5249213 
1941.600 5229762 5215241 5211653 5222115 5244685 5274601 5305726 5333935 
1945.458 5357718 5377577 5395592 5413038 5430216 5447327 5464137 5480679 
1949.315 5498061 5516215 5533632 5547794 5555244 5553566 5542928 5526517 
1953.172 5509302 5496585 5491383 5493027 5498329 5503329 5504672 5502021 
1957.030 5497960 5495779 5498967 5508967 5524403 5543397 5564071 5584343 
1960.887 5604816 5624620 5642343 5655401 5660604 5656106 5642343 5621733 
1964.745 5598103 5574005 5551217 5528363 5505477 5483632 5466318 5460480 
1968.602 5472089 5503095 5551486 5609381 5666747 5715022 5751417 5777338 
1972.459 5799231 5822704 5851686 5885842 5923023 5961618 6004248 6056089 
1976.317 6123965 6211380 6315654 6425133 6524649 6599899 6641717 6648547 
1980.174 6626880 6586139 6537330 6487786 6443124 6406369 6379637 6365011 
1984.032 6362892 6372004 6387572 6402502 6409026 6402670 6382831 6354520 
1987.889 6326009 6305098 6297298 6303014 6319050 6340903 6364809 6389623 
1991.747 6416289 6446386 6479782 6513819 6544528 6568512 6583886 6592363 
1995.604 6597779 6604507 6615811 6631556 6649354 6666918 6681655 6692894 
1999.461 6701440 6708069 6712242 6712074 6705714 6691211 6669475 6643904 
2003.319 6619310 6599831 6587956 6582102 6579041 6575240 6566864 6554553 
2007.176 6539046 6522597 6506016 6488728 6469120 6447463 6424595 6404184 
2011.034 6390027 6385790 6391674 6406033 6426041 6448337 6472618 6499894 
2014.891 6531578 6568781 6609789 6650768 6686837 6715540 6736100 6751816 
2018.749 6765648 6781062 6798025 6814651 6828014 6837337 6843935 6852383 
2022.606 6867296 6892139 6925097 6961560 6994759 7019038 7031834 7035100 
2026.463 7033652 7033046 7036548 7045068 7056518 7068474 7078880 7087906 
2030.321 7095551 7103331 7111280 7118892 7126470 7135666 7149880 7174100 
2034.178 7212065 7264724 7329083 7399079 7468176 7530811 7584487 7629031 
2038.036 7666294 7696613 7719278 7732668 7735367 7727811 7714219 7699649 
2041.893 7690913 7691959 7703055 7720931 7740494 7756009 7764544 7765859 
2045.750 7763093 7760260 7761542 7770109 7786301 7808869 7833699 7854178 
2049.608 7863693 7854786 7822026 7764037 7685382 7593692 7501448 7420650 
2053.465 7360591 7325039 7311223 7311594 7316918 7318973 7314256 7303001 
2057.323 7289287 7276921 7269340 7267791 7271193 7278505 7288445 7300137 
2061.180 7313615 7328004 7341416 7352032 7358367 7360086 7359917 7360928 
2065.038 7366860 7379835 7399618 7423818 7449098 7472086 7490458 7502898 
2068.895 7509303 7508325 7499830 7482907 7458435 7428503 7397023 7368511 
2072.752 7346943 7333665 7327634 7325410 7323287 7317895 7308359 7295150 
2076.610 7280223 7265230 7251011 7237333 7224059 7210583 7197377 7185048 
2080.467 7173695 7162377 7149543 7133038 7111853 7086828 7060930 7038737 
2084.325 7024257 7019610 7024661 7037053 7052948 7069113 7083225 7094608 
2088.182 7102927 7107979 7108586 7103365 7091072 7070966 7044698 7014626 
2092.040 6984018 6956038 6933279 6917523 6910049 6912035 6923953 6945634 
2095.897 6975297 7008767 7041734 7069720 7089657 7101984 7108922 7114311 
2099.754 7121216 7130714 7141796 7152743 7161771 7169114 7176862 7188484 
2103.612 7206305 7230595 7258997 7287164 7311257 7329251 7341585 7351897 
2107.469 7364062 7380442 7401506 7424627 7446401 7463895 7476031 7484087 
2111.327 7490189 7496695 7504313 7513079 7521372 7528485 7534385 7540656 
2115.184 7549220 7561728 7578654 7598784 7620263 7641541 7661809 7681909 
2119.042 7703190 7726799 7753514 7782624 7812648 7842066 7869294 7893249 
2122.899 7913225 7928342 7938061 7941975 7940220 7934213 7925946 7917004 
2126.756 7908670 7900099 7889605 7874084 7851546 7820745 7783737 7743226 
2130.614 7702751 7665991 7634662 7609405 7590186 7576968 7569618 7568640 
2134.471 7573428 7582363 7592984 7602088 7607382 7608731 7607382 7605325 
2138.329 7603842 7602965 7600267 7592917 7579295 7559570 7537285 7517427 
2142.186 7504313 7500875 7506707 7518001 7531722 7544061 7553839 7560919 
2146.043 7565976 7567966 7565336 7555322 7536341 7508561 7475154 7439491 
2149.901 7405179 7372757 7338990 7299396 7248821 7184509 7108316 7024661 
2153.758 6938631 6855581 6779615 6713150 6661602 6634382 6645317 6710761 
2157.616 6842790 7043048 7298756 7583239 7863726 8108305 8297292 8421967 
2161.473 8487612 8506061 8491497 8457812 8415583 8371971 8332519 8300636 
2165.331 8277772 8263116 8253660 8244271 8230663 8209086 8179812 8145238 
2169.188 8108913 8074750 8044034 8015580 7986421 7953854 7917206 7878538 
2173.045 7842707 7816123 7803776 7807925 7826480 7853706 7881305 7899896 
2176.903 7902394 7884915 7847734 7795882 7736986 7680897 7636989 7610990 
2180.760 7605763 7619420 7646600 7679851 7713443 7743361 7768895 7791395 
2184.618 7814402 7840143 7869631 7902022 7934754 7965193 7990369 8008593 
2188.475 8019529 8024727 8026449 8028507 8034009 8045687 8063813 8086464 
2192.333 8109250 8127514 8136258 8133354 8118871 8096220 8069214 8042008 
2196.190 8017133 7994587 7973461 7953145 7933303 7915823 7903642 7898209 
2200.047 7900166 7907995 7917645 7925777 7929625 7929658 7928409 7929321 
2203.905 7935664 7948791 7967420 7988682 8008155 8023377 8031849 8034076 
2207.762 8031613 8026786 8021993 8019428 8020441 8024896 8031849 8038600 
2211.620 8041637 8037857 8024862 8003397 7975789 7947543 7924698 7911504 
2215.477 7910660 7921593 7941806 7967420 7995161 8023006 8049738 8074244 
2219.334 8095747 8111884 8120492 8119817 8109621 8092236 8070633 8049130 
2223.192 8030634 8016863 8007581 8001371 7997152 7994115 7992259 7991820 
2227.049 7993035 7995094 7996849 7997017 7994824 7990706 7985442 7980986 
2230.907 7978219 7977949 7980109 7984429 7991112 8001202 8015142 8034009 
2234.764 8057637 8083865 8110938 8135752 8155974 8170763 8179879 8183661 
2238.622 8183256 8179473 8173262 8165530 8157730 8150843 8145948 8143584 
2242.479 8142504 8141760 8140208 8136967 8133489 8131667 8133523 8140815 
2246.336 8154050 8171269 8190144 8207566 8221681 8231507 8237180 8239342 
2250.194 8238869 8236201 8231507 8225834 8220769 8218270 8221376 8231338 
2254.051 8248661 8271389 8296651 8320765 8340794 8354845 8362041 8362919 
2257.909 8358223 8348495 8334715 8317522 8298137 8277940 8258556 8241401 
2261.766 8227421 8216954 8210403 8207870 8210065 8217595 8230731 8248864 
2265.624 8270308 8292699 8313942 8332350 8347786 8360891 8373018 8384335 
2269.481 8394637 8402036 8404670 8401664 8393860 8383760 8375113 8371465 
2273.338 8375045 8385280 8400211 8416561 8430886 8441359 8447542 8450278 
2277.196 8451426 8451933 8452914 8454535 8456663 8459197 8462272 8466259 
2281.053 8471192 8477239 8484132 8491261 8498019 8504068 8508561 8510960 
2284.911 8510656 8506737 8498526 8486329 8470955 8454062 8438149 8424737 
2288.768 8415245 8409974 8408049 8408353 8409671 8410751 8411394 8411461 
2292.625 8410887 8410244 8409536 8408961 8408893 8409536 8411394 8414738 
2296.483 8419129 8424231 8429467 8434230 8438014 8440751 8442575 8443217 
2300.340 8442407 8439839 8434534 8426325 8414940 8400887 8385314 8368795 
2304.198 8352414 8336572 8321035 8305668 8289896 8273618 8256834 8240253 
2308.055 8224450 8210369 8198619 8189941 8184201 8180993 8179035 8176806 
2311.913 8172518 8164820 8153138 8137642 8119615 8101317 8084574 8071206 
2315.770 8061957 8056557 8053890 8052202 8049873 8045148 8037418 8026819 
2319.627 8014433 8002148 7992225 7986082 7984058 7984699 7984193 7977409 
2323.485 7959287 7925811 7876041 7811838 7738503 7662854 7592074 7531823 
2327.342 7485335 7452704 7431570 7418931 7410976 7405449 7401371 7398877 
2331.200 7398539 7400831 7405820 7412729 7420852 7429346 7437772 7446300 
2335.057 7454929 7464098 7474345 7486009 7499021 7513247 7528182 7543185 
2338.915 7557379 7570056 7581048 7590927 7600638 7611226 7623736 7638102 
2342.772 7654052 7670915 7688519 7707945 7731825 7764071 7808397 7867943 
2346.629 7943595 8033300 8132578 8234951 8333465 8420717 8491059 8540460 
2350.487 8567426 8572935 8560736 8536573 8506602 8476935 8452136 8434771 
2354.344 8425481 8423656 8428250 8438014 8452373 8470989 8493390 8519610 
2358.202 8549381 8582905 8620520 8662601 8709487 8760603 8814464 8868739 
2362.059 8920855 8968986 9012488 9052170 9090064 9128536 9169312 9212563 
2365.917 9257714 9303343 9348131 9391367 9433048 9473277 9511817 9547616 
2369.774 9578880 9604624 9624476 9639890 9654152 9671431 9695521 9729641 
2373.631 9774913 9831442 9897979 9973816 10058109 10150795 10251848 10360966 
2377.489 10477477 10600097 10727337 10858384 10992631 11129946 11270365 
2380.864 11413550 11558552 11704079 11848224 11989080 12124870 12253648 
2384.239 12373771 12483219 12580108 12662929 12731334 12785656 12827119 
2387.615 12857767 12879132 12892205 12896949 12893024 12879372 12856026 
2390.990 12823536 12783336 12737271 12686947 12633388 12577106 12518479 
2394.365 12457713 12395862 12334431 12274984 12219669 12169746 12126233 
2397.740 12089914 12061637 12042356 12033260 12035577 12049646 12075332 
2401.115 12111651 12157002 12209718 12268986 12334499 12406602 12486185 
2404.491 12574344 12671595 12777945 12892956 13015679 13144789 13278585 
2407.866 13415565 13554674 13695331 13837642 13982874 14132605 14288481 
2411.241 14451095 14620382 14794535 14970541 15144183 15311476 15468086 
2414.616 15610395 15735470 15841059 15926052 15990539 16035540 16063286 
2417.992 16076833 16079102 16072981 16060330 16042003 16017629 15986448 
2421.367 15947569 15900377 15845183 15783021 15715783 15646186 15576943 
2424.742 15511178 15452017 15401686 15362346 15335125 15320400 15318649 
2428.117 15329496 15353180 15389911 15440172 15504208 15582232 15673701 
2431.493 15777936 15893916 16020447 16156955 16302792 16457316 16619917 
2434.868 16789570 16965906 17148170 17337168 17534080 17740674 17959110 
2438.243 18191198 18437412 18697982 18972314 19259250 19558370 19869558 
2441.618 20192666 20528278 20876630 21238064 21612616 22000354 22401206 
2444.994 22814826 23240444 23676626 24121234 24571978 25025964 25480986 
2448.369 25935464 26388376 26838872 27286766 27730990 28170402 28603320 
2451.744 29027250 29439396 29836776 30215554 30572440 30903828 31205988 
2455.119 31475548 31708952 31902574 32053120 32156762 32210500 32211888 
2458.495 32159258 32051836 31889704 31673238 31403412 31081398 30709012 
2461.870 30289160 29825066 29321370 28783068 28215410 27624092 27014576 
2465.245 26392532 25764310 25136084 24514304 23905632 23315710 22749946 
2468.620 22212712 21707350 21236152 20800568 20400842 20036670 19706604 
2471.996 19409044 19142056 18902850 18689750 18500094 18331326 18181524 
2475.371 18047764 17927478 17817928 17716480 17620818 17528836 17438976 
2478.746 17350376 17263172 17177470 17094024 17014108 16938516 16867584 
2482.121 16801692 16740289 16682509 16627284 16574064 16521949 16471529 
2485.497 16423455 16378412 16337436 16301071 16268907 16240289 16214285 
2488.872 16190004 16167374 16146671 16128514 16114004 16103482 16096845 
2492.247 16093543 16092855 16094163 16097497 16103482 16112765 16125798 
2495.622 16141789 16159499 16176488 16190004 16197914 16198877 16193030 
2498.998 16181406 16165998 16148495 16130853 16114106 16098838 16085153 
2502.373 16073085 16062323 16052835 16044376 16036812 16029799 16023301 
2505.748 16016804 16010169 16002743 15994079 15984144 15972456 15959051 
2509.123 15944477 15929146 15913300 15897388 15880959 15863227 15843328 
2512.499 15820235 15792917 15761066 15724303 15682632 15635950 15584395 
2515.874 15527833 15467056 15403436 15338180 15273825 15212294 15155436 
2519.249 15104625 15060373 15022332 14990502 14964093 14942626 14925479 
2522.624 14912277 14902401 14895371 14890501 14887381 14886147 14886661 
2526.000 14889233 14894102 14901646 14912036 14925376 14941768 14960664 
2529.375 14981722 15004358 15027511 15050973 15074231 15097524 15121676 
2532.750 15147580 15175818 15206769 15239781 15274066 15308146 15340857 
2536.125 15371957 15401789 15431177 15461219 15492670 15526150 15561488 
2539.500 15598237 15636191 15674971 15714616 15755190 15796559 15838826 
2542.876 15881544 15924437 15967507 16010787 16054209 16097911 16141994 
2546.251 16186599 16231483 16276820 16322229 16367609 16412031 16454563 
2549.626 16493969 16529076 16559331 16585113 16607318 16627697 16647667 
2553.001 16668221 16689327 16710401 16730269 16748589 16765153 16780650 
2556.377 16795942 16811508 16827076 16841370 16852600 16858696 16858628 
2559.752 16851980 16839408 16822220 16801418 16777550 16750861 16720971 
2563.127 16687192 16649663 16608350 16564047 16517406 16469568 16421149 
2566.502 16373321 16327458 16284904 16247168 16215697 16191551 16175043 
2569.878 16166067 16163867 16167650 16176281 16188800 16203659 16220203 
2573.253 16237158 16253911 16271040 16288860 16308846 16332274 16359696 
2576.628 16391143 16425967 16462443 16499406 16536200 16572446 16608901 
2580.003 16646082 16684817 16725171 16767116 16810510 16855424 16901894 
2583.379 16950574 17001566 17055012 17109948 17165474 17220664 17274758 
2586.754 17327892 17380482 17433250 17486852 17541256 17595974 17650530 
2590.129 17704090 17756138 17806362 17854418 17900476 17943778 17984354 
2593.504 18022242 18057782 18092080 18126454 18161796 18198868 18237430 
2596.880 18277274 18317780 18358978 18401702 18447508 18498296 18555558 
2600.255 18619882 18690960 18767864 18848518 18931608 19016032 19101440 
2603.630 19188216 19276950 19368334 19462858 19560658 19661358 19764718 
2607.005 19870182 19976784 20084174 20191348 20297680 20402336 20504588 
2610.381 20603076 20696894 20784580 20864776 20936360 20998432 21050700 
2613.756 21093378 21126702 21151296 21167472 21175648 21176066 21169386 
2617.131 21156410 21138078 21115572 21089900 21061866 21032060 21000900 
2620.506 20968734 20936360 20904650 20874300 20846384 20821426 20799318 
2623.882 20780270 20763970 20750310 20739534 20732064 20728206 20728380 
2627.257 20732514 20740438 20751526 20765672 20782668 20802898 20827230 
2630.632 20856188 20890328 20930138 20974750 21023644 21075744 21129972 
2634.007 21185494 21241718 21298752 21356904 21416842 21479258 21544366 
2637.383 21612408 21682552 21754236 21826388 21898098 21968776 22038312 
2640.758 22106922 22174808 22242564 22310610 22379122 22448238 22517956 
2644.133 22587792 22657604 22727008 22795514 22862984 22929592 22995616 
2647.508 23061928 23129334 23198780 23270646 23345184 23422494 23502270 
2650.884 23584472 23669278 23757006 23848218 23943336 24042292 24144982 
2654.259 24250816 24359408 24470484 24583830 24699520 24817908 24939102 
2657.634 25063240 25190436 25320898 25454598 25591924 25732810 25876834 
2661.009 26023510 26171574 26319652 26466902 26612792 26757214 26900840 
2664.385 27044654 27189008 27334366 27480476 27627238 27774116 27920940 
2667.760 28067814 28215304 28364080 28514960 28668478 28825236 28985486 
2671.135 29149374 29316904 29487690 29661170 29836280 30011744 30185966 
2674.510 30357592 30525268 30687854 30845022 30996410 31142550 31283930 
2677.885 31421292 31555924 31688954 31821706 31955674 32092504 32233872 
2681.261 32381606 32537640 32703586 32880570 33069532 33270418 33482850 
2684.636 33706448 33940412 34184320 34437908 34700760 34972680 35252992 
2688.011 35540788 35835508 36136440 36443632 36757352 37078304 37406964 
2691.386 37743500 38087568 38438244 38794456 39155532 39520828 39890564 
2694.762 40264988 40644604 41029764 41420400 41816568 42217776 42623852 
2698.137 43034400 43449004 43867080 44287728 44709880 45132188 45553836 
2701.512 45973576 46390368 46803724 47212448 47615528 48011844 48399780 
2704.887 48778012 49144404 49496404 49831224 50145360 50434864 50696784 
2708.263 50928236 51127640 51294396 51428692 51531128 51602320 51642956 
2711.638 51653664 51635084 51587876 51512776 51410340 51280636 51123356 
2715.013 50937920 50723856 50481276 50210632 49913544 49591588 49246976 
2718.388 48881568 48497464 48096564 47681532 47255152 46821032 46383364 
2721.764 45945804 45512000 45085132 44668160 44263180 43872544 43498444 
2725.139 43142924 42807960 42495468 42206748 41942820 41704656 41492396 
2728.514 41306216 41145728 41009984 40897736 40807968 40739360 40691072 
2731.889 40662724 40654284 40665744 40697328 40748460 40818484 40906252 
2735.265 41010132 41128536 41259504 41400716 41550436 41705856 41864364 
2738.640 42023624 42181080 42334644 42482716 42623852 42756732 42880696 
2742.015 42994672 43098760 43193428 43279888 43359916 43435636 43509104 
2745.390 43581956 43655152 43728836 43803412 43878300 43953448 44028872 
2748.766 44104892 44181808 44260096 44340524 44423392 44509540 44599344 
2752.141 44693352 44792264 44897044 45008940 45130236 45262712 45409100 
2755.516 45571208 45750020 45945696 46157344 46383256 46621528 46870084 
2758.891 47126796 47389308 47654612 47918412 48176076 48422152 48651132 
2762.267 48858616 49041160 49196428 49323212 49420660 49488608 49526488 
2765.642 49534916 49514676 49467588 49396340 49304280 49194500 49070428 
2769.017 48935344 48792064 48643904 48493944 48344852 48199436 48059324 
2772.392 47925664 47798588 47678724 47565988 47460860 47363740 47274956 
2775.768 47193796 47119372 47049096 46980160 46909428 46833508 46749256 
2779.143 46653844 46543924 46416660 46269272 46099496 45906620 45691336 
2782.518 45456224 45204764 44941580 44671352 44398548 44126532 43858320 
2785.893 43596280 43341720 43096236 42860584 42635148 42419688 42214016 
2789.269 42017348 41829156 41649180 41477116 41313068 41157240 41009732 
2792.644 40870244 40738448 40613496 40494872 40381368 40271528 40164408 
2796.019 40058332 39951848 39843460 39731616 39614320 39490380 39358344 
2799.394 39217392 39067136 38907728 38739828 38564528 38382464 38193960 
2802.770 37999068 37797176 37587900 37371104 37147668 36918936 36687400 
2806.145 36455848 36226652 36002180 35784056 35573408 35371312 35178504 
2809.520 34996236 34825496 34667384 34522600 34391960 34275528 34173244 
2812.895 34084964 34010388 33948684 33899248 33861028 33832980 33814104 
2816.271 33803932 33802068 33809232 33826032 33853788 33893660 33946860 
2819.646 34014400 34097260 34196080 34311416 34443576 34592100 34756036 
2823.021 34933712 35122636 35320704 35525220 35734620 35947288 36161716 
2826.396 36376508 36589452 36797636 36997652 37184916 37355288 37504772 
2829.771 37629920 37728864 37800248 37844276 37861848 37854616 37825012 
2833.147 37775272 37708516 37627644 37535840 37436072 37330952 37222748 
2836.522 37112624 37001408 36889032 36775096 36659136 36540972 36420428 
2839.897 36298076 36174612 36050672 35927024 35804672 35684328 35566900 
2843.272 35453020 35343816 35239340 35139956 35045656 34956156 34871092 
2846.648 34790780 34715008 34644452 34579828 34521492 34470084 34425860 
2850.023 34388876 34359076 34336092 34319488 34308804 34303492 34303276 
2853.398 34308084 34318160 34334512 34358288 34390456 34431952 34482748 
2856.773 34541652 34606952 34675816 34745804 34813936 34878092 34935832 
2860.149 34985676 35025940 35055392 35073172 35079028 35073568 35057944 
2863.524 35033984 35003992 34969948 34934396 34898920 34865528 34835620 
2866.899 34810600 34791896 34780728 34778072 34785252 34802988 34832032 
2870.274 34872672 34924344 34985428 35053920 35127060 35202544 35278220 
2873.650 35353480 35429188 35507028 35589340 35678432 35775744 35882252 
2877.025 35997720 36121928 36254568 36395096 36543676 36700060 36863672 
2880.400 37033664 37208416 37386344 37565716 37744984 37922948 38099108 
2883.775 38272444 38442768 38609396 38771924 38930124 39083416 39231140 
2887.151 39372168 39505512 39629820 39744360 39848796 39944144 40031988 
2890.526 40114840 40195560 40277088 40361840 40451880 40548740 40653772 
2893.901 40768000 40892528 41028196 41175524 41334860 41505552 41686016 
2897.276 41872904 42060672 42241804 42407304 42546552 42650388 42711364 
2900.652 42725656 42693560 42619280 42509900 42372928 42216572 42047276 
2904.027 41869912 41688096 41504788 41322324 41143104 40969456 40802908 
2907.402 40644460 40494324 40352132 40217732 40090856 39971572 39860384 
2910.777 39757140 39661076 39570548 39483048 39395964 39306364 39212500 
2914.153 39113036 39007796 38896748 38780000 38658144 38530856 38398064 
2917.528 38259924 38116688 37969592 37820164 37670860 37524132 37382480 
2920.903 37248344 37123448 37009020 36905300 36812060 36728036 36651492 
2924.278 36580152 36511092 36441288 36367536 36287488 36198992 36101224 
2927.654 35994624 35880668 35762000 35641996 35524288 35412868 35311068 
2931.029 35222524 35149944 35095588 35060780 35046412 35052808 35079928 
2934.404 35127416 35195536 35284008 35393092 35522164 35670156 35835148 
2937.779 36014240 36204068 36401620 36604088 36809284 37015876 37222640 
2941.155 37428308 37630824 37827140 38013496 38185204 38336932 38462900 
2944.530 38557216 38613708 38627176 38593680 38511484 38381596 38208288 
2947.905 37998884 37761896 37507772 37246140 36984992 36730668 36487308 
2951.280 36256436 36038000 35830612 35631996 35440044 35252348 35067604 
2954.656 34884880 34704024 34524828 34347600 34171992 33997952 33825280 
2958.031 33653780 33484354 33318356 33157464 33003356 32857306 32719556 
2961.406 32589528 32466184 32348442 32235764 32128430 32027188 31933316 
2964.781 31847912 31771510 31704210 31646152 31596724 31555958 31523500 
2968.156 31499024 31480818 31466782 31453390 31436682 31412638 31378124 
2971.532 31331398 31272498 31202784 31125214 31043244 30960650 30881164 
2974.907 30807352 30741340 30683586 30632526 30584776 30534618 30474830 
2978.282 30396644 30291682 30152648 29974288 29754624 29494996 29200438 
2981.657 28878034 28537288 28188608 27841622 27505398 27187138 26892378 
2985.033 26625156 26387990 26183258 26012676 25877854 25779886 25718536 
2988.408 25690974 25691186 25708376 25728378 25733970 25706302 25629214 
2991.783 25490576 25285004 25014732 24690156 24327696 23946242 23565230 
2995.158 23201504 22865952 22564722 22298404 22063866 21856040 21669454 
2998.534 21499730 21343540 21198750 21063954 20937856 20819304 20706624 
3001.909 20598454 20493646 20391746 20292680 20196902 20105240 20018280 
3005.284 19936644 19860506 19789860 19724078 19662676 19604852 19550052 
3008.659 19497614 19447472 19399516 19353854 19310584 19269850 19231298 
3012.035 19194900 19160374 19127584 19096802 19068480 19043380 19022022 
3015.410 19005058 18992872 18985674 18983562 18986540 18994534 19006928 
3018.785 19022506 19039816 19056500 19070350 19079490 19082364 19078764 
3022.160 19068964 19053940 19035038 19012848 18988028 18960752 18931298 
3025.536 18900010 18868140 18837064 18808724 18784540 18765374 18751258 
3028.911 18741018 18732818 18724274 18713274 18698156 18677816 18652116 
3032.286 18621576 18587234 18549990 18511124 18471640 18432608 18394858 
3035.661 18359358 18327008 18298562 18274648 18255538 18241612 18232696 
3039.037 18228654 18229344 18234218 18242890 18254674 18268980 18284842 
3042.412 18301880 18319542 18338032 18357492 18378232 18400318 18423514 
3045.787 18447128 18470082 18491382 18510224 18526270 18539996 18551512 
3049.162 18561644 18570704 18578762 18585642 18591038 18594566 18596328 
3052.538 18596364 18594808 18591626 18586820 18579972 18571222 18560296 
3055.913 18547640 18533946 18520010 18507044 18495668 18486748 18480836 
3059.288 18478070 18478380 18481078 18485468 18490276 18494250 18496188 
3062.663 18496014 18494008 18491588 18490240 18491934 18497638 18507632 
3066.039 18521532 18538268 18556526 18575408 18594324 18613276 18632368 
3069.414 18651702 18671038 18690028 18708222 18725518 18742264 18759006 
3072.789 18776962 18797410 18820870 18847792 18877828 18909978 18942892 
3076.164 18975568 19006998 19036732 19064810 19091884 19118476 19145312 
3079.540 19172738 19200616 19228772 19256376 19283220 19309096 19334246 
3082.915 19359292 19384652 19410742 19437596 19464728 19491584 19517334 
3086.290 19541768 19564712 19586792 19608388 19630538 19653524 19678034 
3089.665 19704108 19731984 19761596 19793014 19826238 19861026 19897134 
3093.041 19934216 19971994 20010264 20049056 20088546 20128664 20169862 
3096.416 20211966 20255046 20298894 20343548 20388688 20434218 20479892 
3099.791 20525638 20570938 20616034 20660996 20706242 20752118 20798934 
3103.166 20846488 20894568 20942376 20989250 21034702 21078770 21121728 
3106.542 21163960 21206022 21247948 21289774 21331046 21371766 21412248 
3109.917 21452906 21494472 21537856 21583330 21631108 21680774 21731768 
3113.292 21783606 21835726 21887818 21939394 21990106 22039500 22087224 
3116.667 22133558 22178990 22224814 22272070 22321598 22373820 22427896 
3120.042 22482748 22536768 22588768 22638230 22685428 22731476 22777496 
3123.418 22824568 22873288 22923268 22974130 23024928 23074926 23123814 
3126.793 23171448 23218072 23264214 23310326 23356826 23404380 23453200 
3130.168 23503318 23554492 23606442 23658572 23710498 23762118 23813426 
3133.543 23864602 23916238 23968230 24020792 24073950 24127574 24181764 
3136.919 24236802 24292828 24350018 24408126 24466768 24525312 24583480 
3140.294 24640918 24698222 24756060 24815242 24875800 24937590 24999428 
3143.669 25060222 25118704 25174600 25228498 25281738 25335862 25392522 
3147.044 25452350 25515244 25580572 25647386 25714810 25782770 25851408 
3150.420 25921288 25992764 26065624 26139198 26212436 26284202 26354084 
3153.795 26421828 26488420 26554952 26622868 26693224 26766834 26843526 
3157.170 26922944 27004562 27087430 27171090 27255120 27339164 27423014 
3160.545 27506492 27589350 27671340 27752394 27832438 27911542 27990414 
3163.921 28069370 28149084 28229908 28312266 28395880 28480464 28565562 
3167.296 28650286 28733930 28815888 28895348 28972238 29046272 29117698 
3170.671 29186688 29253778 29319528 29384438 29448862 29512692 29575576 
3174.046 29637082 29695902 29751538 29803204 29850866 29894736 29935948 
3177.422 29975494 30014940 30055310 30097424 30141568 30187882 30236086 
3180.797 30285892 30337018 30389074 30441634 30494556 30547378 30600172 
3184.172 30653006 30706274 30760402 30816068 30873730 30933502 30995450 
3187.547 31059544 31125606 31193420 31262670 31333390 31404876 31476830 
3190.923 31548690 31620242 31691700 31763524 31836682 31911918 31989414 
3194.298 32068602 32148056 32226056 32300934 32371644 32438300 32502070 
3197.673 32564708 32628070 32693512 32761716 32832362 32904484 32976974 
3201.048 33049010 33119700 33188972 33257042 33324548 33392492 33462164 
3204.424 33534642 33610964 33691376 33775028 33860632 33946144 34029488 
3207.799 34109084 34184392 34256092 34325584 34394296 34463840 34535088 
3211.174 34607708 34681416 34755748 34830236 34904700 34979392 35054852 
3214.549 35131440 35209692 35289796 35371920 35455936 35541296 35627136 
3217.925 35712424 35796144 35877432 35956324 36033576 36110336 36188116 
3221.300 36267892 36350420 36435560 36522952 36612088 36703196 36796156 
3224.675 36891228 36987988 37085268 37181488 37274912 37364388 37449692 
3228.050 37531648 37612068 37692652 37774872 37859356 37946308 38035556 
3231.426 38127396 38222292 38321008 38423368 38529044 38636052 38742000 
3234.801 38845036 38944404 39040496 39135372 39231392 39330556 39433084 
3238.176 39538460 39645100 39751548 39857152 39962564 40068904 40177640 
3241.551 40289088 40402932 40517748 40632304 40745872 40858960 40972592 
3244.927 41088652 41208204 41331400 41457724 41585876 41714796 41843748 
3248.302 41972416 42101084 42229608 42357988 42485492 42612156 42737944 
3251.677 42864092 42991968 43122908 43257668 43395504 43534520 43672484 
3255.052 43807152 43936988 44061912 44182692 44300640 44417080 44533332 
3258.427 44650092 44767580 44885724 45004452 45122996 45240392 45355284 
3261.803 45466084 45571648 45671756 45766952 45858856 45949380 46040216 
3265.178 46132252 46225152 46318004 46409284 46497560 46582020 46662476 
3268.553 46739328 46813172 46884664 46954060 47021624 47086872 47149616 
3271.928 47209532 47266344 47320288 47371944 47421980 47471504 47521036 
3275.304 47571052 47621188 47670512 47717628 47761416 47801068 47836576 
3278.679 47868464 47898024 47926180 47953448 47980240 48006292 48031088 
3282.054 48054772 48077428 48099856 48122584 48146236 48170856 48196364 
3285.429 48222168 48247644 48272304 48296116 48318668 48340000 48360332 
3288.805 48379296 48397444 48415000 48432452 48450344 48469124 48489536 
3292.180 48511952 48537148 48565456 48597468 48632788 48670812 48710136 
3295.555 48748916 48785280 48818200 48847308 48873484 48898664 48924252 
3298.930 48951996 48982036 49013932 49046612 49078960 49110012 49139804 
3302.306 49169304 49198992 49230052 49263084 49298156 49335348 49374552 
3305.681 49415760 49458716 49503608 49550588 49599764 49651428 49706040 
3309.056 49764076 49825912 49891768 49961016 50033176 50107320 50183108 
3312.431 50260924 50341768 50427312 50518756 50616732 50720840 50829776 
3315.807 50941348 51053880 51166216 51278328 51391132 51505760 51623140 
3319.182 51743612 51866548 51990784 52114800 52237612 52358408 52477140 
3322.557 52594372 52710776 52827024 52943416 53059612 53174756 53287008 
3325.932 53394528 53495932 53590272 53677320 53758428 53834712 53907628 
3329.308 53977408 54043444 54104464 54158548 54204160 54240612 54267828 
3332.683 54286376 54296248 54297112 54288064 54267940 54236176 54193496 
3336.058 54141436 54082964 54020068 53954036 53884336 53809092 53725764 
3339.433 53632296 53527752 53412888 53289780 53160788 53028052 52892552 
3342.809 52754132 52612100 52465396 52313104 52154436 51989140 51816928 
3346.184 51637544 51451408 51258900 51061188 50860208 50657836 50456152 
3349.559 50256460 50059052 49863628 49669076 49474348 49278632 49081816 
3352.934 48884612 48687864 48493316 48301896 48114660 47931656 47752500 
3356.310 47575676 47400104 47224304 47047768 46871008 46695312 46522864 
3359.685 46355344 46194084 46039000 45888904 45741952 45596156 45450004 
3363.060 45303204 45156380 45010592 44867392 44727948 44592588 44461380 
3366.435 44334140 44210792 44091324 43975596 43863452 43754600 43648228 
3369.811 43543276 43438712 43333408 43226592 43117644 43006268 42892804 
3373.186 42777648 42661828 42546444 42432768 42321644 42213356 42107328 
3376.561 42002348 41896768 41788956 41677664 41562688 41444056 41322432 
3379.936 41198584 41072952 40945424 40816048 40684592 40551032 40415112 
3383.312 40276836 40136604 39994532 39850944 39706820 39562960 39421108 
3386.687 39282788 39149404 39021644 38899576 38782284 38668468 38556276 
3390.062 38444216 38330924 38215956 38099252 37981568 37864128 37748128 
3393.437 37634544 37523956 37415484 37308024 37199824 37089164 36974996 
3396.813 36857324 36737268 36616524 36496820 36379352 36264688 36152212 
3400.188 36041024 35930048 35818524 35706492 35593980 35481140 35368072 
3403.563 35253964 35138480 35020840 34900860 34778792 34655000 34530208 
3406.938 34404948 34279256 34153564 34027660 33902256 33777712 33654676 
3410.313 33533462 33414032 33295746 33177458 33058058 32936792 32813348 
3413.689 32687652 32560424 32432444 32304394 32176848 32050374 31925432 
3417.064 31801992 31679690 31558026 31436324 31313590 31189468 31063530 
3420.439 30936524 30809096 30682734 30558362 30437086 30319004 30204044 
3423.814 30091530 29980748 29870814 29760764 29650030 29538510 29426416 
3427.190 29314422 29203662 29095058 28988958 28885044 28782216 28678814 
3430.565 28573312 28464970 28353858 28241542 28129780 28020912 27916064 
3433.940 27815940 27720006 27627060 27535828 27445320 27354904 27264152 
3437.315 27172996 27081400 26989294 26896576 26802994 26708586 26613214 
3440.691 26516946 26420102 26322928 26225880 26129838 26035156 25941760 
3444.066 25848876 25754748 25657088 25553582 25443214 25326344 25205464 
3447.441 25084372 24966650 24854816 24749818 24649964 24553114 24456566 
3450.816 24358568 24259084 24158328 24057876 23958322 23859456 23760332 
3454.192 23659832 23557150 23452430 23346722 23241878 23139294 23039742 
3457.567 22943110 22848420 22754452 22660362 22565246 22468928 22371414 
3460.942 22272420 22172576 22072022 21971354 21871338 21772214 21673494 
3464.317 21574522 21473654 21370096 21263536 21155262 21047712 20944082 
3467.693 20846976 20757608 20674930 20596544 20519350 20440470 20357540 
3471.068 20269940 20177740 20081084 19980426 19876044 19768636 19659694 
3474.443 19551784 19447714 19350494 19261744 19181532 19107706 19037288 
3477.818 18967052 18894508 18818378 18738700 18656198 18571464 18485468 
3481.194 18398902 18312420 18227168 18144418 18065242 17990156 17918708 
3484.569 17849586 17780750 17710476 17637312 17561404 17482712 17402450 
3487.944 17320960 17238834 17156684 17074482 16993504 16914846 16839546 
3491.319 16768046 16699897 16633861 16568074 16500920 16431300 16359249 
3494.695 16285591 16211294 16137490 16064970 15994010 15925365 15859239 
3498.070 15796766 15738184 15683662 15632138 15581510 15529172 15472549 
3501.445 15409857 15340788 15266652 15189852 15113477 15040546 14973971 
3504.820 14915328 14865402 14823470 14787850 14755455 14722789 14686388 
3508.196 14644097 14594716 14539996 14482542 14426192 14373857 14327554 
3511.571 14286941 14250611 14216202 14181830 14146159 14109363 14071919 
3514.946 14034923 13999230 13964876 13932200 13900690 13869866 13839660 
3518.321 13809525 13778947 13747141 13713181 13675943 13634740 13589304 
3521.697 13539598 13485831 13428585 13367964 13304652 13238582 13169927 
3525.072 13098720 13024897 12948254 12868654 12786271 12701583 12615172 
3528.447 12528131 12441005 12354236 12267725 12181161 12094581 12008325 
3531.822 11923312 11840734 11761541 11685290 11610719 11535278 11456924 
3535.198 11373991 11286484 11196716 11108088 11024034 10946859 10877477 
3538.573 10814901 10757326 10702137 10647565 10592151 10535048 10475508 
3541.948 10412617 10345289 10272271 10193161 10108129 10018367 9926115 
3545.323 9833849 9743805 9658353 9579185 9507888 9444730 9389369 9339836 
3549.181 9292884 9244276 9190091 9127486 9055757 8976630 8893900 8811658 
3553.038 8733928 8662635 8598417 8539615 8484808 8432339 8381565 8331505 
3556.896 8282264 8232385 8180757 8126197 8068370 8007986 7947610 7890280 
3560.753 7839367 7797197 7764712 7741168 7724439 7710677 7695399 7673612 
3564.610 7639754 7589241 7519147 7429480 7324500 7212706 7105015 7011192 
3568.468 6937621 6885945 6852552 6830976 6814348 6796880 6775139 6747980 
3572.325 6715809 6679838 6641179 6600100 6556537 6510522 6462798 6414742 
3576.183 6368138 6324228 6283415 6244622 6206372 6166813 6124940 6080819 
3580.040 6035997 5992692 5953456 5920571 5895044 5877075 5865321 5857160 
3583.897 5849167 5837043 5816492 5783113 5734462 5670440 5593841 5510477 
3587.755 5428169 5355370 5297709 5258066 5235261 5225838 5223792 5223323 
3591.612 5218527 5205080 5180098 5142980 5095171 5040227 4982407 4926707 
3595.470 4876609 4834492 4800753 4773651 4750536 4727858 4702502 4672358 
3599.327 4636790 4597073 4555552 4515675 4480087 4451431 4430141 4416049 
3603.185 4407513 4402727 4399547 4395932 4389707 4378360 4359116 4329297 
3607.042 4287633 4234832 4174109 4110885 4051517 4000617 3959788 3927154 
3610.899 3898033 3867510 3831374 3789524 3745005 3704200 3672855 3655546 
3614.757 3652539 3660659 3672889 3681643 3679772 3661828 3625575 3571885 
3618.614 3505476 3433867 3365275 3307411 3265812 3241509 3233063 3236134 
3622.472 3246049 3259135 3273557 3290150 3310783 3336625 3365943 3392490 
3626.329 3406282 3393325 3341066 3243545 3106532 2950813 2804555 2695918 
3630.187 2638543 2630843 2658645 2703720 2749766 2784179 2801653 2802320 
3634.044 2790849 2773008 2754134 2736795 2721091 2705287 2687650 2667113 
3637.901 2644110 2620209 2597342 2577376 2561677 2550978 2545679 2546379 
3641.759 2553678 2568210 2589875 2618242 2651278 2685849 2717790 2741964 
3645.616 2753367 2746899 2718557 2666446 2591075 2495356 2385564 2270104 
3649.474 2159603 2064877 1996168 1960785 1960486 1991374 2044802 2108958 
3653.331 2170558 2217348 2240361 2235032 2203627 2154508 2101466 2057453 
3657.188 2031819 2026793 2039043 2061614 2086717 2108858 2124274 2131499 
3661.046 2131299 2125106 2115018 2103397 2093143 2086950 2087383 2096106 
3664.903 2114052 2140356 2172490 2206557 2237497 2258846 2264641 2249520 
3668.761 2212519 2157871 2097970 2051194 2035714 2064011 2137826 2249354 
3672.618 2382332 2517850 2637243 2723825 2767439 2766539 2730460 2673914 
3676.476 2610209 2545712 2479327 2405954 2322200 2228604 2131499 2040375 
3680.333 1964380 1908699 1873524 1854456 1845838 1843509 1846470 1856752 
3684.190 1876885 1907235 1943778 1978926 2002226 2003491 1976030 1919848 
3688.048 1842311 1756171 1675336 1610580 1566250 1541909 1534095 1539349 
3691.905 1554678 1578022 1607221 1639448 1671012 1699252 1721773 1738505 
3695.763 1751380 1763290 1777596 1795695 1816723 1837186 1852792 1858283 
3699.620 1850397 1828003 1793599 1752478 1711893 1679527 1660834 1658539 
3703.478 1671977 1698321 1733183 1772173 1811466 1848766 1882742 1912892 
3707.335 1939285 1961252 1977561 1984817 1979026 1955793 1912027 1848234 
3711.192 1769478 1685781 1610413 1555443 1529573 1534793 1566815 1616832 
3715.050 1674438 1729723 1775300 1807540 1826306 1834624 1836488 1835722 
3718.907 1834125 1831863 1827071 1818187 1804412 1787211 1769911 1756171 
3722.765 1749151 1749983 1757135 1766550 1773737 1775101 1769545 1758832 
3726.622 1748685 1745957 1756869 1784217 1826905 1879048 1932062 1976230 
3730.479 2003691 2010149 1997066 1969772 1936922 1905405 1877184 1849631 
3734.337 1816856 1774901 1724068 1671045 1626444 1600536 1598241 1617863 
3738.194 1653217 1697356 1745957 1797891 1855155 1918683 1985283 2045901 
3742.052 2085418 2085418 2032485 1925772 1786080 1651953 1567514 1557970 
3745.909 1620723 1730788 1856286 1967942 2043904 2073633 2057420 2004955 
3749.767 1930898 1849897 1773238 1706271 1653417 1619559 1610081 1628738 
3753.624 1674870 1741433 1817222 1889131 1946740 1983153 1997300 1992639 
3757.481 1975098 1950601 1922910 1893890 1865471 1840447 1824442 1822745 
3761.339 1838684 1871128 1913758 1956991 1990609 2007785 2006587 1991441 
3765.196 1970871 1954129 1947106 1949868 1956991 1960153 1952365 1929666 
3769.054 1893890 1851428 1812331 1785880 1778095 1790538 1820217 1861211 
3772.911 1906236 1949203 1984917 2011280 2028224 2038211 2044236 2048265 
3776.769 2050562 2048997 2039909 2020368 1990276 1953496 1917785 1891760 
3780.626 1881743 1889231 1910263 1937620 1962783 1979491 1984984 1980657 
3784.483 1970971 1961218 1955327 1954961 1958988 1965645 1972968 1980124 
3788.341 1986981 1993938 2000562 2006354 2010781 2014176 2018104 2024695 
3792.198 2035947 2051993 2070071 2084986 2090712 2082788 2060449 2028757 
3796.056 1997000 1977228 1977960 2001926 2043604 2091578 2130367 2144485 
3799.913 2123575 2065543 1980224 1888099 1814793 1781588 1795728 1850829 
3803.771 1929966 2012645 2077928 2110489 2102665 2058418 1991807 1924208 
3807.628 1877118 1862442 1880945 1923975 1979725 2037246 2089580 2135362 
3811.485 2176453 2215816 2253650 2286891 2307810 2307443 2278597 2220512 
3815.343 2142288 2062880 2004523 1983586 2004490 2057919 2125439 2183479 
3819.200 2211420 2194402 2129402 2026959 1912360 1816457 1762591 1759730 
3823.058 1800852 1869164 1944310 2009117 2053558 2075264 2079060 2075064 
3826.915 2074332 2084653 2108125 2141222 2177219 2208656 2229803 2238496 
3830.772 2236464 2228238 2219812 2216915 2223342 2240128 2265474 2294852 
3834.630 2321834 2338257 2337024 2312840 2264741 2197666 2121177 2048897 
3838.487 1993139 1961052 1953596 1966044 1990809 2019170 2044503 2063179 
3842.345 2073766 2077228 2076296 2074565 2075830 2083587 2100567 2127837 
3846.202 2164831 2209388 2258613 2309808 2361343 2413117 2464898 2515817 
3850.060 2561477 2593075 2597175 2558111 2463465 2310708 2115717 1913891 
3853.917 1746756 1645468 1618861 1654914 1731386 1825773 1922111 2010581 
3857.774 2087083 2151045 2203627 2245823 2278897 2303579 2321267 2333959 
3861.632 2343087 2349150 2350682 2344686 2328663 2302913 2272569 2246056 
3865.489 2233434 2241060 2268272 2307277 2344086 2364275 2356246 2317004 
3869.347 2253750 2183646 2127271 2098037 2099036 2121377 2151744 2176353 
3873.204 2187009 2183146 2171791 2163832 2169393 2194335 2237763 2293286 
3877.062 2350882 2400623 2434042 2445804 2435008 2405854 2367540 2331428 
3880.919 2308942 2307510 2327930 2364175 2404854 2436807 2447037 2427744 
3884.776 2379533 2313040 2246556 2199697 2186476 2209988 2262510 2328863 
3888.634 2392127 2437574 2455201 2442272 2404188 2352548 2301281 2263009 
3892.491 2245257 2249287 2272036 2307943 2351415 2397491 2442605 2483525 
3896.349 2517717 2542646 2556111 2556911 2545379 2524183 2497722 2471096 
3900.206 2448436 2431610 2419415 2408219 2393260 2371071 2340888 2305611 
3904.063 2270670 2243125 2228105 2228271 2242293 2266373 2295785 2326064 
3907.921 2354081 2379000 2400723 2420114 2437807 2454301 2469996 2485291 
3911.778 2501121 2518684 2539047 2561977 2586275 2608742 2625509 2633543 
3915.636 2630909 2618775 2600375 2580876 2565110 2556178 2554545 2558744 
3919.493 2566043 2573676 2579876 2584276 2586842 2587776 2586976 2583676 
3923.351 2577509 2568443 2557878 2548479 2543346 2545079 2554645 2570876 
3927.208 2591142 2611675 2628909 2640143 2643977 2640543 2630743 2615609 
3931.065 2596709 2575509 2553512 2532848 2515651 2504153 2499988 2503153 
3934.923 2512718 2526449 2541546 2555444 2566577 2574376 2579243 2582709 
3938.780 2585276 2587475 2588942 2588475 2584609 2576643 2565010 2551478 
3942.638 2538780 2529548 2526415 2529748 2538947 2551845 2565710 2577709 
3946.495 2585609 2588309 2585809 2579376 2570643 2561644 2554145 2549145 
3950.353 2547379 2548445 2551845 2556145 2560511 2563777 2565577 2565877 
3954.210 2565577 2565844 2567743 2572110 2579243 2588875 2600042 2611475 
3958.067 2621642 2629543 2634310 2635510 2632909 2626742 2617742 2606875 
3961.925 2595608 2585675 2578676 2575743 2577243 2583109 2592009 2603175 
3965.782 2615275 2627976 2640710 2653345 2665646 2677281 2687316 2695218 
3969.640 2700519 2703453 2704887 2705854 2707521 2710522 2714556 2718824 
3973.497 2722291 2724392 2724358 2722758 2720024 2716990 2714056 2711788 
3977.354 2710388 2710488 2712222 2716256 2722658 2731427 2741330 2751200 
3981.212 2759169 2764104 2765538 2764171 2761370 2758836 2758069 2759536 
3985.069 2763338 2768740 2774942 2781378 2787647 2793950 2800186 2806322 
3988.927 2811791 2816127 2818828 2819662 2818795 2816660 2813592 2809924 
3992.784 2805288 2799419 2791982 2783145 2773408 2764171 2756702 2752334 
3996.642 2751400 2753568 2757669 2762004 2765005 2765872 2764205 2760470 
4000.499 2756102 
##END=
