
##TITLE=mdmaHCL00386_9
##JCAMP-DX=5.01  $$ Nicolet v. 1
##DATATYPE=INFRARED SPECTRUM
##ORIGIN=UniL
##OWNER=Nicolet
##LONGDATE=2011/08/24
##TIME=08:21:22
##SPECTROMETER/DATA SYSTEM=Nicolet iS5
##DATA PROCESSING=
Ratio against background
%Transmittance->Absorbance
Truncated
ElementMultiply or ElementDivide
##COMMENTS=
Number of sample scans: 32
Collection length: 51.17 sec
Sample gain: 2.0
Background collected on: Mer Aout 24 08:19:40 2011 (GMT+02:00);
Number of background scans: 32
Background gain: 2.0
Sample spacing:  1.000
Number of scan points: 12415
Resolution points: 8192
Number of FFT points: 65536
Apodization: N-B fort;
Phase correction: Mertz;
Laser frequency: 15798.0 cm-1
Number of rejected sample scans: 0
Number of rejected background scans: 0
Bench serial number: ASB1000141;
##RESOLUTION=4.000
##XUNITS=1/CM
##YUNITS=ABSORBANCE
##FIRSTX=649.893372
##LASTX=4000.122314
##FIRSTY=0.080354
##MAXX=4000.122314
##MINX=649.893372
##MAXY=0.224105
##MINY=0.001651
##XFACTOR=1.000000
##YFACTOR=1.000000E-009
##NPOINTS=6950
##DELTAX=0.482117
##ZPD=6100
##XYDATA=(X++(Y..Y))
649.893 80353528 80243632 80196712 80225056 80318728 80459032 80627840 
653.268 80822240 81053624 81340512 81692776 82104680 82551880 83003752 
656.643 83436184 83840544 84225776 84609568 85005312 85412024 85815976 
660.018 86196976 86540704 86845408 87120968 87381464 87635592 87880904 
663.393 88105248 88293848 88437576 88534744 88587680 88594992 88545144 
666.767 88413928 88176320 87823464 87376648 86881064 86382008 85901896 
670.142 85434168 84950032 84413584 83799232 83098072 82322944 81499944 
673.517 80657952 79815808 78978336 78140984 77299536 76458296 75631696 
676.892 74838552 74093536 73401616 72755616 72143640 71556392 70993688 
680.267 70465008 69984680 69560888 69192992 68868112 68568776 68279112 
683.642 67992888 67713744 67452392 67218312 67014784 66836432 66674152 
687.016 66520228 66374308 66243424 66138692 66067508 66028504 66009408 
690.391 65991284 65957264 65897644 65814620 65719172 65624660 65540812 
693.766 65469572 65405704 65342540 65276296 65209336 65149316 65104164 
697.141 65078212 65069056 65069824 65070636 65065436 65053008 65037496 
700.516 65023756 65015292 65011212 65007360 64999356 64984388 64963380 
703.890 64939484 64914860 64888036 64854184 64806560 64740636 64656572 
707.265 64560100 64459540 64362616 64272016 64184852 64094864 63996948 
710.640 63891484 63787208 63699484 63645736 63640520 63688704 63782068 
714.015 63896864 63999056 64045056 63988768 63793272 63433716 62907636 
717.390 62236740 61469460 60674188 59924412 59294496 58843132 58603860 
720.765 58583952 58759628 59080560 59467340 59824428 60051776 60052920 
724.139 59760928 59151212 58250736 57132788 55903928 54682436 53560660 
727.514 52598712 51813344 51186908 50683044 50263340 49901468 49583864 
730.889 49307400 49071468 48871336 48697536 48538368 48384740 48234388 
734.264 48091008 47960556 47846636 47746068 47649992 47548172 47433216 
737.639 47304400 47167568 47031412 46903156 46786012 46678340 46577928 
741.013 46484028 46399328 46328988 46276720 46241256 46215276 46188260 
744.388 46149752 46095660 46028684 45958036 45893620 45841476 45801228 
747.763 45767100 45732236 45692332 45648160 45604548 45566020 45533156 
751.138 45501184 45461596 45407992 45339432 45262752 45189904 45132516 
754.513 45097412 45083368 45082964 45088000 45094028 45102448 45119724 
757.888 45152000 45200864 45261904 45326152 45385704 45438748 45490772 
761.262 45553504 45637932 45750128 45888904 46048100 46222132 46411312 
764.637 46623852 46874588 47180016 47551536 47994712 48508432 49088572 
768.012 49728928 50421656 51157236 51924984 52721288 53562496 54502392 
771.387 55632824 57075236 58950292 61316568 64123668 67163312 70098792 
774.762 72482720 73861576 73920424 72543328 69875584 66259592 62177092 
778.136 58110032 54426104 51365808 49003100 47288144 46094336 45278376 
781.511 44718988 44326512 44051204 43867704 43761892 43725720 43754012 
784.886 43846588 44008300 44247988 44574304 44992660 45504716 46112908 
788.261 46823280 47650436 48617108 49748508 51070540 52604284 54365376 
791.636 56369708 58635604 61185820 64044328 67225008 70720184 74483304 
795.010 78427304 82417192 86267008 89769672 92694184 94808400 95924936 
798.385 95912792 94734048 92453768 89239856 85337976 81017128 76562104 
801.760 72221064 68176016 64553948 61409988 58742788 56510828 54652976 
805.135 53107464 51822676 50769100 49936108 49326256 48944020 48783204 
808.510 48816644 48996276 49251468 49498188 49659936 49670152 49486304 
811.885 49092320 48493760 47712968 46781248 45737760 44624092 43481744 
815.259 42353712 41277796 40283272 39390704 38608600 37936072 37366340 
818.634 36890836 36502984 36199348 35979036 35842204 35788336 35815684 
822.009 35922452 36109360 36380720 36745920 37217332 37806576 38522204 
825.384 39364148 40321336 41366892 42457724 43535104 44521216 45332076 
828.759 45887432 46119980 45996560 45523480 44750424 43757564 42645600 
832.133 41520212 40468064 39554684 38816632 38259848 37865864 37595776 
835.508 37402268 37230040 37028252 36759084 36400464 35951896 35432388 
838.883 34876048 34321780 33804112 33349018 32968178 32661754 32422018 
842.258 32238904 32103098 32007142 31945224 31911918 31900506 31904716 
845.633 31919372 31942196 31974294 32018948 32079768 32158758 32255712 
849.008 32369432 32498964 32645180 32811168 33000604 33216908 33460912 
852.382 33731052 34024936 34341004 34680412 35047668 35448816 35889992 
855.757 36375316 36906704 37485084 38112636 38794348 39539876 40362132 
859.132 41275388 42294944 43435236 44709108 46127644 47696064 49410820 
862.507 51250024 53170148 55103424 56953576 58612544 59969188 60918492 
865.882 61385524 61328624 60748264 59686104 58223868 56474488 54558668 
869.256 52602564 50719016 48990456 47476792 46208236 45191156 44414876 
872.631 43858136 43494048 43290760 43215320 43233836 43310640 43414876 
876.006 43521664 43615732 43693368 43760132 43828996 43913636 44027112 
879.381 44179460 44377664 44627876 44936504 45310264 45755244 46274764 
882.756 46866944 47523476 48230020 48968792 49718300 50458052 51170916 
886.131 51843812 52471904 53060100 53623748 54186028 54774408 55415376 
889.505 56125912 56911116 57761092 58655400 59565536 60461212 61316492 
892.880 62108580 62818824 63431948 63932216 64304828 64536608 64615696 
896.255 64533300 64284236 63866192 63281512 62538364 61653520 60652504 
899.630 59568388 58442044 57312948 56217888 55187584 54242336 53394904 
903.005 52652084 52016108 51487368 51064504 50744224 50520876 50386304 
906.379 50332056 50349912 50434232 50583260 50797708 51079896 51431376 
909.754 51852772 52342744 52900932 53526888 54221688 54986192 55818952 
913.129 56715152 57666484 58663440 59699180 60773492 61894708 63078904 
916.504 64348900 65729812 67244344 68912536 70747952 72754752 74924096 
919.879 77228120 79616792 82011064 84313832 86421224 88236080 89696952 
923.254 90791464 91568528 92130200 92625248 93233248 94123664 95449232 
926.628 97319824 99781104 102807432 106287096 110034712 113770424 117147224 
930.003 119801088 121352008 121486584 120012712 116882656 112225488 
932.896 106323288 99592864 92490584 85456152 78879392 73027824 68063104 
936.271 64050624 60977508 58786752 57400520 56743244 56740304 57313892 
939.646 58377912 59813324 61464800 63155920 64683252 65855844 66528456 
943.020 66611724 66097676 65052696 63609980 61933684 60189492 58528556 
946.395 57054644 55825732 54858988 54140348 53638628 53317500 53145320 
949.770 53095744 53147416 53283932 53489712 53750552 54055644 54397036 
953.145 54770648 55175656 55612072 56078524 56571892 57087516 57620208 
956.520 58167236 58727956 59303840 59896876 60507636 61133788 61771312 
959.894 62415508 63063344 63714064 64369612 65032260 65703096 66380760 
963.269 67061804 67741936 68418840 69092520 69766192 70443848 71128408 
966.644 71820920 72520272 73224664 73934048 74651096 75380992 76130272 
970.019 76904424 77706512 78537584 79397904 80289312 81215904 82184112 
973.394 83200872 84271312 85397264 86578000 87811056 89095256 90431584 
976.768 91822464 93270000 94773288 96326504 97919624 99539064 101171344 
980.143 102803992 104424592 106019920 107574176 109067240 110479368 
983.036 111793912 113001416 114102352 115105216 116022760 116865000 
985.929 117637976 118341696 118973528 119532104 120020088 120444800 
988.821 120817480 121149800 121452312 121735952 122012856 122297744 
991.714 122609752 122967944 123387920 123878416 124439280 125062672 
994.607 125737296 126453040 127203360 127984552 128793776 129625544 
997.500 130469408 131312832 132143096 132952336 133739840 134510544 
1000.392 135272352 136030736 136787136 137538800 138281568 139013328 
1003.285 139736496 140457264 141183616 141921856 142675920 143449248 
1006.178 144246448 145077824 145959936 146911376 147950144 149087456 
1009.070 150325264 151657184 153071888 154557936 156105600 157707616 
1011.963 159356832 161043168 162754480 164478608 166207344 167941264 
1014.856 169688896 171464000 173277840 175132064 177015552 178906240 
1017.748 180775376 182594048 184340832 186000896 187567040 189038272 
1020.641 190420144 191728096 192988944 194244736 195547184 196946240 
1023.534 198484448 200184368 202046112 204050032 206164304 208353824 
1026.427 210580400 212805792 214986464 217065984 218980960 220664416 
1029.320 222053296 223103232 223789312 224105440 224057568 223659104 
1032.213 222927712 221885760 220566864 219015456 217279152 215403968 
1035.106 213419200 211329968 209116656 206742160 204165472 201349392 
1037.999 198272064 194929008 191331248 187504592 183489056 179343136 
1040.892 175137968 170957648 166892064 163017440 159392976 156053184 
1043.785 153005712 150240592 147737968 145478704 143446720 141631184 
1046.678 140024336 138617456 137399328 136358576 135482784 134761184 
1049.571 134184600 133741336 133414688 133182032 133013216 132878568 
1052.464 132751528 132613688 132456112 132276208 132072448 131839960 
1055.357 131567688 131239000 130836024 130340624 129737288 129012960 
1058.250 128154904 127151984 125995800 124685048 123230088 121653168 
1061.144 119989080 118277576 116557304 114863600 113222312 111653056 
1064.037 110170736 108786888 107509800 106343096 105283376 104319376 
1066.930 103432808 102604024 101813680 101047808 100299152 99564816 98844000 
1070.305 98135752 97437120 96745080 96057608 95375552 94702152 94041816 
1073.680 93398368 92773280 92166576 91578432 91010736 90467936 89955776 
1077.055 89477240 89030584 88606856 88192800 87773456 87338072 86884056 
1080.431 86417624 85952136 85502104 85081968 84701944 84369480 84092728 
1083.806 83883064 83756632 83736144 83846968 84114840 84565360 85219752 
1087.181 86094192 87197584 88527144 90062496 91758648 93549256 95340896 
1090.556 97022768 98488984 99642416 100415960 100783000 100757848 100394040 
1093.932 99771848 98995416 98173888 97406600 96782256 96361208 96174184 
1097.307 96222072 96478496 96894736 97403696 97933192 98407184 98750072 
1100.682 98899584 98804888 98435400 97785720 96876880 95754096 94475496 
1104.057 93109200 91719928 90359368 89069632 87879480 86805672 85858688 
1107.433 85041184 84349520 83772584 83293344 82889688 82535016 82204208 
1110.808 81873136 81518736 81120960 80659984 80117176 79477952 78732768 
1114.183 77880536 76928752 75892616 74792336 73648160 72480720 71308408 
1117.558 70147240 69013008 67920152 66880688 65903932 64994164 64151472 
1120.934 63371368 62646976 61969836 61329044 60711948 60101584 59476388 
1124.309 58813384 58089960 57289244 56405208 55444440 54426332 53377332 
1127.684 52329776 51314644 50356092 49472940 48675148 47965032 47338208 
1131.059 46784940 46290760 45838344 45409576 44988612 44563032 44127412 
1134.435 43682632 43236476 42800684 42390096 42020704 41706552 41460244 
1137.810 41291384 41204852 41201284 41275648 41418796 41617124 41855756 
1141.185 42121308 42401900 42689064 42977700 43263852 43544704 43817672 
1144.560 44080796 44333556 44577132 44814488 45049220 45284264 45520612 
1147.936 45757712 45993840 46227916 46460208 46693248 46931100 47177320 
1151.311 47435140 47705828 47989900 48287596 48600100 48929332 49277628 
1154.686 49646008 50033660 50436912 50850712 51268516 51683072 52087528 
1158.061 52474036 52832524 53152284 53420456 53624308 53753624 53800432 
1161.437 53759776 53628772 53404872 53085448 52667832 52150512 51534300 
1164.812 50823292 50024548 49147448 48201364 47196452 46142236 45048816 
1168.187 43927640 42791104 41652136 40524004 39417768 38342468 37305384 
1171.562 36311260 35364912 34470836 33633656 32857876 32147482 31504686 
1174.938 30930620 30424932 29986678 29614768 29308432 29067174 28890604 
1178.313 28778360 28730176 28746886 28830476 28984672 29215252 29528084 
1181.688 29928954 30421662 31008298 31689666 32466612 33341006 34316116 
1185.063 35395860 36583720 37879888 39280100 40774516 42345384 43966940 
1188.438 45606276 47218432 48751100 50147816 51349288 52306004 52984476 
1191.814 53371484 53476404 53329152 52975792 52465812 51849744 51171996 
1195.189 50463184 49742304 49015528 48279080 47523732 46739328 45919768 
1198.564 45065724 44185480 43292916 42406248 41542780 40716032 39935464 
1201.939 39205352 38526440 37897712 37317448 36783568 36293108 35841300 
1205.315 35420488 35020408 34629988 34237844 33834624 33415072 32977152 
1208.690 32522712 32056152 31584534 31116208 30660722 30228376 29829962 
1212.065 29474926 29172230 28928534 28748550 28636022 28593624 28623954 
1215.440 28730034 28914616 29179954 29526948 29955578 30464666 31053352 
1218.816 31721354 32469042 33297426 34206940 35196792 36265336 37410828 
1222.191 38632864 39933428 41316784 42788800 44355132 46018996 47780056 
1225.566 49633936 51571272 53576028 55626196 57690400 59725152 61680408 
1228.941 63497252 65113440 66473580 67528608 68242192 68595784 68588136 
1232.317 68240728 67595888 66721632 65705292 64642452 63638828 62793516 
1235.692 62191200 61907664 62000140 62511688 63474820 64909160 66821360 
1239.067 69201384 72020304 75224696 78733080 82446832 86242920 89980848 
1242.442 93520528 96712584 99414328 101508592 102903504 103550632 103448752 
1245.818 102642888 101215976 99273920 96947048 94370440 91676224 88994224 
1249.193 86427448 84045160 81873536 79889392 78023672 76172360 74226296 
1252.568 72085704 69684144 67005084 64080620 60986812 57820556 54693036 
1255.943 51705728 48933636 46426872 44203196 42253968 40550484 39053144 
1259.319 37720372 36510700 35391120 34337632 33333990 32372322 31449720 
1262.694 30566362 29723080 28920954 28160784 27443132 26769338 26141274 
1266.069 25560542 25028700 24545648 24110202 23719912 23372282 23065702 
1269.444 22799356 22573238 22387216 22240228 22129410 22051246 22001122 
1272.820 21975746 21972402 21989828 22026880 22082238 22154026 22240088 
1276.195 22338586 22447994 22567478 22695306 22827816 22959562 23082578 
1279.570 23188504 23270960 23325954 23353084 23354064 23330778 23283720 
1282.945 23211048 23109520 22976226 22810634 22616240 22400124 22172576 
1286.321 21945216 21728876 21533154 21366234 21234204 21141694 21091152 
1289.696 21082630 21112614 21175022 21262666 21368390 21487092 21616588 
1293.071 21756676 21908206 22071222 22244344 22425000 22610864 22801172 
1296.446 22997606 23204092 23426096 23668580 23935388 24229166 24551608 
1299.822 24903834 25286690 25700396 26142438 26607366 27086900 27569544 
1303.197 28043568 28498756 28926762 29321974 29681640 30005034 30292962 
1306.572 30548658 30778328 30990148 31193670 31398390 31611156 31835542 
1309.947 32071206 32315138 32563210 32811168 33055734 33293710 33521290 
1313.323 33733596 33924576 34087976 34218448 34312748 34369012 34386868 
1316.698 34366428 34308516 34214364 34087224 33933140 33760628 33580640 
1320.073 33403620 33238046 33088986 32958098 32844510 32746748 32664542 
1323.448 32599744 32556672 32541104 32561102 32625820 32745924 32933220 
1326.823 33198704 33549316 33984840 34493904 35054708 35634296 36195320 
1330.199 36703228 37129404 37457164 37683220 37815612 37870704 37869876 
1333.574 37837624 37795800 37764900 37761680 37797212 37878620 38008144 
1336.949 38184736 38406136 38670676 38978256 39330488 39728964 40173752 
1340.324 40662252 41188164 41742408 42312184 42881468 43429996 43930904 
1343.700 44354436 44668676 44843880 44859784 44707528 44390140 43920528 
1347.075 43318324 42606236 41805844 40939236 40028576 39095852 38165524 
1350.450 37263108 36412392 35635952 34950628 34366212 33886316 33508264 
1353.825 33226028 33030848 32913346 32863382 32869562 32920208 33004284 
1357.201 33111156 33233180 33364226 33499602 33634984 33765572 33886568 
1360.576 33995484 34093492 34188440 34293888 34429120 34614740 34867396 
1363.951 35199884 35618832 36126284 36721260 37399636 38151956 38958828 
1367.326 39790948 40606000 41350056 41969208 42410740 42631784 42605832 
1370.702 42321936 41787640 41025648 40076756 38996196 37846592 36698688 
1374.077 35618468 34656008 33842580 33186148 32678046 32300864 32038994 
1377.452 31884104 31839140 31917516 32141558 32541424 33147526 33988100 
1380.827 35079208 36413328 37945548 39582380 41194032 42614164 43669148 
1384.203 44214168 44137316 43387120 41980008 40014948 37665112 35146492 
1387.578 32692048 30484250 28627528 27150278 26020098 25175020 24544700 
1390.953 24069538 23703082 23410744 23170258 22965502 22786610 22628700 
1394.328 22491646 22378528 22293382 22239356 22216654 22222582 22251876 
1397.704 22297532 22352366 22409020 22462020 22508848 22549504 22586152 
1401.079 22621196 22655928 22690244 22723026 22753718 22783014 22814964 
1404.454 22855964 22912372 22989710 23090090 23212480 23353784 23511292 
1407.829 23683484 23870868 24074722 24295806 24533166 24784020 25045372 
1411.205 25315104 25593788 25884114 26189416 26512228 26852374 27207670 
1414.580 27575652 27954722 28345724 28751594 29175490 29618600 30079706 
1417.955 30554204 31037656 31527740 32026794 32539674 33068568 33612500 
1421.330 34165108 34718956 35268264 35814240 36366704 36943788 37566400 
1424.706 38252216 39012184 39848728 40759704 41741532 42791760 43905276 
1428.081 45068704 46258064 47434472 48549300 49557308 50423252 51132708 
1431.456 51693488 52133440 52493032 52814600 53141204 53511260 53960864 
1434.831 54530380 55264264 56206536 57392236 58828980 60493848 62341528 
1438.207 64317352 66364816 68419688 70410568 72241256 73796192 74965128 
1441.582 75646960 75775032 75326280 74314600 72784176 70796112 68427176 
1444.957 65757988 62864928 59828156 56726216 53644216 50685132 47956080 
1448.332 45553284 43542140 41939168 40719016 39830564 39221964 38853192 
1451.708 38701176 38756092 39010152 39450064 40058840 40816300 41707428 
1455.083 42727448 43873496 45136264 46484912 47864320 49206412 50454552 
1458.458 51578696 52571860 53440056 54193268 54843272 55401484 55877660 
1461.833 56277440 56598128 56825868 56940808 56923320 56767184 56488452 
1465.208 56125236 55723940 55321244 54936476 54570012 54210952 53844312 
1468.584 53454408 53025020 52531920 51939996 51203796 50275952 49130496 
1471.959 47786048 46318552 44838444 43454280 42234284 41194580 40316576 
1475.334 39572796 38947808 38447296 38094368 37915356 37930940 38147872 
1478.709 38561636 39164304 39952900 40932320 42114592 43512324 45131780 
1482.085 46969236 49011932 51244920 53655804 56241536 59004532 61943544 
1485.460 65044388 68261464 71503104 74639368 77492656 79856936 81531760 
1488.835 82334320 82145152 80942432 78820560 75979160 72666456 69134320 
1492.210 65571712 62085912 58725264 55489840 52365172 49351532 46473736 
1495.586 43787544 41367732 39282024 37568860 36226508 35225936 34523068 
1498.961 34075824 33852356 33828932 33987028 34309124 34775596 35363472 
1502.336 36048912 36800736 37580492 38339536 39002504 39467080 39604448 
1505.711 39276364 38393976 36972436 35142540 33086802 30959688 28847012 
1509.087 26775152 24745400 22760804 20834008 18995954 17285964 15735779 
1512.462 14366527 13181027 12167088 11304134 10568182 9935642 9382970 
1515.837 8889368 8441055 8032895 7670274 7364197 7123911 6948665 6825321 
1519.695 6727688 6626106 6496497 6333809 6156395 5997093 5883726 5824618 
1523.552 5808231 5811286 5811152 5792247 5752659 5701627 5654192 5621632 
1527.409 5606495 5603843 5606763 5612033 5622707 5646203 5688232 5748462 
1531.267 5817667 5878956 5913484 5909789 5870593 5815048 5768608 5752559 
1535.124 5774249 5828178 5901862 5982244 6060592 6130787 6188457 6227917 
1538.982 6239681 6213396 6145070 6044464 5933301 5836607 5771764 5740908 
1542.839 5733320 5731406 5720025 5692730 5655300 5621162 5606092 5619283 
1546.697 5659731 5717674 5779823 5835331 5878688 5911770 5940926 5972805 
1550.554 6009960 6049403 6084079 6107230 6115430 6110255 6098527 6089287 
1554.411 6091235 6109247 6143893 6191986 6247513 6299887 6332128 6322412 
1558.269 6247950 6102593 5909252 5714787 5564440 5479807 5460245 5489370 
1562.126 5545747 5607904 5659798 5693402 5709584 5716734 5727109 5750611 
1565.984 5790434 5842584 5898201 5948316 5985873 6008314 6017049 6017485 
1569.841 6016545 6021248 6038349 6073796 6131560 6213867 6318647 6439559 
1573.698 6564812 6680107 6771941 6833130 6868339 6894327 6934524 7006746 
1577.556 7118117 7266139 7444446 7648522 7877729 8135752 8427744 8757629 
1581.413 9126404 9531122 9965712 10422730 10891543 11358311 11805800 
1584.789 12211695 12553198 12812275 12978192 13052281 13048150 12991336 
1588.164 12914426 12853910 12848143 12929650 13125767 13455276 13924639 
1591.539 14524817 15227015 15984522 16731026 17388792 17884904 18154574 
1594.914 18157338 17883868 17357444 16630143 15768796 14849013 13937264 
1598.290 13084173 12326351 11682874 11159284 10751586 10449203 10238821 
1601.665 10107993 10048308 10056142 10131327 10275393 10488611 10767924 
1605.040 11106933 11494448 11914424 12347179 12765797 13138711 13433643 
1608.415 13618706 13669993 13576210 13339296 12975803 12515069 11996812 
1611.791 11461924 10946756 10478665 10069808 9720391 9421162 9157942 8915003 
1615.648 8680415 8451663 8235660 8048118 7904789 7816325 7783704 7799458 
1619.505 7850332 7920817 7995701 8061619 8110027 8138182 8149999 8154152 
1623.363 8160567 8177380 8208106 8252106 8305803 8365384 8426224 8484233 
1627.220 8535492 8577430 8609503 8634513 8658478 8689171 8733287 8795090 
1631.078 8874387 8967294 9066110 9161461 9243295 9300770 9323926 9305442 
1634.935 9244108 9148027 9035187 8928397 8845541 8794955 8774533 8775514 
1638.792 8785725 8793771 8792791 8781227 8763849 8749041 8745559 8758473 
1642.650 8787347 8826130 8864715 8892344 8898161 8874657 8818387 8732441 
1646.507 8626233 8515217 8418589 8353055 8330155 8354237 8422203 8523564 
1650.365 8640395 8748736 8815445 8803814 8689136 8480010 8228974 8004240 
1654.222 7852491 7779217 7764409 7781106 7807824 7832147 7848172 7855393 
1658.080 7855831 7851681 7843855 7831405 7811568 7781106 7736244 7674219 
1661.937 7594468 7499594 7397292 7298216 7214423 7155640 7125965 7123776 
1665.794 7141897 7169350 7193031 7200780 7182892 7135194 7059818 6964590 
1669.652 6861842 6764436 6682463 6622742 6586980 6572313 6570901 6571540 
1673.509 6559598 6520714 6446958 6341273 6219783 6104509 6014999 5959301 
1677.367 5933503 5926012 5924534 5921377 5915902 5914290 5925677 5956210 
1681.224 6004081 6057265 6094125 6089085 6020744 5884464 5700384 5509638 
1685.082 5352753 5249380 5197133 5179964 5180098 5182680 5178187 5162360 
1688.939 5134464 5097015 5054608 5014584 4985592 4975402 4989245 5026450 
1692.796 5080018 5135839 5176142 5183351 5147104 5072207 4981201 4905829 
1696.654 4870008 4879893 4922518 4973794 5002953 4982206 4897385 4757906 
1700.511 4599116 4463616 4381406 4356605 4375716 4417689 4462277 4494248 
1704.369 4503555 4488222 4453507 4410057 4369390 4339738 4324678 4322704 
1708.226 4329865 4341913 4356103 4372169 4391715 4417455 4451933 4496223 
1712.083 4550027 4611540 4678587 4749196 4821592 4893129 4959684 5014015 
1715.941 5046730 5048473 5014182 4947719 4862737 4779145 4714326 4678219 
1719.798 4671085 4686860 4715833 4748828 4779446 4804103 4822028 4834492 
1723.656 4843370 4850574 4857409 4865216 4875370 4888940 4906097 4925601 
1727.513 4944737 4960220 4970107 4975838 4982039 4995345 5020953 5059636 
1731.371 5105028 5142846 5152536 5114516 5016931 4867931 4695234 4539011 
1735.228 4430275 4379532 4379297 4411664 4457122 4497763 4520998 4520764 
1739.085 4498131 4460904 4419631 4384418 4361056 4350849 4351585 4360421 
1742.943 4374511 4392284 4414208 4441388 4474931 4515642 4562449 4612779 
1746.800 4663415 4710440 4750302 4780652 4799547 4805946 4798844 4778374 
1750.658 4746048 4706454 4666798 4635183 4618103 4618103 4633207 4656516 
1754.515 4678353 4688669 4680229 4650823 4604809 4552070 4503823 4468102 
1758.373 4447113 4437171 4430944 4419229 4395095 4354564 4298743 4233126 
1762.230 4165678 4105667 4060112 4032755 4024327 4032320 4051483 4074360 
1766.087 4093926 4104229 4103359 4094261 4084026 4080782 4089545 4109246 
1769.945 4132795 4149587 4148316 4122626 4074895 4016703 3963834 3929562 
1773.802 3919631 3931033 3956712 3988679 4021953 4055062 4089512 4126907 
1777.660 4167719 4209371 4247179 4276289 4293623 4299680 4298676 4296568 
1781.517 4297839 4304867 4316211 4328359 4337060 4340206 4337128 4330401 
1785.375 4323473 4320227 4323708 4335822 4357610 4388569 4427831 4472153 
1789.232 4516144 4553108 4574906 4574470 4548152 4497495 4430108 4357107 
1793.089 4289909 4236170 4198430 4174844 4161162 4153334 4148015 4143165 
1796.947 4137679 4130921 4122291 4110684 4095733 4077002 4054828 4030481 
1800.804 4004998 3979851 3956043 3934376 3915653 3900775 3890444 3885195 
1804.662 3885195 3889842 3898200 3909200 3921704 3934878 3948119 3960323 
1808.519 3970421 3977076 3979383 3976909 3970488 3961861 3953201 3946915 
1812.376 3944541 3946915 3954338 3966442 3982694 4003025 4027036 4054092 
1816.234 4083792 4114865 4146443 4177755 4208166 4237676 4266151 4293723 
1820.091 4320629 4347000 4373105 4398744 4422810 4443397 4457122 4460837 
1823.949 4452536 4433154 4407179 4382075 4365274 4362262 4374176 4396903 
1827.806 4423045 4443397 4450929 4442593 4421371 4394459 4371432 4359383 
1831.664 4361258 4375682 4398643 4425522 4452703 4479183 4504760 4530875 
1835.521 4558264 4587362 4617903 4649785 4683779 4721795 4767420 4824071 
1839.378 4894201 4978989 5076599 5182882 5291974 5396062 5487692 5560950 
1843.236 5613946 5649728 5676784 5706293 5747724 5805645 5879225 5962895 
1847.093 6049269 6131022 6203548 6264859 6315318 6356336 6388548 6411514 
1850.951 6423183 6421636 6406100 6377686 6339458 6295349 6247816 6198070 
1854.808 6145305 6087539 6023802 5954430 5881710 5808533 5737819 5670440 
1858.666 5605689 5541686 5476955 5411159 5346011 5283857 5227146 5176946 
1862.523 5132922 5094065 5059737 5030607 5008350 4995244 4992094 4997423 
1866.380 5007311 5015925 5018372 5011467 4995747 4974330 4952244 4933677 
1870.238 4920809 4913503 4910253 4909314 4909650 4910990 4912632 4914140 
1874.095 4914241 4911392 4904925 4895173 4883378 4871516 4860659 4850876 
1877.953 4840489 4826886 4807990 4782796 4752379 4718814 4684817 4652296 
1881.810 4622156 4593557 4565932 4539212 4513968 4492239 4475534 4464788 
1885.667 4459532 4457724 4456486 4453439 4446744 4435731 4420902 4403564 
1889.525 4385757 4369959 4358981 4355300 4360521 4375013 4397338 4424484 
1893.382 4452770 4478815 4500776 4519224 4535931 4554112 4576011 4602297 
1897.240 4631700 4661808 4690042 4714627 4735161 4751742 4765845 4778877 
1901.097 4792009 4806616 4824105 4845615 4871449 4901440 4933946 4966420 
1904.955 4995982 5021087 5040730 5056150 5068385 5078275 5085550 5088935 
1908.812 5086757 5078074 5064061 5047065 5030439 5017467 5009422 5006473 
1912.669 5007579 5011501 5017802 5026752 5038249 5051121 5061614 5065268 
1916.527 5057424 5034998 4999233 4955360 4911459 4873761 4846118 4827589 
1920.384 4813819 4799346 4780418 4756097 4728763 4703005 4682204 4668439 
1924.242 4660602 4655947 4651895 4647306 4642517 4639134 4638699 4641613 
1928.099 4646737 4652665 4657956 4662511 4667602 4674535 4683879 4694966 
1931.957 4705718 4713656 4717106 4716235 4712249 4707426 4703507 4701698 
1935.814 4702167 4705483 4712684 4725882 4746784 4775761 4810704 4847491 
1939.671 4879725 4902713 4913436 4912665 4903819 4892894 4883646 4879189 
1943.529 4879725 4884015 4890817 4899965 4912029 4927846 4947451 4969269 
1947.386 4990887 5010026 5025545 5038081 5049580 5062016 5075995 5091349 
1951.244 5105564 5116628 5123534 5126317 5126384 5124942 5121925 5116058 
1955.101 5105363 5088231 5065033 5038685 5014015 4995848 4988340 4993066 
1958.958 5009556 5034830 5065636 5098390 5130642 5159075 5181071 5194953 
1962.816 5200452 5200117 5198910 5202800 5216616 5242472 5279229 5321793 
1966.673 5364729 5404449 5439174 5470412 5500443 5530343 5559171 5584040 
1970.531 5603004 5615154 5623680 5632575 5645431 5664028 5685747 5706360 
1974.388 5723483 5738893 5760046 5798593 5864682 5962055 6084717 6216186 
1978.246 6334885 6423990 6472147 6478874 6451599 6402401 6342652 6279885 
1982.103 6219177 6162108 6109684 6063414 6024977 5996186 5977239 5966422 
1985.960 5961786 5961518 5965381 5975391 5993297 6018964 6050075 6080954 
1989.818 6104945 6116740 6116035 6104979 6090967 6081357 6081155 6091538 
1993.675 6109717 6129779 6145775 6154042 6152900 6143355 6127897 6108709 
1997.533 6087708 6066337 6045069 6024003 6003375 5982782 5961786 5939347 
2001.390 5915096 5889771 5864682 5842484 5825525 5815854 5813436 5818271 
2005.248 5828010 5841476 5857294 5874859 5892256 5908378 5920672 5927087 
2009.105 5927557 5923594 5918723 5915868 5917246 5922956 5930110 5936223 
2012.962 5939079 5939650 5940724 5947241 5961954 5985940 6016545 6049135 
2016.820 6079072 6104273 6124940 6143927 6164561 6188222 6214304 6241026 
2020.677 6266371 6289970 6313301 6338382 6365448 6392549 6415112 6426781 
2024.535 6424460 6408286 6383403 6357580 6339659 6334885 6344266 6363935 
2028.392 6387841 6410270 6427790 6439627 6447059 6452642 6457753 6464076 
2032.250 6473022 6486441 6507260 6538474 6580353 6631691 6688182 6745153 
2036.107 6798294 6845955 6888167 6927050 6963681 6997419 7025705 7045573 
2039.964 7054598 7052477 7041465 7024795 7006174 6987082 6967419 6946240 
2043.822 6922673 6896684 6870662 6847604 6831043 6824109 6828081 6843127 
2047.679 6867632 6897996 6928127 6949237 6951964 6926848 6869416 6781230 
2051.537 6671796 6556369 6451498 6372072 6325942 6311990 6320361 6337507 
2055.394 6350351 6350956 6337407 6314545 6289129 6266774 6250269 6239076 
2059.251 6231379 6224891 6219345 6215614 6215111 6217396 6221295 6223480 
2063.109 6222135 6216892 6210573 6207548 6212253 6227379 6252522 6284692 
2066.966 6319521 6353141 6382966 6407277 6425032 6434953 6434482 6422409 
2070.824 6398467 6364405 6325169 6286474 6253396 6228421 6211346 6198943 
2074.681 6187382 6173871 6157302 6138583 6119731 6101518 6084112 6066169 
2078.539 6046312 6023970 6000016 5976399 5955471 5938642 5926113 5917111 
2082.396 5910629 5905960 5903609 5904280 5908211 5914290 5920201 5923527 
2086.253 5921545 5913685 5900787 5885069 5868209 5850645 5831166 5808029 
2090.111 5779185 5744903 5707334 5670540 5639993 5619585 5612536 5619551 
2093.968 5640363 5673696 5717037 5767970 5821864 5873818 5917884 5949626 
2097.826 5966590 5970251 5964575 5955437 5948114 5945629 5948215 5954228 
2101.683 5961114 5967161 5972872 5979590 5989400 6003006 6019501 6036972 
2105.541 6052898 6066236 6077056 6087405 6099233 6113884 6131325 6150682 
2109.398 6170443 6190339 6210842 6233328 6258976 6287549 6316966 6343996 
2113.255 6365347 6378830 6384378 6383874 6380746 6378460 6379805 6386698 
2117.113 6399543 6418172 6441813 6468818 6497002 6523674 6545705 6560910 
2120.970 6568647 6569925 6567503 6564778 6564005 6566057 6569891 6573054 
2124.828 6573457 6569925 6562357 6552231 6540559 6527475 6511734 6491318 
2128.685 6464143 6429505 6388749 6344837 6301703 6263211 6232320 6210808 
2132.542 6200120 6201128 6214405 6240152 6276254 6319050 6362926 6402132 
2136.400 6432397 6451969 6462663 6468549 6473963 6482136 6493941 6507899 
2140.257 6521622 6532890 6540627 6544831 6546513 6545807 6542174 6535211 
2144.115 6524515 6510253 6494614 6480286 6469457 6463605 6461923 6462529 
2147.972 6463303 6462058 6457821 6450657 6440670 6427857 6411548 6391641 
2151.830 6367566 6340029 6309570 6275985 6239379 6198574 6155387 6114556 
2155.687 6086968 6088715 6137239 6248051 6426512 6664932 6940382 7221498 
2159.544 7477514 7683359 7827458 7911099 7943257 7937824 7908568 7867201 
2163.402 7823241 7782793 7750242 7726563 7710711 7698536 7684843 7664473 
2167.259 7633785 7592950 7544567 7492549 7440367 7390417 7342191 7294240 
2171.117 7245351 7195086 7146242 7102792 7068676 7047156 7039680 7043957 
2174.974 7057360 7075849 7095282 7111550 7120778 7119565 7104746 7075377 
2178.832 7032238 6980247 6926680 6879145 6845248 6829831 6833231 6852383 
2182.689 6881098 6912506 6940450 6960920 6972267 6976274 6976711 6979068 
2186.546 6989170 7011663 7048705 7099121 7157122 7214862 7263208 7295453 
2190.404 7307179 7299463 7276652 7245351 7212537 7183431 7161299 7146310 
2194.261 7137249 7131691 7126605 7119532 7108181 7091577 7069383 7043182 
2198.119 7015131 6988564 6966172 6949506 6937823 6929541 6921563 6911766 
2201.976 6899310 6884766 6870022 6857870 6849691 6846459 6847705 6852888 
2205.833 6860664 6870258 6880458 6889513 6894967 6894159 6884632 6866319 
2209.691 6840972 6813204 6788331 6771941 6767533 6775879 6794861 6820743 
2213.548 6849219 6876182 6898905 6916176 6927791 6934692 6938396 6940988 
2217.406 6944321 6950011 6958866 6970044 6982166 6993143 7000685 7003716 
2221.263 7002369 6997487 6990247 6981594 6971728 6960348 6947419 6933009 
2225.121 6918936 6906918 6898401 6894058 6893115 6893452 6892846 6889917 
2228.978 6884531 6878438 6873355 6871234 6872749 6877495 6883656 6889345 
2232.835 6893587 6894967 6893755 6889951 6884093 6876957 6869551 6863054 
2236.693 6859587 6860395 6866050 6875711 6887897 6900117 6910654 6919441 
2240.550 6927353 6937117 6950146 6967519 6988227 7009710 7028803 7042812 
2244.408 7050726 7052746 7050456 7045506 7039814 7034393 7030049 7027456 
2248.265 7027187 7029712 7034359 7039814 7044125 7045876 7044058 7039950 
2252.123 7036212 7036279 7043250 7058303 7080294 7105420 7129535 7148095 
2255.980 7158403 7158773 7149543 7131455 7105319 7072515 7034797 6994692 
2259.837 6955903 6922101 6896852 6882309 6878674 6884733 6898535 6917624 
2263.695 6940651 6966408 6994120 7022102 7048234 7069551 7083966 7090196 
2267.552 7088883 7082012 7072784 7063759 7056956 7052813 7050928 7050153 
2271.410 7049816 7049177 7048368 7047392 7046482 7045741 7045910 7047661 
2275.267 7051803 7058370 7066722 7074771 7079958 7079823 7073054 7060559 
2279.125 7045068 7030857 7022001 7021361 7030049 7046819 7069181 7094002 
2282.982 7118724 7140920 7158403 7169518 7172752 7166824 7152171 7130378 
2286.839 7104746 7079452 7058438 7044193 7037457 7037020 7040084 7044327 
2290.697 7047459 7048469 7047156 7044159 7040051 7035706 7031699 7029140 
2294.554 7029140 7032776 7040286 7051231 7063725 7075377 7083460 7085852 
2298.412 7082079 7072515 7059010 7043149 7026951 7011629 6997487 6984961 
2302.269 6973816 6964119 6955466 6947587 6940012 6932538 6924963 6918162 
2306.126 6912877 6910082 6910453 6913887 6919239 6924929 6929407 6931662 
2309.984 6931460 6929575 6926781 6924155 6922067 6920620 6919340 6918263 
2313.841 6917253 6916479 6916344 6916950 6918465 6920586 6923010 6926208 
2317.699 6930215 6935467 6942268 6950685 6960685 6972435 6985903 7001191 
2321.556 7017589 7032810 7043014 7042812 7026850 6991089 6934625 6860260 
2325.414 6774734 6686029 6602590 6530872 6474031 6431657 6400855 6378023 
2329.271 6359967 6344971 6333036 6324900 6321168 6321908 6326244 6333070 
2333.128 6341879 6352637 6366053 6382932 6403511 6427218 6452944 6478907 
2336.986 6504099 6527475 6548901 6568378 6585803 6600639 6612481 6621093 
2340.843 6626711 6630379 6633171 6636199 6639597 6642895 6645519 6647437 
2344.701 6649994 6656218 6670114 6695855 6735999 6791091 6859318 6936309 
2348.558 7017152 7096090 7168474 7230730 7281032 7319276 7346943 7366590 
2352.416 7381385 7394057 7406797 7420785 7436390 7453581 7472626 7493695 
2356.273 7517427 7544196 7574102 7606708 7641440 7677963 7716276 7756920 
2360.130 7801110 7849253 7901078 7954596 8007244 8055611 8097232 8130822 
2363.988 8157190 8178697 8198349 8219317 8243832 8272672 8305296 8340051 
2367.845 8374944 8407306 8435007 8455887 8468691 8473489 8470887 8463556 
2371.703 8454332 8446461 8443150 8446832 8458724 8480078 8511062 8552050 
2375.560 8603148 8664393 8735416 8815479 8903775 8999396 9101500 9209822 
2379.417 9324095 9444019 9568888 9697384 9827749 9958321 10087272 10213378 
2383.275 10335651 10453276 10564787 10668721 10762896 10845372 10914477 
2386.650 10969251 11009623 11036235 11049761 11051359 11042012 11022776 
2390.025 10995011 10960382 10920593 10877308 10831342 10783412 10733076 
2393.401 10680335 10624883 10567334 10508706 10450323 10393476 10339350 
2396.776 10288760 10242756 10202522 10169756 10146555 10135024 10136346 
2400.151 10150693 10177353 10214768 10260872 10313936 10373115 10438104 
2403.526 10509215 10587127 10672626 10766429 10869119 10981213 11102514 
2406.902 11232485 11369977 11513332 11661158 11812201 11966123 12123814 
2410.277 12286129 12453825 12626804 12803333 12980685 13154831 13321836 
2413.652 13478244 13621202 13748884 13859945 13953550 14029550 14087902 
2417.027 14129524 14155881 14168343 14169027 14159236 14140169 14112752 
2420.403 14077943 14036771 13990676 13941267 13889742 13837094 13783804 
2423.778 13729767 13675088 13620586 13567355 13517482 13473322 13437129 
2427.153 13410985 13396598 13395061 13407534 13434942 13477731 13536111 
2430.528 13609679 13697553 13798819 13912698 14038448 14175565 14324027 
2433.904 14482748 14650745 14826282 15008371 15196646 15392039 15596416 
2437.279 15812298 16041076 16283700 16539263 16806790 17084856 17373826 
2440.654 17675136 17991432 18325590 18679684 19053940 19447090 19856100 
2444.029 20278238 20710690 21152026 21601404 22058740 22523574 22995196 
2447.405 23472296 23952580 24433992 24914116 25390694 25862134 26327116 
2450.780 26784808 27234940 27676886 28110090 28532194 28939724 29328566 
2454.155 29693596 30029638 30332186 30597362 30821296 31000220 31129700 
2457.530 31205098 31221974 31177222 31069118 30898384 30666980 30378626 
2460.906 30036740 29644744 29206532 28724830 28203920 27647894 27061544 
2464.281 26450174 25819304 25174072 24520298 23863832 23211118 22569538 
2467.656 21946226 21348344 20781938 20251054 19757852 19302756 18884922 
2471.031 18502826 18154990 17840092 17556746 17303306 17077344 16875540 
2474.406 16694183 16529556 16378550 16238568 16108502 15987376 15874842 
2477.782 15770273 15673013 15581579 15494628 15410338 15327401 15244551 
2481.157 15161201 15077112 14993212 14910562 14830979 14755866 14686594 
2484.532 14623672 14566961 14515670 14469113 14426123 14386254 14348890 
2487.907 14313856 14280845 14249858 14220721 14194017 14170020 14149720 
2491.283 14133563 14121993 14114977 14111827 14112033 14114977 14120282 
2494.658 14127812 14137225 14147632 14157765 14166014 14170772 14170944 
2498.033 14166391 14157902 14146537 14133700 14120316 14106727 14092626 
2501.408 14077977 14062439 14046559 14030816 14016101 14002960 13991565 
2504.784 13981745 13973156 13965217 13957793 13950710 13944073 13937879 
2508.159 13931961 13926520 13921423 13916393 13910919 13904351 13895011 
2511.534 13880916 13860732 13832784 13796870 13753604 13704428 13650845 
2514.909 13594158 13535086 13474073 13411498 13348282 13286032 13226694 
2518.285 13172044 13123001 13079393 13039306 13001101 12962933 12924222 
2521.660 12885856 12849951 12818792 12794427 12777671 12767878 12763613 
2525.035 12762897 12764125 12766275 12769209 12773235 12779139 12787602 
2528.410 12799545 12815175 12834969 12858654 12885481 12914494 12944124 
2531.786 12973618 13001989 13029166 13055695 13082023 13108350 13134783 
2535.161 13160569 13185569 13209274 13232570 13256516 13282821 13312612 
2538.536 13347086 13385903 13428722 13474484 13522609 13572074 13622364 
2541.911 13672489 13721047 13766395 13807268 13842568 13873014 13900314 
2545.287 13926759 13955363 13988418 14026675 14070002 14116757 14164919 
2548.662 14212265 14257185 14298960 14337691 14374061 14409065 14443730 
2552.037 14479013 14514539 14549692 14582928 14612466 14636558 14654652 
2555.412 14666544 14673638 14677717 14680631 14683646 14687073 14690021 
2558.788 14691290 14689439 14683098 14671720 14655269 14634158 14608936 
2562.163 14580255 14548938 14515568 14480829 14445100 14408244 14370123 
2565.538 14329951 14287009 14241162 14193641 14145818 14100430 14059803 
2568.913 14025820 13999162 13979453 13965595 13956287 13950539 13948280 
2572.289 13949854 13955774 13966518 13981882 14001318 14023938 14048954 
2575.664 14075683 14104228 14134316 14166323 14200317 14236403 14274408 
2579.039 14314095 14355225 14397044 14439072 14480521 14521015 14560794 
2582.414 14600952 14642932 14688685 14739756 14796798 14859368 14925718 
2585.790 14993829 15061573 15127063 15189611 15249081 15305676 15359874 
2589.165 15412123 15462386 15510732 15557333 15602323 15646357 15689261 
2592.540 15731210 15771855 15810819 15847795 15882712 15916085 15948841 
2595.915 15982391 16018488 16058438 16103446 16154306 16210744 16272038 
2599.291 16336953 16403943 16471701 16539538 16607592 16676793 16748520 
2602.666 16824286 16904858 16990402 17080480 17174264 17271000 17370238 
2606.041 17472054 17576654 17684038 17793832 17905276 18017128 18128424 
2609.416 18238538 18346846 18453246 18557010 18656960 18751154 18837582 
2612.792 18913578 18977746 19029188 19067510 19093858 19108884 19113628 
2616.167 19109092 19096212 19076236 19050582 19020914 18989032 18956218 
2619.542 18923408 18890806 18858104 18824988 18790942 18755996 18720502 
2622.917 18685426 18652048 18621610 18595674 18574956 18560122 18551234 
2626.292 18547534 18548504 18553066 18560986 18572052 18586922 18606290 
2629.668 18630708 18660278 18694696 18733096 18774646 18818690 18865162 
2633.043 18914580 18967432 19024168 19084650 19148360 19213948 19280344 
2636.418 19346784 19413098 19479560 19547036 19616118 19687256 19760244 
2639.793 19834562 19909378 19983964 20057696 20130330 20201484 20271642 
2643.169 20340526 20408728 20476486 20543944 20611830 20679760 20747876 
2646.544 20816314 20884662 20953502 21023470 21095326 21169872 21248052 
2649.919 21330246 21416180 21505336 21597086 21690806 21786114 21883150 
2653.294 21982020 22083598 22188582 22297776 22411776 22530868 22655266 
2656.670 22785178 22920090 23059412 23202624 23348924 23497512 23647586 
2660.045 23797922 23947782 24096402 24243214 24388428 24532464 24676198 
2663.420 24820854 24967420 25116564 25268182 25422242 25578008 25735234 
2666.795 25893820 26054224 26216694 26382004 26550126 26721202 26894918 
2670.171 27071350 27250216 27431768 27615832 27802586 27990942 28179982 
2673.546 28368220 28554202 28736974 28915678 29089884 29259376 29423794 
2676.921 29582810 29736030 29883592 30026052 30164938 30302376 30441102 
2680.296 30583676 30732804 30890628 31058834 31238744 31431302 31636958 
2683.672 31855830 32087758 32332200 32588460 32856088 33134434 33423372 
2687.047 33722600 34031676 34349824 34676532 35010640 35352044 35700588 
2690.422 36056540 36420428 36792444 37172824 37561056 37956432 38358396 
2693.797 38766816 39181384 39602488 40030100 40464176 40904248 41349696 
2697.173 41799680 42254040 42712240 43174220 43640168 44109440 44581536 
2700.548 45055728 45530912 46005920 46479788 46951400 47419284 47881932 
2703.923 48337444 48783576 49217992 49638132 50040832 50422808 50780428 
2707.298 51109788 51407544 51670644 51897388 52087044 52239744 52356204 
2710.674 52437356 52483948 52496696 52476464 52424388 52341248 52228308 
2714.049 52086404 51915536 51715396 51485204 51223888 50930992 50606604 
2717.424 50251808 49868496 49459424 49027952 48577792 48112812 47637308 
2720.799 47155048 46670076 46186088 45706836 45235536 44775624 44330216 
2724.175 43902492 43495000 43109848 42748764 42412272 42100684 41814052 
2727.550 41552404 41315656 41104024 40917904 40757484 40622336 40512328 
2730.925 40426420 40364056 40324352 40306976 40311480 40337916 40385768 
2734.300 40454500 40542920 40649444 40772188 40908872 41057000 41214360 
2737.676 41378300 41546316 41716328 41885748 42052388 42214124 42368764 
2741.051 42514724 42650348 42774648 42887464 42989624 43082404 43167884 
2744.426 43248040 43324804 43399676 43473428 43546864 43620424 43694428 
2747.801 43769368 43845708 43923460 44002620 44082704 44163616 44245420 
2751.177 44328896 44415248 44506532 44604892 44712928 44832672 44966532 
2754.552 45116304 45283488 45469360 45674036 45897156 46137336 46392432 
2757.927 46660116 46937744 47222532 47511792 47802212 48090084 48371332 
2761.302 48640864 48893512 49125004 49331044 49508436 49655072 49769504 
2764.677 49850624 49897936 49911728 49892880 49843376 49765708 49663616 
2768.053 49540488 49400576 49247680 49085452 48917764 48748024 48579460 
2771.428 48415188 48257604 48108368 47968660 47839128 47719732 47610132 
2774.803 47509872 47418284 47333884 47255152 47179832 47105340 47028492 
2778.178 46945608 46852476 46744864 46618428 46469240 46294668 46093564 
2781.554 45866516 45616032 45346052 45061348 44766772 44467292 44166808 
2784.929 43868804 43575840 43290028 43012560 42744376 42485384 42235380 
2788.304 41993912 41760388 41534720 41317004 41107812 40907668 40717164 
2791.679 40536588 40366132 40205332 40053900 39910688 39774792 39644704 
2795.055 39518868 39395312 39272304 39148240 39021860 38891636 38756596 
2798.430 38615592 38467316 38310440 38144508 37969124 37784740 37592052 
2801.805 37392228 37185892 36972908 36752700 36524356 36287056 36040884 
2805.180 35786896 35527524 35265896 35005324 34748928 34499572 34259212 
2808.556 34029560 33811812 33607344 33416968 33241480 33080940 32935008 
2811.931 32802630 32682724 32574244 32476292 32388888 32312106 32246112 
2815.306 32191370 32147948 32116122 32095998 32088046 32092862 32111912 
2818.681 32146484 32197938 32267168 32354794 32460508 32583672 32723378 
2822.057 32878424 33047438 33229068 33422548 33626284 33839104 34059160 
2825.432 34283880 34510512 34735360 34954792 35165068 35362720 35544496 
2828.807 35707640 35849796 35968636 36062120 36128588 36167048 36176948 
2832.182 36159160 36115520 36048512 35961904 35859512 35745520 35623936 
2835.558 35498144 35370520 35242536 35114628 34986072 34855796 34722472 
2838.933 34585676 34444972 34300948 34154964 34008168 33861812 33716836 
2842.308 33573624 33432606 33293992 33158180 33025556 32896332 32771044 
2845.683 32650146 32534282 32424446 32321636 32226664 32140382 32062824 
2849.059 31993446 31931102 31874512 31822600 31774576 31730872 31692450 
2852.434 31660478 31636316 31621062 31615216 31619030 31632502 31655702 
2855.809 31688206 31729270 31777964 31832260 31889844 31948294 32004860 
2859.184 32057188 32103456 32141526 32169960 32187230 32191906 32183486 
2862.560 32162004 32128538 32085620 32035890 31982604 31928678 31876330 
2865.935 31827054 31782060 31742136 31708096 31680792 31661656 31651746 
2869.310 31652354 31664290 31688098 31723708 31770192 31826236 31890094 
2872.685 31959634 32032858 32108306 32185626 32265280 32348980 32438728 
2876.061 32536674 32644358 32762538 32890722 33027950 33172630 33323654 
2879.436 33479880 33641000 33806760 33977424 34152420 34331788 34514064 
2882.811 34698000 34882112 35064660 35244336 35419948 35590996 35756928 
2886.186 35917272 36071592 36219160 36359068 36490624 36613496 36727712 
2889.562 36834168 36933976 37028940 37120564 37210508 37300620 37392160 
2892.937 37487184 37587108 37694312 37809936 37935280 38070788 38216212 
2896.312 38370268 38530928 38695272 38858444 39015300 39158832 39281372 
2899.687 39375868 39436640 39460116 39446036 39397420 39318772 39216344 
2903.063 39096320 38964228 38824496 38680276 38534332 38388580 38244832 
2906.438 38104496 37968728 37838096 37712816 37592884 37478296 37368864 
2909.813 37264952 37166220 37072744 36983368 36896968 36812136 36727388 
2913.188 36641508 36553516 36462696 36368256 36269696 36166148 36057120 
2916.563 35942108 35821260 35695156 35564528 35430912 35295940 35161296 
2919.939 35029100 34901540 34780768 34668928 34567164 34476076 34395192 
2923.314 34323288 34258388 34198196 34140268 34082132 34021460 33955816 
2926.689 33883020 33801388 33709852 33608744 33499706 33385478 33270132 
2930.064 33158358 33054770 32963782 32889400 32834362 32801236 32791622 
2933.440 32806702 32847154 32913026 33003822 33119130 33257794 33418718 
2936.815 33600184 33800348 34016836 34246308 34485940 34731736 34980436 
2940.190 35229024 35474772 35715916 35950316 36176052 36390412 36589704 
2943.565 36768928 36922036 37041964 37121248 37153296 37133196 37058344 
2946.941 36930264 36753856 36537476 36291700 36028428 35759336 35493904 
2950.316 35239160 34999432 34775524 34566336 34369260 34181168 33999208 
2953.691 33821732 33647764 33477124 33309806 33146094 32985586 32827180 
2957.066 32669720 32512140 32353904 32195084 32036782 31880468 31727486 
2960.442 31579226 31436432 31299312 31167824 31041678 30920906 30805752 
2963.817 30696566 30594162 30499000 30411818 30333324 30264292 30205040 
2967.192 30156060 30116886 30086808 30063868 30045758 30029426 30012170 
2970.567 29990726 29963068 29927002 29881390 29825774 29760692 29687494 
2973.943 29609128 29529040 29451096 29378624 29313642 29255584 29201432 
2977.318 29145478 29080000 28995900 28884442 28738000 28551160 28321710 
2980.693 28050354 27741832 27403214 27043844 26674726 26306346 25948654 
2984.068 25610060 25296348 25011888 24759396 24540950 24358708 24214554 
2987.444 24110376 24046320 24019776 24024258 24047264 24072410 24079974 
2990.819 24048104 23959198 23800442 23567750 23266172 22909368 22517468 
2994.194 22111662 21712820 21337172 20993876 20686816 20414248 20171598 
2997.569 19952984 19753552 19569668 19399030 19240166 19091850 18952826 
3000.945 18821458 18696356 18576098 18459884 18347122 18237778 18131878 
3004.320 18029494 17930516 17835258 17743676 17656154 17573134 17494924 
3007.695 17421694 17353446 17290066 17231282 17176850 17126524 17079860 
3011.070 17036404 16995536 16956258 16917878 16879880 16841888 16804276 
3014.446 16767461 16732438 16700311 16672317 16649421 16632380 16621880 
3017.821 16617576 16619023 16624944 16633792 16643500 16652212 16658029 
3021.196 16659372 16655033 16643878 16625151 16598435 16563943 16522432 
3024.571 16475832 16426517 16377380 16331140 16289651 16254013 16224295 
3027.947 16199669 16178552 16159499 16140928 16121361 16099939 16075561 
3031.322 16047677 16016012 15980672 15942002 15900515 15857281 15812848 
3034.697 15768385 15724750 15682839 15643919 15608815 15578111 15552147 
3038.072 15530684 15513136 15499057 15488070 15480137 15475914 15475811 
3041.448 15480310 15489065 15501290 15515711 15530855 15545828 15559840 
3044.823 15572959 15585392 15597103 15608094 15617643 15625680 15631964 
3048.198 15637014 15641754 15647251 15654499 15663533 15673392 15682735 
3051.573 15689399 15691392 15687682 15677925 15662674 15643129 15620699 
3054.948 15596931 15572959 15549468 15526563 15504311 15482370 15460601 
3058.324 15439279 15418989 15400347 15384316 15371442 15361831 15354897 
3061.699 15350022 15345766 15341475 15336876 15331761 15327024 15323077 
3065.074 15320434 15319336 15319542 15320743 15322597 15325205 15328329 
3068.449 15332173 15336670 15341681 15347345 15353627 15360972 15370000 
3071.825 15381260 15395129 15411230 15429151 15447794 15466334 15484327 
3075.200 15502045 15520244 15539818 15561351 15584979 15610051 15635813 
3078.575 15660888 15684968 15707470 15728323 15747907 15766116 15782919 
3081.950 15798209 15812023 15824428 15835803 15846834 15858037 15869962 
3085.326 15882609 15895944 15909795 15924059 15938770 15953997 15970085 
3088.701 15987238 16005699 16025707 16047504 16071331 16097428 16125523 
3092.076 16155029 16185258 16215352 16244829 16273964 16303135 16333755 
3095.451 16366921 16403427 16443035 16485054 16527697 16569244 16608695 
3098.827 16644843 16677827 16708162 16736502 16763672 16790398 16817434 
3102.202 16845264 16874404 16905270 16938272 16973588 17011180 17050704 
3105.577 17091750 17133728 17175748 17217010 17256864 17294342 17329306 
3108.952 17362102 17392966 17423316 17453980 17486162 17520072 17555848 
3112.328 17592938 17630618 17668750 17706920 17745266 17784168 17824004 
3115.703 17864742 17906656 17949338 17992678 18036332 18080094 18123622 
3119.078 18166564 18208440 18249040 18288470 18326764 18364544 18402566 
3122.453 18440940 18479834 18518800 18557322 18595050 18631850 18668132 
3125.829 18704382 18741502 18779662 18818968 18859382 18900496 18942340 
3129.204 18984878 19028702 19073882 19120658 19168408 19216302 19263372 
3132.579 19308818 19352468 19394458 19435378 19475990 19516606 19557850 
3135.954 19599306 19641354 19683998 19727512 19772242 19818574 19866402 
3139.330 19915934 19966688 20018314 20070536 20123146 20175728 20227864 
3142.705 20279070 20329068 20377334 20424424 20470686 20517024 20564440 
3146.080 20613150 20663638 20715624 20768766 20823024 20878820 20936640 
3149.455 20997352 21061728 21129728 21200594 21273280 21345976 21417086 
3152.831 21485318 21550008 21611086 21669036 21724906 21779878 21835378 
3156.206 21892872 21952848 22016108 22081784 22149318 22217454 22285428 
3159.581 22352890 22420708 22490110 22562558 22639380 22720654 22805468 
3162.956 22891660 22976820 23058888 23136742 23210732 23282112 23353050 
3166.332 23425746 23501358 23580274 23662000 23745074 23827882 23909238 
3169.707 23988330 24064776 24138678 24209790 24277516 24341432 24400554 
3173.082 24454394 24502944 24546908 24586916 24624364 24660206 24694926 
3176.457 24728738 24761322 24792614 24822538 24851834 24881272 24912080 
3179.833 24945664 24982476 25022804 25066330 25112106 25159186 25206552 
3183.208 25253010 25298278 25342218 25385390 25428388 25472552 25518584 
3186.583 25567252 25619268 25674488 25732528 25793246 25855874 25920164 
3189.958 25985836 26052324 26119212 26186214 26252806 26319090 26385208 
3193.333 26452182 26520468 26591162 26663982 26738362 26813214 26887232 
3196.709 26959150 27028750 27096106 27161884 27227142 27292518 27357796 
3200.084 27422732 27486618 27548678 27608946 27667668 27725586 27783478 
3203.459 27842400 27903026 27965888 28031550 28100370 28171992 28245996 
3206.834 28321426 28396906 28471444 28544190 28615176 28685148 28755240 
3210.210 28826510 28899316 28973124 29046592 29118370 29187466 29254132 
3213.585 29319564 29385466 29454004 29526240 29602566 29681816 29762394 
3216.960 29842384 29919724 29993602 30063868 30131092 30196408 30261236 
3220.335 30326998 30395114 30466442 30541514 30620438 30702682 30787076 
3223.711 30872912 30958906 31044668 31129626 31213820 31296712 31378232 
3227.086 31458448 31537182 31614826 31692340 31770122 31849340 31930390 
3230.461 32013632 32098710 32185446 32273058 32361400 32449868 32538350 
3233.836 32626532 32714448 32801986 32889542 32977794 33067818 33160508 
3237.212 33256364 33354956 33455472 33556692 33657648 33757588 33856764 
3240.587 33956176 34056436 34158656 34262728 34368188 34474460 34580796 
3243.962 34687088 34793364 34900464 35008628 35118436 35229852 35342664 
3247.337 35456908 35572728 35690444 35810320 35932424 36056148 36180696 
3250.713 36304960 36428316 36550128 36670492 36789884 36908868 37028108 
3254.088 37148136 37269392 37392412 37517924 37646180 37777044 37909640 
3257.463 38042392 38173740 38301936 38426084 38546208 38662780 38776848 
3260.838 38888844 38998696 39106112 39210396 39311588 39410260 39507504 
3264.214 39604664 39702352 39800716 39898448 39993732 40085040 40171424 
3267.589 40253100 40331008 40406676 40481156 40555180 40628524 40700856 
3270.964 40771388 40839888 40905596 40968620 41028596 41084644 41136584 
3274.339 41184016 41226824 41266136 41303264 41339780 41376880 41415516 
3277.715 41455392 41496076 41536944 41577416 41617344 41657024 41696704 
3281.090 41736568 41776588 41816532 41856336 41895708 41934496 41972856 
3284.465 42010412 42047020 42081956 42114412 42143656 42169396 42191924 
3287.840 42212004 42230852 42250024 42270876 42294180 42320364 42349368 
3291.216 42380344 42412708 42445664 42478584 42511396 42544212 42577068 
3294.591 42610364 42643772 42677404 42710776 42743752 42776004 42807556 
3297.966 42839080 42870932 42903736 42938048 42973820 43010880 43048488 
3301.341 43086176 43123020 43158812 43193284 43227216 43261364 43297020 
3304.717 43335312 43377420 43423296 43472916 43525472 43580088 43636324 
3308.092 43694248 43754268 43817268 43883944 43954256 44027848 44103612 
3311.467 44180748 44258596 44337664 44419024 44504036 44594096 44689828 
3314.842 44791200 44897668 45008132 45122040 45238888 45358664 45480760 
3318.218 45604988 45730324 45856092 45982016 46108152 46235288 46364452 
3321.593 46496272 46630640 46766708 46902636 47036176 47165832 47290728 
3324.968 47410932 47526840 47639156 47748024 47853336 47955008 48052628 
3328.343 48146016 48235388 48320520 48401260 48477048 48547296 48611144 
3331.719 48668700 48719704 48764040 48801260 48829956 48848236 48854020 
3335.094 48846196 48824952 48792400 48751804 48706768 48659880 48612292 
3338.469 48562752 48509212 48448748 48379036 48299076 48208656 48108740 
3341.844 48000448 47884632 47761712 47632280 47496640 47355204 47208788 
3345.219 47057664 46902156 46741692 46576008 46404196 46226552 46043860 
3348.595 45857272 45668332 45478372 45288196 45098256 44908652 44719352 
3351.970 44530360 44341848 44153968 43966940 43780692 43595036 43409932 
3355.345 43225420 43041904 42859816 42679960 42502848 42328768 42157928 
3358.720 41990592 41826204 41664904 41506428 41350456 41197092 41046332 
3362.096 40898936 40755408 40616480 40482028 40351368 40223256 40095688 
3365.471 39967284 39837720 39707544 39578892 39454420 39336216 39225520 
3368.846 39121920 39023492 38927624 38832284 38735624 38637392 38537952 
3372.221 38437700 38337148 38236184 38133940 38030132 37924324 37816948 
3375.597 37708732 37600472 37492780 37385620 37278776 37171524 37063396 
3378.972 36954432 36844592 36733988 36622184 36508320 36391492 36270844 
3382.347 36146160 36018092 35888300 35758976 35631996 35508968 35390364 
3385.722 35275704 35163452 35051800 34939244 34824600 34707688 34589228 
3389.098 34470336 34352800 34237952 34126756 34019456 33915332 33813028 
3392.473 33711212 33608564 33504326 33398896 33292458 33185862 33079796 
3395.848 32974400 32869850 32766502 32664400 32563672 32464720 32367468 
3399.223 32271344 32175634 32079484 31982030 31883534 31784128 31684786 
3402.599 31586640 31489760 31393834 31297498 31199224 31097664 30992034 
3405.974 30882908 30770824 30657416 30544144 30431932 30321634 30213174 
3409.349 30106160 29999956 29893564 29785886 29675820 29562416 29445032 
3412.724 29324136 29200438 29075960 28952512 28832460 28716618 28606046 
3416.100 28500490 28398710 28299252 28200346 28100228 27997234 27890660 
3419.475 27780192 27666398 27550512 27433920 27318274 27204566 27093390 
3422.850 26984500 26877540 26771416 26666024 26561292 26457852 26356056 
3426.225 26256818 26159926 26065272 25971904 25879086 25785546 25690342 
3429.601 25593118 25493248 25391046 25287392 25183168 25080230 24980194 
3432.976 24884396 24793842 24708464 24627312 24549048 24471990 24394702 
3436.351 24316340 24236766 24156228 24075176 23994456 23914102 23834358 
3439.726 23754698 23674352 23592412 23508076 23420746 23330220 23237228 
3443.102 23142334 23046728 22950970 22855476 22760178 22664620 22568386 
3446.477 22471512 22374762 22279116 22186070 22096044 22008928 21923154 
3449.852 21837502 21750126 21660086 21567486 21473272 21379008 21285632 
3453.227 21193808 21103154 21012758 20921654 20829038 20735260 20640738 
3456.603 20546482 20453390 20361882 20272162 20183990 20096700 20009778 
3459.978 19922422 19833904 19743356 19650542 19555390 19458802 19362132 
3463.353 19267010 19174398 19084856 18998134 18913232 18829174 18745480 
3466.728 18662078 18580110 18500336 18423514 18349472 18277068 18204190 
3470.104 18129114 18050424 17967536 17880694 17790726 17698050 17603704 
3473.479 17508034 17411970 17316238 17221974 17130730 17043366 16960668 
3476.854 16882602 16808548 16737569 16668599 16600536 16532792 16464716 
3480.229 16395686 16324878 16252190 16177727 16101968 16026223 15951317 
3483.604 15877660 15805116 15732996 15659822 15584910 15508019 15429769 
3486.980 15351533 15274820 15200661 15129944 15061779 14995475 14930142 
3490.355 14864854 14799506 14734751 14670657 14607703 14545854 14484324 
3493.730 14422184 14358581 14292077 14222330 14149446 14074177 13998512 
3497.105 13924091 13852967 13786471 13725287 13668831 13615766 13564621 
3500.481 13513893 13461462 13407192 13350537 13291430 13230213 13167501 
3503.856 13103809 13040604 12979422 12922105 12869882 12823672 12782449 
3507.231 12744812 12708680 12672175 12633695 12593308 12551118 12508317 
3510.606 12465486 12423036 12380794 12338896 12297582 12257704 12220794 
3513.982 12187738 12158978 12134172 12111480 12089232 12065588 12039937 
3517.357 12012209 11983256 11953692 11924095 11893854 11862288 11827795 
3520.732 11789832 11747821 11702343 11654215 11604118 11552904 11500845 
3524.107 11447738 11393073 11336374 11276894 11213512 11145754 11072772 
3527.483 10994772 10912506 10827368 10741193 10655681 10572155 10491292 
3530.858 10413567 10339316 10268574 10201471 10137567 10076352 10015892 
3534.233 9954627 9890319 9821749 9748516 9671499 9592531 9514052 9437619 
3538.091 9364720 9296303 9232701 9174219 9121227 9073485 9030282 8989890 
3541.948 8950314 8908780 8863598 8813079 8756715 8694477 8627010 8554416 
3545.805 8477340 8396800 8314854 8234884 8160735 8095950 8042110 7998199 
3549.663 7960974 7925272 7885523 7838422 7782523 7719716 7652804 7586038 
3553.520 7522518 7463558 7409190 7358940 7311324 7266106 7223149 7181915 
3557.378 7142032 7102624 7062950 7022674 6982334 6943412 6907658 6876755 
3561.235 6851273 6830909 6814752 6801256 6788870 6775778 6759388 6736336 
3565.093 6702382 6653223 6585770 6500230 6400888 6296156 6195818 6108675 
3568.950 6039827 5990038 5955807 5931622 5911703 5891114 5866765 5837782 
3572.807 5804302 5767869 5729425 5690447 5651373 5612905 5575482 5538901 
3576.665 5503430 5469036 5435047 5401363 5367849 5334573 5301433 5268798 
3580.522 5236636 5205550 5176645 5151497 5132050 5120383 5116963 5120483 
3584.380 5127557 5132318 5127423 5106335 5064798 5002149 4922350 4834056 
3588.237 4747354 4671152 4611707 4570720 4546980 4536165 4532516 4531009 
3592.094 4526389 4514771 4494047 4463616 4424618 4379297 4331003 4282748 
3595.952 4237442 4197159 4162835 4134835 4112491 4093592 4076133 4057169 
3599.809 4034561 4006837 3973999 3937386 3900340 3866240 3838460 3819540 
3603.667 3810749 3811518 3820008 3832777 3845915 3854038 3853002 3838861 
3607.524 3810749 3770473 3723148 3675562 3634128 3602321 3580271 3564369 
3611.382 3549436 3530562 3505643 3476316 3447660 3425751 3415465 3417970 
3615.239 3430360 3445923 3456310 3454206 3434201 3394861 3338161 3269651 
3619.096 3196879 3127056 3066688 3019440 2986410 2966659 2957786 2957218 
3622.954 2962890 2973866 2991247 3016738 3051772 3096187 3145546 3190971 
3626.811 3219110 3214904 3166672 3071493 2941172 2799152 2673981 2585909 
3630.669 2541213 2533681 2549512 2573543 2592475 2599342 2592309 2574743 
3634.526 2552478 2530681 2512218 2496822 2482226 2465531 2445304 2421914 
3638.384 2397358 2374969 2357645 2346851 2343387 2346319 2354713 2367906 
3642.241 2385630 2408586 2437740 2473528 2515384 2562277 2610908 2657245 
3646.098 2695785 2720191 2724758 2704520 2657478 2584242 2490057 2383698 
3649.956 2276399 2181248 2109157 2067507 2058019 2077262 2117215 2166729 
3653.813 2213651 2246956 2257314 2241160 2200763 2145584 2087283 2037612 
3657.671 2003491 1985915 1981256 1983452 1986981 1987846 1984218 1976795 
3661.528 1967908 1960586 1957424 1960919 1971936 1991275 2018570 2053525 
3665.385 2095473 2142720 2193103 2242926 2286158 2316137 2325265 2308542 
3669.243 2265940 2206457 2147482 2109291 2109723 2157505 2249154 2372537 
3673.100 2507953 2634676 2729927 2776343 2765705 2704187 2609242 2502021 
3676.958 2397991 2302813 2214750 2130034 2046766 1967043 1896153 1840414 
3680.815 1802749 1782553 1776099 1778328 1786013 1799422 1821348 1855188 
3684.673 1902143 1959088 2018104 2068639 2098836 2100135 2070170 2013743 
3688.530 1941914 1867600 1801418 1748020 1708034 1679261 1660169 1650856 
3692.387 1652087 1663728 1684018 1708500 1731819 1749051 1757102 1756570 
3696.245 1751446 1747687 1750515 1762891 1783851 1808970 1831363 1844407 
3700.102 1843542 1827237 1798590 1763523 1730122 1705073 1693032 1695028 
3703.960 1709697 1734314 1765386 1800686 1838650 1878183 1918850 1959587 
3707.817 1998298 2031886 2055988 2065576 2056787 2026992 1977228 1911961 
3711.675 1840048 1771707 1717082 1682887 1671212 1680259 1704308 1736543 
3715.532 1770276 1799921 1822413 1837186 1845805 1851095 1856187 1863008 
3719.389 1872392 1882808 1892659 1899714 1903108 1903308 1902210 1901710 
3723.247 1903674 1907967 1912560 1914290 1910097 1898382 1880712 1861677 
3727.104 1848600 1848134 1864772 1898582 1945808 1998731 2048298 2087649 
3730.962 2112754 2125173 2130467 2136228 2147349 2163499 2177285 2178218 
3734.819 2157105 2110389 2042539 1966777 1899281 1852426 1832029 1837486 
3738.677 1863574 1905870 1961518 2030121 2111555 2202761 2295485 2375502 
3742.534 2423180 2420481 2357246 2242493 2105162 1988179 1925639 1928601 
3746.391 1986715 2076363 2171957 2250486 2296151 2301880 2269071 2205958 
3750.249 2124174 2035015 1947106 1867467 1803447 1761959 1748319 1763656 
3754.106 1803813 1860280 1921945 1979425 2025095 2055422 2070570 2072834 
3757.964 2064577 2047599 2022698 1991674 1958156 1928901 1910563 1908500 
3761.821 1923476 1951033 1982687 2009117 2022731 2020967 2006820 1987780 
3765.678 1972834 1968341 1975065 1988079 1999297 2000695 1986515 1956525 
3769.536 1914823 1869863 1830598 1803813 1793000 1797592 1814527 1839216 
3773.393 1867634 1895953 1921978 1945309 1965911 1984318 2000429 2012745 
3777.251 2018504 2014709 1998864 1971403 1936023 1899814 1870828 1855122 
3781.108 1854889 1867401 1887034 1906370 1919648 1923875 1919549 1909465 
3784.966 1898183 1889198 1884272 1883274 1885204 1888599 1893158 1898782 
3788.823 1905904 1914457 1924308 1934891 1946773 1961451 1980889 2007152 
3792.680 2040175 2077561 2114185 2143420 2159503 2159536 2145751 2125473 
3796.538 2109790 2108458 2127370 2164465 2211886 2255582 2279763 2271303 
3800.395 2223609 2141222 2040708 1947738 1886668 1870396 1898516 1958056 
3804.253 2030754 2095074 2133197 2134329 2097205 2031753 1956592 1892525 
3808.110 1853691 1844573 1860679 1893158 1933760 1977228 2022731 2072201 
3811.968 2127837 2189007 2250719 2303080 2335292 2336058 2301547 2237397 
3815.825 2160768 2095207 2060849 2068006 2113719 2183612 2256614 2311407 
3819.682 2329096 2299249 2224142 2120079 2014210 1931463 1888000 1885504 
3823.540 1914956 1960952 2008085 2045468 2067207 2074332 2073067 2072101 
3827.397 2078760 2096372 2123874 2156506 2188508 2214916 2233034 2243292 
3831.255 2248921 2253750 2262243 2277398 2299749 2328096 2358611 2386463 
3835.112 2405421 2408986 2392394 2353814 2295918 2226473 2156406 2096938 
3838.969 2055322 2034083 2029955 2037146 2048664 2058951 2065277 2066375 
3842.827 2063778 2059051 2055023 2053857 2057586 2068306 2087183 2114918 
3846.684 2151278 2195901 2247722 2306511 2372171 2444671 2522650 2602308 
3850.542 2674548 2725959 2739563 2697585 2589842 2422480 2222243 2029289 
3854.399 1880578 1796194 1774701 1800985 1855388 1921878 1988678 2049696 
3858.257 2102798 2148415 2187708 2221377 2249687 2272702 2290022 2301314 
3862.114 2305511 2301014 2286292 2260878 2227638 2193436 2168827 2163899 
3865.971 2185177 2231768 2294819 2358645 2406420 2422713 2399923 2341921 
3869.829 2264908 2191638 2140923 2121177 2128270 2150080 2171391 2180582 
3873.686 2173656 2154175 2132432 2120245 2127037 2155207 2201362 2256581 
3877.544 2310674 2353081 2375569 2373936 2349850 2310674 2267439 2233866 
3881.401 2220545 2231635 2264641 2309875 2354381 2383131 2385164 2356279 
3885.259 2302680 2239795 2187109 2161668 2170292 2209321 2266606 2326364 
3889.116 2373603 2396458 2390261 2357345 2307210 2252551 2205858 2175687 
3892.973 2165197 2173289 2196567 2231069 2273535 2320668 2370105 2418715 
3896.831 2463231 2500254 2527082 2541880 2544846 2538347 2525915 2510985 
3900.688 2496455 2482426 2467497 2448303 2421813 2385963 2342188 2293653 
3904.546 2246423 2207057 2180416 2168927 2172324 2188041 2211686 2239162 
3908.403 2266573 2290622 2309475 2322100 2328796 2331061 2331128 2332094 
3912.260 2336991 2347851 2365174 2387529 2411918 2433908 2449603 2455934 
3916.118 2451902 2439240 2420614 2400023 2380599 2364608 2352848 2346385 
3919.975 2345552 2350849 2362343 2379000 2398357 2416782 2429943 2434642 
3923.833 2429310 2415516 2396791 2378534 2365641 2361110 2366107 2378667 
3927.690 2395958 2414783 2432043 2445604 2453601 2454901 2448436 2434442 
3931.548 2414083 2389961 2366240 2347185 2336424 2335292 2342921 2356246 
3935.405 2370938 2383265 2390828 2393360 2392260 2390461 2390628 2393959 
3939.262 2400423 2408219 2414517 2417049 2414050 2405754 2394059 2382199 
3943.120 2373470 2371204 2376935 2390328 2408986 2429577 2448003 2460466 
3946.977 2464431 2459266 2446137 2427644 2407153 2388062 2372504 2361576 
3950.835 2354814 2351815 2351049 2351848 2353381 2355313 2357279 2359044 
3954.692 2360277 2360877 2360643 2359811 2358611 2357912 2358245 2359977 
3958.550 2363442 2368139 2373703 2379300 2383831 2387029 2388329 2388062 
3962.407 2387163 2386696 2388062 2392227 2399657 2409685 2421614 2433908 
3966.264 2445238 2454668 2461565 2465597 2467030 2466130 2463165 2458766 
3970.122 2453734 2448736 2444771 2442305 2441606 2442605 2444738 2447204 
3973.979 2449769 2452402 2455601 2459633 2464964 2471296 2478393 2485158 
3977.837 2491290 2496722 2501354 2505820 2510252 2514518 2517950 2519817 
3981.694 2519350 2516651 2512685 2508519 2505720 2505286 2506753 2509619 
3985.552 2512351 2513451 2512285 2508852 2503720 2497955 2493123 2489724 
3989.409 2488824 2490490 2494789 2501321 2509419 2517950 2525682 2530915 
3993.266 2532681 2530215 2523683 2513951 2502587 2490990 2480360 2471262 
3997.124 2464231 2458933 2455601 2453801 2453568 2455134 2457933 2462132 
##END=
