
##TITLE=mdmaHCL00386_6
##JCAMP-DX=5.01  $$ Nicolet v. 1
##DATATYPE=INFRARED SPECTRUM
##ORIGIN=UniL
##OWNER=Nicolet
##LONGDATE=2011/08/23
##TIME=17:14:10
##SPECTROMETER/DATA SYSTEM=Nicolet iS5
##DATA PROCESSING=
Ratio against background
%Transmittance->Absorbance
Truncated
ElementMultiply or ElementDivide
##COMMENTS=
Number of sample scans: 32
Collection length: 51.24 sec
Sample gain: 2.0
Background collected on: Mar Aout 23 17:12:28 2011 (GMT+02:00);
Number of background scans: 32
Background gain: 2.0
Sample spacing:  1.000
Number of scan points: 12415
Resolution points: 8192
Number of FFT points: 65536
Apodization: N-B fort;
Phase correction: Mertz;
Laser frequency: 15798.0 cm-1
Number of rejected sample scans: 0
Number of rejected background scans: 0
Bench serial number: ASB1000141;
##RESOLUTION=4.000
##XUNITS=1/CM
##YUNITS=ABSORBANCE
##FIRSTX=649.893372
##LASTX=4000.122314
##FIRSTY=0.089190
##MAXX=4000.122314
##MINX=649.893372
##MAXY=0.215294
##MINY=0.002325
##XFACTOR=1.000000
##YFACTOR=1.000000E-009
##NPOINTS=6950
##DELTAX=0.482117
##ZPD=6100
##XYDATA=(X++(Y..Y))
649.893 89190048 89035912 88960104 88978928 89087200 89265128 89491896 
653.268 89756840 90061888 90415792 90824712 91280688 91762616 92244336 
656.643 92705344 93138720 93552672 93961096 94372544 94784696 95182240 
660.018 95545712 95863328 96134416 96370800 96590304 96810248 97040000 
663.393 97283432 97540056 97806096 98075080 98328064 98525024 98598568 
666.767 98454608 98012704 97267880 96334608 95393056 94592720 93978248 
670.142 93504712 93084568 92629504 92079528 91409744 90634792 89791552 
673.517 88925096 88063080 87207672 86344328 85456272 84538712 83607264 
676.892 82690912 81817688 81005352 80254272 79553192 78889448 78259792 
680.267 77671040 77137968 76672312 76275392 75936176 75638000 75363448 
683.642 75103400 74859888 74640864 74454120 74300952 74174256 74061856 
687.016 73954288 73846808 73742664 73648280 73567576 73496896 73425784 
690.391 73341232 73235056 73108784 72973576 72844248 72733408 72643896 
693.766 72568744 72494784 72410216 72310992 72203496 72100920 72015848 
697.141 71955536 71918664 71896616 71879176 71859280 71835864 71811696 
700.516 71790472 71771904 71750992 71721136 71677208 71618896 71551816 
703.890 71483296 71417480 71352416 71278696 71183288 71057880 70901584 
707.265 70724080 70541664 70371680 70225400 70105064 70004496 69913600 
710.640 69824528 69735384 69650304 69577768 69525072 69493456 69474912 
714.015 69451312 69396848 69281784 69075384 68754440 68306256 67735048 
717.390 67061996 66328256 65589980 64904624 64330032 63909180 63662692 
720.765 63589304 63663536 63839668 64052472 64228296 64291492 64171904 
724.139 63822588 63229152 62417000 61446976 60404548 59382352 58451904 
727.514 57656116 57003140 56473884 56034264 55650524 55300164 54972992 
730.889 54668120 54388360 54134192 53902412 53688980 53490756 53308284 
734.264 53145060 53003680 52882480 52774940 52670752 52560192 52438856 
737.639 52308472 52175472 52046848 51926216 51811704 51697668 51578812 
741.013 51453796 51327508 51208416 51104456 51019672 50951704 50894072 
744.388 50839236 50783364 50727468 50675636 50631772 50594952 50559328 
747.763 50516220 50458648 50384780 50300432 50215392 50139556 50077644 
751.138 50027860 49982984 49936108 49883960 49829624 49780240 49743380 
754.513 49722500 49715368 49715664 49716592 49715216 49713544 49716108 
757.888 49727068 49745908 49767680 49785444 49795400 49799784 49808444 
761.262 49834828 49888940 49974880 50088168 50220228 50363752 50518496 
764.637 50691832 50897796 51150640 51458684 51824468 52245312 52716200 
768.012 53233744 53795332 54397900 55038092 55717008 56449016 57276236 
771.387 58269072 59518528 61111704 63083956 65380128 67818664 70120560 
774.762 71926056 72881904 72754912 71476344 69184168 66166236 62812508 
778.136 59504468 56527812 54063520 52161908 50778304 49810452 49145112 
781.511 48687344 48365408 48137388 47979648 47878120 47826256 47823076 
784.886 47874644 47990976 48184628 48464680 48834072 49290732 49831260 
788.261 50455780 51172144 51995792 52945508 54041344 55300356 56736600 
791.636 58365176 60204224 62274524 64596964 67181576 70018240 73063032 
795.010 76238384 79428848 82479560 85223016 87476208 89059304 89831400 
798.385 89697360 88636280 86706872 84047488 80856120 77347760 73749736 
801.760 70260104 67024604 64144900 61663984 59578840 57851784 56428412 
805.135 55253804 54281456 53483976 52852020 52388312 52097276 51975324 
808.510 52001240 52135868 52322412 52494304 52591456 52564080 52381432 
811.885 52033552 51526540 50878872 50114568 49263600 48358740 47432104 
815.259 46518104 45646508 44840720 44117404 43484564 42942984 42489804 
818.634 42120360 41829812 41613736 41467896 41387488 41367952 41406620 
822.009 41504096 41665924 41901692 42224168 42644796 43170888 43802904 
825.384 44532452 45343584 46208680 47090420 47942164 48703576 49310776 
828.759 49703256 49831520 49673720 49239996 48575276 47747732 46840812 
832.133 45939876 45112628 44409076 43854616 43450724 43179084 43006340 
835.508 42892180 42790920 42660768 42471280 42205144 41863200 41461660 
838.883 41028888 40596212 40190944 39832928 39531060 39285436 39090560 
842.258 38939728 38826776 38747104 38697008 38672560 38669520 38683680 
845.633 38712548 38755292 38813152 38888520 38982824 39096576 39228744 
849.008 39377572 39542416 39723880 39923436 40142456 40380928 40636996 
852.382 40908148 41192432 41490240 41805116 42142960 42509972 42910944 
855.757 43348636 43823536 44336564 44890868 45491948 46149164 46873256 
859.132 47674140 48560968 49541972 50623916 51814128 53116936 54530416 
862.507 56039276 57610524 59190932 60703868 62062864 63178720 63967652 
865.882 64370184 64354280 63921392 63106520 61976100 60621724 59139864 
869.256 57631220 56184208 54864212 53717440 52768128 52022308 51473192 
872.631 51105424 50898132 50824672 50855624 50960464 51106804 51267960 
876.006 51424476 51565604 51690648 51806176 51923076 52051928 52202860 
879.381 52384836 52604692 52870472 53190300 53570968 54016732 54527520 
882.756 55097972 55717684 56373252 57049576 57731008 58402812 59052164 
886.131 59669152 60249900 60797960 61326640 61855776 62409276 63009404 
889.505 63669488 64391164 65163136 65965944 66774332 67563288 68312144 
892.880 69003680 69622880 70156968 70592224 70915472 71115720 71184024 
896.255 71114632 70904616 70553400 70063288 69441672 68703472 67871120 
899.630 66974072 66047868 65125600 64236672 63403844 62640660 61955160 
903.005 61351980 60833520 60402184 60059080 59802868 59628896 59530156 
906.379 59498084 59525596 59608104 59744804 59937232 60187744 60497392 
909.754 60866224 61293332 61777996 62320800 62923296 63586088 64307168 
913.129 65081180 65899724 66754088 67639752 68558064 69519040 70537456 
916.504 71632616 72823360 74125280 75550344 77105392 78790320 80595200 
919.879 82495112 84448840 86392272 88248744 89938784 91390808 92563408 
923.254 93454744 94110696 94616744 95092480 95679416 96509072 97698488 
926.628 99328520 101426728 103960368 106824624 109854224 112808648 115398880 
930.003 117331512 118311024 118106320 116590024 113753976 109728872 
932.896 104760544 99196632 93408192 87746448 82517864 77927080 74091688 
936.271 71050464 68781648 67230112 66326752 66007100 66207260 66859044 
939.646 67884560 69176944 70599160 72001376 73218464 74104536 74558280 
943.020 74529880 74035256 73146352 71982488 70679672 69367576 68159152 
946.395 67126688 66306180 65701552 65295012 65058052 64960568 64978616 
949.770 65093384 65290392 65557992 65884104 66256696 66665648 67102948 
953.145 67564560 68049544 68558104 69090112 69643464 70214848 70800984 
956.520 71399752 72011544 72638064 73280984 73939752 74611120 75290072 
959.894 75970984 76651272 77331088 78013672 78703496 79403000 80111960 
963.269 80827232 81544960 82262192 82978848 83697368 84421152 85152184 
966.644 85890312 86633648 87380488 88131096 88889064 89660824 90453736 
970.019 91273048 92121184 92997944 93902360 94835448 95801856 96808304 
973.394 97862040 98968368 100127832 101337600 102593536 103892768 105235328 
976.768 106623768 108060472 109544328 111068872 112622496 114189528 
979.661 115754328 117303472 118824344 120305248 121732488 123089168 
982.554 124358832 125528040 126590224 127547888 128411072 129192848 
985.447 129903856 130550280 131133272 131651936 132106944 132503944 
988.339 132851992 133163752 133450776 133722704 133988592 134257488 
991.232 134541664 134856768 135218112 135637968 136121888 136666784 
994.125 137264064 137902608 138573456 139271776 139995568 140742640 
997.017 141507424 142279456 143046448 143796864 144524768 145231440 
999.910 145923232 146607840 147288992 147965616 148632416 149284320 
1002.803 149920016 150544048 151165456 151794432 152437728 153098144 
1005.695 153776000 154473088 155196016 155958272 156776176 157664448 
1008.588 158631600 159677072 160792240 161965424 163187024 164450448 
1011.481 165752656 167090448 168457136 169842112 171234112 172624928 
1014.374 174014464 175410912 176826736 178271056 179743264 181229232 
1017.266 182704704 184140992 185511856 186800864 188001392 189115264 
1020.159 190149056 191114128 192028080 192915104 193810240 194755232 
1023.052 195788432 196940688 198224960 199635168 201149056 202736464 
1025.945 204366864 206009920 207637408 209217360 210707488 212059712 
1028.838 213223040 214150880 214812576 215193584 215293808 215120848 
1031.731 214684432 213994288 213062256 211907424 210559088 209050992 
1034.624 207417616 205681408 203846224 201896672 199804384 197539360 
1037.517 195076656 192406208 189531824 186470432 183248080 179900176 
1040.410 176474592 173027200 169623872 166334592 163218352 160320528 
1043.303 157665680 155256880 153083200 151126560 149370816 147803296 
1046.196 146416368 145203952 144158048 143268016 142521648 141906272 
1049.089 141412016 141030320 140751264 140560592 140438304 140357136 
1051.982 140290576 140215536 140116640 139987840 139828208 139637216 
1054.875 139409744 139134224 138793744 138371360 137850944 137220256 
1057.768 136470208 135592016 134576992 133418936 132116560 130678968 
1060.661 129126592 127491800 125811264 124120880 122452864 120830392 
1063.554 119270736 117787704 116392536 115094336 113898368 112802976 
1066.448 111798368 110867760 109991984 109152600 108336224 107536752 
1069.341 106752592 105984736 105233256 104496656 103771992 103057264 
1072.234 102351976 101658056 100977776 100312296 99660752 99020800 98390520 
1075.609 97770608 97165304 96581536 96024704 95496904 94994080 94508400 
1078.984 94030208 93553208 93077424 92609456 92160632 91742232 91363408 
1082.359 91029488 90743272 90508672 90333864 90231728 90221288 90323344 
1085.735 90558264 90945000 91498088 92227824 93138472 94225024 95469136 
1089.110 96832568 98260416 99677432 100995872 102134496 103021312 103609856 
1092.485 103885784 103866040 103596144 103139904 102577840 101992960 
1095.378 101459664 101043800 100788720 100714304 100816848 101071312 
1098.271 101436104 101856704 102276704 102638056 102884312 102969056 
1101.164 102854792 102519264 101959856 101194480 100261200 99207632 98088904 
1104.540 96956240 95849368 94799544 93826760 92943400 92157232 91471416 
1107.915 90884256 90387632 89966864 89601848 89267776 88940336 88596864 
1111.290 88216144 87780352 87272360 86676320 85980480 85178024 84270064 
1114.665 83266088 82182952 81042160 79864464 78670288 77476816 76298616 
1118.041 75149448 74041664 72985408 71988784 71054840 70182480 69366440 
1121.416 68599120 67871384 67172592 66490920 65811656 65116056 64385176 
1124.791 63600392 62748456 61826012 60840836 59811616 58763044 57724080 
1128.166 56721652 55776456 54903916 54111896 53401688 52769028 52204764 
1131.542 51696136 51227060 50780912 50343328 49903696 49457864 49008368 
1134.917 48564120 48136984 47740964 47389976 47095292 46866504 46710440 
1138.292 46630604 46627320 46696752 46831440 47020296 47250756 47510688 
1141.667 47789120 48078200 48372408 48667588 48960672 49248828 49529532 
1145.042 49801792 50065968 50324204 50579392 50833872 51089136 51345372 
1148.418 51602320 51860348 52121000 52387448 52663340 52951464 53253332 
1151.793 53568756 53897160 54238172 54592596 54962272 55348904 55752456 
1155.168 56170524 56597672 57027020 57451160 57863028 58256760 58626160 
1158.543 58963308 59258872 59501392 59678388 59779252 59795260 59720324 
1161.919 59550676 59283252 58915116 58444360 57870032 57194320 56422188 
1165.294 55561720 54622240 53613440 52544896 51425668 50265312 49075252 
1168.669 47867872 46656908 45456404 44278256 43132536 42027020 40967128 
1172.044 39957440 39001776 38103484 37265924 36491272 35780672 35134528 
1175.420 34552308 34033536 33578276 33187080 32860450 32599174 32402738 
1178.795 32270488 32201436 32195512 32254000 32380462 32579210 32855090 
1182.170 33212222 33652848 34178516 34789992 35488364 36275708 37154344 
1185.545 38125660 39188892 40339152 41567500 42858464 44190760 45537316 
1188.921 46862036 48123396 49276740 50275504 51081236 51668292 52027236 
1192.296 52166768 52111136 51895820 51558512 51135504 50657164 50143392 
1195.671 49605296 49046020 48463272 47852188 47209052 46533408 45829028 
1199.046 45105128 44373188 43646948 42938632 42257580 41610308 40999680 
1202.422 40426748 39890892 39391288 38926028 38492044 38084312 37695396 
1205.797 37315532 36934916 36544144 36136332 35707856 35258992 34792972 
1209.172 34315616 33834624 33359286 32899264 32465398 32068174 31716936 
1212.547 31420082 31183346 31010788 30904646 30866544 30897850 31000540 
1215.923 31176474 31427172 31753008 32152976 32624890 33166372 33775244 
1219.298 34450388 35191296 35997432 36868004 37801696 38797280 39854900 
1222.673 40976192 42164684 43424832 44760196 46172304 47659492 49216432 
1226.048 50834432 52500100 54195560 55896652 57569780 59176236 60670412 
1229.424 62003540 63131964 64016604 64628424 64952024 64986272 64747900 
1232.799 64270632 63609140 62834032 62022652 61261052 60629764 60197560 
1236.174 60025296 60158704 60631096 61466976 62680312 64275048 66241996 
1239.549 68557608 71179384 74043072 77071288 80167584 83222064 86124736 
1242.925 88758000 91008576 92783040 94006096 94635856 94667464 94131440 
1246.300 93089120 91620984 89828056 87817304 85694184 83564088 81511096 
1249.675 79592000 77828568 76201544 74655224 73105056 71463608 69651816 
1253.050 67618728 65353708 62885188 60276736 57607648 54967764 52439116 
1256.426 50082144 47937432 46019772 44322876 42824524 41493776 40297884 
1259.801 39204376 38187124 37227512 36312920 35437420 34598772 33797056 
1263.176 33032920 32307356 31620632 30973672 30367576 29804090 29285074 
1266.551 28811710 28384348 28001970 27662582 27364324 27105522 26885648 
1269.927 26704534 26562136 26457322 26387638 26349472 26338418 26350492 
1273.302 26382250 26430806 26494054 26570028 26656794 26752986 26858118 
1276.677 26972266 27095364 27226402 27361962 27496324 27621270 27728554 
1280.052 27811348 27865824 27891226 27888824 27860418 27806932 27727104 
1283.427 27619114 27481570 27315488 27125590 26919594 26707530 26500712 
1286.803 26308810 26140396 26002192 25898674 25832876 25805976 25817018 
1290.178 25862872 25938382 26038006 26156126 26288676 26433376 26588978 
1293.553 26754536 26928724 27109472 27294988 27484712 27680170 27885078 
1296.928 28104542 28344062 28607356 28896554 29212240 29554506 29923346 
1300.304 30319110 30742298 31191214 31661976 32148160 32641072 33131182 
1303.679 33610600 34072168 34510800 34923264 35307368 35662496 35990448 
1307.054 36295556 36584872 36866632 37149400 37438856 37737684 38044672 
1310.429 38356260 38667020 38971660 39265232 39543180 39800568 40032280 
1313.805 40233212 40398712 40525352 40611388 40655772 40657956 40617136 
1317.180 40533064 40406640 40241540 40044996 39827336 39601180 39377972 
1320.555 39166700 38972312 38796344 38637644 38495444 38369576 38262636 
1323.930 38179092 38124716 38106596 38132856 38212016 38353944 38567720 
1327.306 38858808 39226608 39661328 40144492 40647804 41140044 41592260 
1330.681 41979864 42288920 42515492 42664864 42748800 42783644 42787920 
1334.056 42778816 42772528 42782148 42816592 42880440 42974444 43096860 
1337.431 43245004 43417804 43616576 43844724 44106800 44405408 44740584 
1340.807 45108104 45500116 45904776 46307312 46690000 47030524 47305100 
1344.182 47489804 47562956 47510760 47327600 47017044 46589216 46058712 
1347.557 45442792 44758140 44022968 43256676 42478732 41711004 40975064 
1350.932 40290360 39673892 39137692 38687304 38324084 38044852 37844604 
1354.308 37716756 37654380 37649544 37692688 37774188 37884008 38012956 
1357.683 38153912 38301320 38449972 38595204 38731276 38852500 38955348 
1361.058 39040748 39116336 39195964 39299980 39449336 39661040 39947520 
1364.433 40313156 40757304 41274840 41857872 42493604 43161480 43833284 
1367.809 44471952 45032716 45472336 45751048 45837976 45716004 45380112 
1371.184 44839176 44112892 43234936 42251048 41213160 40182144 39215400 
1374.559 38356984 37633712 37050876 36597492 36254168 36002828 35833136 
1377.934 35745092 35749188 35864440 36116308 36530268 37130164 37930468 
1381.310 38928492 40093540 41357600 42623192 43760972 44630664 45109176 
1384.685 45092228 44519748 43386276 41756340 39765200 37594944 35452196 
1388.060 33505936 31858000 30541868 29533972 28781368 28221634 27800468 
1391.435 27474334 27209928 26984888 26783892 26598348 26427180 26275088 
1394.811 26150812 26062246 26013202 26001066 26018656 26055420 26100774 
1398.186 26147080 26190050 26229646 26268786 26311416 26359716 26413306 
1401.561 26468698 26521314 26566858 26603528 26633472 26663100 26701998 
1404.936 26759188 26841092 26949384 27081504 27232048 27395768 27569578 
1408.312 27752748 27946100 28151276 28369352 28600100 28843330 29099132 
1411.687 29368450 29653364 29955862 30276796 30615566 30970222 31338878 
1415.062 31720034 32113124 32517924 32933254 33355638 33781152 34206656 
1418.437 34634264 35071376 35530904 36024036 36552940 37110312 37681232 
1421.813 38249752 38802540 39336036 39857804 40385732 40942480 41547848 
1425.188 42214272 42943420 43730488 44567988 45449784 46368768 47313528 
1428.563 48266008 49197692 50073628 50861064 51535680 52089544 52532032 
1431.938 52887724 53189100 53467376 53750812 54060820 54416416 54840716 
1435.313 55365616 56032224 56885432 57953816 59238704 60713092 62328944 
1438.689 64027928 65741448 67396704 68904072 70162352 71080200 71578344 
1442.064 71608504 71158968 70248064 68917736 67221064 65222428 62986648 
1445.439 60573076 58042468 55454112 52874624 50389016 48089568 46062396 
1448.814 44367388 43020976 42000704 41260268 40752788 40442860 40312100 
1452.190 40355660 40570348 40945900 41464760 42100576 42826792 43623608 
1455.565 44475000 45369040 46292420 47227664 48151532 49040156 49875784 
1458.940 50645848 51343320 51964832 52511540 52987172 53394792 53734876 
1462.315 54000068 54174728 54240196 54182196 54003072 53725800 53391716 
1465.691 53044672 52713992 52409768 52124920 51844072 51550344 51229000 
1469.066 50864640 50435388 49908564 49242152 48393816 47343824 46116408 
1472.441 44790392 43474348 42268684 41230536 40365552 39647428 39044120 
1475.816 38538784 38136728 37860764 37736092 37780728 37998128 38380112 
1479.192 38915448 39597912 40430532 41424372 42592456 43942488 45473292 
1482.567 47174808 49033888 51039496 53188572 55483368 57922920 60496324 
1485.942 63165500 65854220 68453864 70815960 72767680 74140888 74782776 
1489.317 74594512 73561488 71768152 69386576 66625828 63692428 60736184 
1492.693 57836112 55021768 52284440 49605816 46984816 44445964 42045744 
1496.068 39862128 37967208 36405836 35182996 34274808 33641248 33242374 
1499.443 33048116 33036138 33189226 33491656 33925508 34469152 35099432 
1502.818 35785384 36488680 37161348 37731180 38103376 38162412 37790088 
1506.194 36918288 35577220 33900248 32058936 30188806 28355840 26570802 
1509.569 24823066 23107318 21430348 19818574 18308344 16930040 15704997 
1512.944 14637654 13718106 12928455 12247991 11657005 11136576 10671403 
1516.319 10251644 9874353 9544162 9268546 9052305 8891735 8772268 8669801 
1520.177 8558809 8420954 8256159 8085249 7938971 7840851 7794937 7787144 
1524.034 7794060 7795038 7777631 7742551 7700762 7667002 7650849 7652535 
1527.892 7664439 7678064 7689261 7700964 7720459 7754255 7802258 7855865 
1531.749 7899154 7914608 7892642 7838861 7774225 7725180 7711689 7738672 
1535.606 7797838 7873679 7950918 8019023 8071273 8103916 8113943 8096827 
1539.464 8048219 7969107 7871047 7773651 7697524 7655030 7645554 7656953 
1543.321 7672027 7677423 7667677 7649129 7634493 7637494 7664473 7711689 
1547.179 7767782 7819125 7856067 7876176 7884983 7892844 7909716 7938566 
1551.036 7975351 8010416 8034448 8042346 8036000 8023174 8014736 8020576 
1554.894 8044743 8085114 8134570 8182917 8216684 8219182 8172315 8063678 
1558.751 7900099 7713005 7548714 7442525 7404640 7425267 7484391 7560413 
1562.608 7633785 7691520 7728047 7746598 7757089 7771526 7799120 7841661 
1566.466 7893721 7945789 7988817 8016931 8029351 8030465 8027900 8030634 
1570.323 8045148 8076337 8126906 8198146 8289424 8397036 8514136 8629308 
1574.181 8729162 8802765 8845574 8865188 8880541 8915680 8986947 9099504 
1578.038 9248304 9425091 9623595 9842119 10082999 10350514 10647667 10975063 
1581.896 11329878 11707040 12100544 12502383 12901830 13285247 13634091 
1585.271 13929224 14155026 14302521 14373479 14380809 14348307 14305535 
1588.646 14284715 14318171 14432015 14646324 14972736 15411641 15949976 
1592.021 16557438 17190328 17789552 18289612 18632748 18771982 18683490 
1595.396 18370178 17861736 17207736 16465403 15694931 14946055 14254515 
1598.772 13645135 13130616 12714582 12394021 12161363 12006860 11920827 
1602.147 11896817 11931758 12025493 12178844 12391294 12658529 12973174 
1605.522 13323545 13694203 14067538 14420471 14727244 14961830 15098793 
1608.897 15119789 15016192 14791586 14461885 14053609 13602534 13144244 
1612.273 12709226 12318273 11978827 11687570 11432872 11200490 10976796 
1615.648 10753523 10532434 10325234 10149914 10022674 9952016 9936523 
1619.023 9966696 10028303 10105212 10183086 10249236 10296293 10323029 
1622.398 10334804 10341081 10351871 10374608 10411021 10459182 10514171 
1625.774 10571917 10629060 10683085 10732600 10776857 10815954 10851963 
1629.149 10888791 10931534 10984849 11051699 11131952 11222114 11315254 
1632.524 11402359 11473185 11516700 11522586 11484650 11403889 11292299 
1635.899 11171013 11064002 10988418 10949305 10941762 10954741 10975096 
1639.275 10991782 10998443 10994603 10985564 10979480 10984713 11005410 
1642.650 11040415 11082867 11122196 11146910 11145720 11110774 11039735 
1646.025 10937718 10818060 10699827 10605190 10551276 10547100 10593034 
1649.400 10681150 10796864 10918554 11019445 11064853 11019547 10863650 
1652.776 10616021 10340504 10110809 9971510 9920929 9931777 9971849 10017892 
1656.633 10056481 10082287 10095987 10100702 10099413 10093512 10081710 
1660.008 10060855 10026912 9976087 9906149 9817547 9715410 9609130 9510429 
1663.866 9431084 9378974 9356019 9358389 9376909 9400101 9414526 9408601 
1667.723 9374505 9310080 9219840 9114053 9006804 8910979 8836275 8787110 
1671.581 8763004 8758440 8763342 8765066 8748568 8700495 8615316 8499674 
1675.438 8373153 8259772 8178832 8136055 8124475 8129708 8137237 8138419 
1679.295 8132342 8125758 8128391 8147197 8180520 8216548 8233466 8206654 
1683.153 8116677 7962527 7768558 7578081 7430525 7342023 7306034 7303069 
1687.010 7314054 7323388 7322040 7306640 7278000 7239624 7197377 7159278 
1690.868 7133678 7127515 7144457 7182386 7233223 7282144 7311931 7306842 
1694.725 7259603 7178580 7088546 7021563 6998463 7020822 7071336 7123069 
1698.583 7144693 7110067 7008632 6855817 6691985 6561145 6490679 6480589 
1702.440 6513348 6565619 6617460 6654098 6667624 6657497 6629908 6595593 
1706.297 6564778 6544562 6536893 6540324 6551189 6566090 6583516 6603330 
1710.155 6627149 6656891 6693432 6736773 6785471 6837472 6891230 6945870 
1714.012 7001090 7055945 7107407 7148566 7170260 7163017 7121856 7051164 
1717.870 6965365 6884901 6827172 6801121 6805698 6832793 6871638 6911698 
1721.727 6946375 6972334 6989944 7001527 7010451 7019340 7029746 7042509 
1725.584 7058236 7076960 7098178 7120509 7141392 7157931 7168272 7173460 
1729.442 7177603 7186260 7203947 7230662 7260277 7279651 7270418 7216041 
1733.299 7108855 6960045 6798866 6662813 6578200 6550045 6567066 6609319 
1737.157 6657901 6695888 6712680 6705175 6676877 6637141 6596736 6564980 
1741.014 6545537 6538036 6539651 6547219 6558622 6573390 6592161 6616282 
1744.872 6646427 6682126 6721933 6763528 6804285 6841679 6874230 6900320 
1748.729 6918802 6928060 6925737 6910621 6883588 6848613 6813540 6787053 
1752.586 6775812 6782071 6803140 6831211 6855750 6866757 6856961 6825051 
1756.444 6776821 6723245 6676574 6644476 6628461 6623516 6621396 6612447 
1760.301 6589537 6549641 6494782 6431590 6369079 6316260 6279280 6260959 
1764.159 6260421 6273901 6295550 6318142 6334986 6341475 6337037 6325741 
1768.016 6315419 6313671 6324429 6345241 6367566 6380175 6372273 6339626 
1771.874 6286608 6227581 6179887 6156092 6159924 6186541 6226068 6268657 
1775.731 6308359 6343189 6374761 6405394 6436398 6466363 6492528 6511195 
1779.588 6521118 6523977 6524279 6527172 6535850 6550449 6567402 6582305 
1783.446 6590580 6590378 6582540 6571136 6560708 6555293 6557950 6569454 
1787.303 6590008 6619008 6655007 6695484 6735596 6768879 6787759 6785403 
1791.161 6758547 6709146 6645687 6579243 6521286 6478874 6453011 6440199 
1795.018 6435154 6432599 6429068 6422913 6414171 6403410 6391473 6378225 
1798.875 6363363 6346081 6326244 6303888 6280255 6256555 6234807 6217093 
1802.733 6204859 6199381 6201330 6209968 6223648 6240521 6258270 6274909 
1806.590 6289600 6302106 6312730 6321572 6328430 6332834 6334516 6333507 
1810.448 6331153 6329371 6330582 6336331 6346922 6361413 6378460 6396080 
1814.305 6413431 6430816 6449749 6471811 6498683 6531006 6567873 6607434 
1818.163 6646663 6683001 6714093 6738927 6758176 6773321 6787053 6801289 
1822.020 6816906 6832693 6846325 6854067 6853528 6844877 6831447 6819262 
1825.877 6814517 6821080 6838381 6861775 6883386 6894799 6890557 6870022 
1829.735 6838886 6806304 6783283 6776619 6787793 6813742 6848277 6885406 
1833.592 6920855 6952503 6980785 7007218 7033484 7060627 7089522 7120643 
1837.450 7155101 7194985 7242791 7300744 7370567 7451727 7542275 7638439 
1841.307 7735265 7826749 7907354 7972955 8022297 8058953 8090312 8125995 
1845.165 8174004 8237687 8315327 8401124 8487240 8566345 8633702 8687649 
1849.022 8729635 8762361 8787990 8807364 8819165 8820991 8810576 8787584 
1852.879 8753166 8710096 8661452 8609638 8555430 8499066 8440041 8378761 
1856.737 8316239 8253997 8193047 8133827 8075358 8016863 7957903 7899289 
1860.594 7842809 7790653 7744204 7703595 7667744 7635438 7605966 7580744 
1864.452 7562234 7552827 7553771 7563515 7577912 7591062 7597705 7594737 
1868.309 7582565 7564965 7546927 7533070 7525957 7525552 7530171 7538263 
1872.167 7548276 7559099 7569921 7579665 7586308 7588600 7585094 7575822 
1876.024 7562065 7545848 7529092 7512978 7497673 7482705 7467300 7451390 
1879.881 7434941 7418796 7403191 7387755 7371544 7353447 7332992 7310785 
1883.739 7288445 7267656 7249967 7236255 7225440 7216041 7206608 7195962 
1887.596 7184273 7172146 7160592 7150823 7144255 7141965 7145198 7155169 
1891.454 7171944 7194480 7220420 7246126 7268127 7284738 7296296 7305764 
1895.311 7317289 7334138 7357558 7386373 7416908 7445693 7471143 7493762 
1899.168 7516180 7541566 7572079 7607348 7645048 7681167 7713005 7739380 
1903.026 7761137 7780836 7800604 7821858 7844394 7866830 7887750 7905903 
1906.883 7921188 7934045 7944708 7953482 7960165 7964586 7967319 7969276 
1910.741 7972044 7976430 7982809 7990503 7998469 8006299 8014061 8022465 
1914.598 8031882 8041570 8048658 8049772 8041401 8022601 7996174 7968028 
1918.456 7945181 7932627 7931176 7936913 7942987 7941908 7928848 7902731 
1922.313 7867100 7827795 7790855 7760968 7739616 7726327 7720323 7720796 
1926.170 7728284 7742990 7763633 7787718 7811028 7829381 7840886 7846013 
1930.028 7847599 7849860 7856844 7869934 7889133 7912887 7939175 7966947 
1933.885 7996073 8025942 8055341 8082278 8103883 8117926 8124813 8126569 
1937.743 8127109 8130518 8138284 8150100 8163538 8175219 8182681 8186530 
1941.600 8188219 8190819 8197572 8208579 8223031 8239544 8256834 8274698 
1945.458 8294354 8316037 8338633 8360284 8377814 8388760 8393455 8394705 
1949.315 8396935 8404805 8420042 8442609 8469029 8495586 8519272 8540290 
1953.172 8560161 8581148 8604602 8629646 8653272 8671559 8682071 8684201 
1957.030 8679807 8672776 8666320 8663683 8666556 8675244 8689779 8711447 
1960.887 8739473 8773011 8810306 8848685 8885276 8919299 8951498 8984309 
1964.745 9019727 9058091 9096391 9129957 9153204 9163085 9160954 9151648 
1968.602 9142274 9138078 9141902 9151918 9164067 9174490 9180311 9183120 
1972.459 9186030 9191547 9201970 9218554 9240858 9271389 9315056 9377755 
1976.317 9464202 9574680 9700975 9827681 9936455 10010264 10039729 10024809 
1980.174 9972188 9895233 9808532 9723373 9648461 9588737 9545415 9518252 
1984.032 9505077 9501691 9503181 9504264 9500133 9488245 9470026 9448353 
1987.889 9428239 9413679 9406332 9404368 9405452 9406433 9406772 9408837 
1991.747 9416320 9432946 9460341 9496238 9535559 9572546 9602795 9623934 
1995.604 9638297 9648359 9658760 9672041 9688507 9706092 9721069 9728523 
1999.461 9723915 9705720 9673837 9630574 9581997 9534645 9495019 9467791 
2003.319 9455227 9455533 9465082 9478797 9493732 9508600 9526008 9548531 
2007.176 9578068 9613839 9650867 9682206 9702059 9706465 9695893 9674447 
2011.034 9648223 9623392 9604455 9593954 9593243 9603201 9624679 9658489 
2014.891 9703415 9757123 9813819 9867269 9912929 9947778 9973917 9995244 
2018.749 10016197 10040001 10068112 10099074 10131361 10164498 10197978 
2022.124 10233053 10270949 10309864 10347766 10381157 10406135 10421881 
2025.499 10428805 10428092 10420864 10407933 10387876 10360049 10326830 
2028.874 10291882 10262636 10246691 10248082 10268099 10302977 10345696 
2032.250 10389437 10431589 10470519 10509317 10551547 10597618 10645256 
2035.625 10690556 10728084 10754134 10768535 10772815 10769384 10761606 
2039.000 10749820 10734298 10714601 10691201 10665393 10639823 10615953 
2042.375 10594868 10576262 10558201 10539258 10519127 10498488 10479072 
2045.750 10462712 10450425 10441329 10434778 10429688 10424189 10416859 
2049.126 10405082 10384414 10350888 10300737 10233868 10153848 10069197 
2052.501 9988835 9922590 9876014 9849474 9837747 9832900 9827071 9815310 
2056.358 9797179 9775829 9755564 9739840 9729506 9723135 9718968 9715749 
2060.216 9714190 9715986 9723169 9735639 9751227 9766204 9775897 9778302 
2064.073 9773660 9764442 9754547 9747499 9743772 9742958 9742382 9739332 
2067.931 9732420 9721780 9707583 9690879 9672550 9652154 9629794 9605946 
2071.788 9581522 9557710 9536101 9516965 9499930 9484859 9471178 9459393 
2075.646 9450622 9445238 9443037 9442495 9440633 9434809 9423601 9406806 
2079.503 9386525 9365431 9345219 9325889 9306897 9286113 9262317 9237101 
2083.360 9212867 9192968 9180480 9175268 9175302 9176521 9174963 9168060 
2087.218 9156013 9140379 9124069 9108809 9094395 9079338 9061576 9039754 
2091.075 9014179 8987658 8963675 8945816 8936819 8937766 8948352 8966990 
2094.933 8991683 9019524 9047705 9072977 9093075 9106271 9113410 9116354 
2098.790 9118046 9121159 9126607 9133104 9138552 9140480 9138044 9132698 
2102.647 9128096 9128603 9136962 9153407 9175201 9198281 9218757 9234596 
2106.505 9246849 9258086 9271761 9289633 9312077 9337128 9362960 9387845 
2110.362 9411106 9433319 9455330 9476562 9496103 9512325 9523841 9530817 
2114.220 9535593 9540301 9547955 9559946 9575493 9592938 9610214 9625593 
2118.077 9639145 9651781 9664249 9676751 9688744 9699146 9707075 9713275 
2121.935 9719137 9727133 9738926 9754310 9771152 9786232 9795620 9797179 
2125.792 9791146 9778980 9763019 9745635 9726829 9705753 9681561 9653103 
2129.649 9621697 9590533 9563502 9544535 9537253 9542909 9561470 9592091 
2133.507 9631725 9677902 9726626 9773490 9814396 9846966 9870421 9886894 
2137.364 9900420 9915403 9934286 9958050 9984394 10009857 10031116 10046341 
2141.222 10055294 10059736 10061093 10059669 10055192 10046816 10034236 
2144.597 10019079 10004601 9995447 9994667 10003754 10021826 10045630 
2147.972 10071401 10096598 10118778 10138077 10152559 10160699 10161174 
2151.347 10152356 10134515 10110063 10082185 10053632 10025759 9998261 
2154.723 9969781 9942862 9924590 9927438 9967984 10063128 10219925 10434303 
2158.580 10686040 10944956 11179887 11365828 11489583 11550692 11559233 
2161.955 11527861 11473219 11409570 11347529 11295870 11260265 11241870 
2165.331 11237891 11242822 11248467 11246834 11232927 11204230 11163058 
2168.706 11113970 11060297 11004866 10949407 10892155 10833313 10774615 
2172.081 10718811 10670351 10633677 10611097 10602337 10605597 10616734 
2175.456 10631538 10646682 10657752 10660945 10653032 10631368 10596022 
2178.832 10551412 10503546 10461660 10433692 10424495 10434167 10459046 
2182.207 10491733 10525679 10557318 10584750 10607906 10627938 10644034 
2185.582 10654323 10657141 10652184 10641114 10629501 10622099 10622778 
2188.957 10632625 10648550 10665325 10677177 10680539 10674120 10659858 
2192.333 10641487 10621487 10602372 10584445 10568080 10553380 10541227 
2195.708 10532502 10527139 10524253 10521334 10515190 10503580 10486607 
2199.083 10466581 10447235 10433082 10426667 10428907 10438104 10450425 
2202.458 10462441 10471095 10474422 10471469 10462305 10446488 10424427 
2205.833 10397209 10365784 10332971 10301959 10275019 10254867 10243061 
2209.209 10239804 10244622 10257480 10276614 10299888 10325506 10350378 
2212.584 10371825 10387673 10396802 10399279 10396156 10388250 10376983 
2215.959 10363918 10349767 10336636 10328017 10326355 10333650 10350785 
2219.334 10375184 10402333 10427617 10446250 10455991 10458333 10455347 
2222.710 10450222 10445198 10440242 10433794 10424359 10410478 10393136 
2226.085 10374743 10358353 10345933 10338333 10333819 10329748 10324183 
2229.460 10315700 10304673 10293001 10282484 10273968 10267556 10262263 
2232.835 10256834 10250796 10244655 10239058 10235054 10233562 10233901 
2236.211 10235632 10237599 10239329 10240754 10242688 10245673 10250083 
2239.586 10255919 10263213 10271389 10280380 10289235 10297073 10303180 
2242.961 10306098 10305488 10301619 10295715 10290083 10286419 10286114 
2246.336 10288760 10293103 10296869 10298158 10296157 10291644 10285809 
2249.712 10280176 10275800 10272508 10269964 10268370 10267996 10271186 
2253.087 10280414 10297073 10321265 10350310 10379901 10404845 10420999 
2256.462 10425921 10419404 10404302 10383532 10360864 10339656 10321503 
2259.837 10307760 10298803 10293918 10292051 10291678 10290321 10286181 
2263.213 10278311 10266571 10252526 10238651 10226947 10218839 10214463 
2266.588 10212292 10210732 10208357 10204321 10198690 10192787 10187699 
2269.963 10184070 10182509 10182137 10182034 10181492 10179049 10173962 
2273.338 10165448 10152796 10136211 10116608 10095411 10075063 10057599 
2276.714 10044646 10036780 10033693 10034270 10037423 10043052 10051021 
2280.089 10062008 10076081 10092597 10109689 10125052 10135974 10140620 
2283.464 10138144 10129055 10114302 10095411 10073707 10049936 10024742 
2286.839 9998769 9972493 9947033 9923438 9902047 9883234 9867167 9853100 
2290.697 9841069 9830799 9822224 9815209 9809718 9805279 9801212 9797450 
2294.554 9793790 9790570 9788571 9788333 9789621 9791892 9794332 9795552 
2298.412 9794908 9792265 9787622 9781555 9774541 9766678 9758106 9748481 
2302.269 9737503 9725304 9712225 9698400 9683764 9668314 9651578 9633284 
2306.126 9613805 9593479 9573291 9554695 9537998 9523942 9512223 9502267 
2309.984 9493224 9484893 9476935 9469382 9462949 9457632 9453873 9451875 
2313.841 9451164 9451571 9452857 9454212 9455194 9455363 9453772 9450182 
2317.699 9444594 9436976 9427664 9417878 9408228 9399797 9393736 9390317 
2321.556 9388556 9386626 9380735 9366312 9339430 9297183 9239200 9168670 
2325.414 9090775 9012488 8940979 8881826 8837594 8808716 8792419 8785048 
2329.271 8782952 8783730 8786130 8790356 8796577 8805166 8815479 8826942 
2333.128 8838202 8848786 8858898 8869009 8880101 8893223 8908645 8926266 
2336.986 8945444 8964892 8982888 8997738 9007785 9011811 9009713 9002779 
2340.843 8992800 8982414 8973247 8965535 8958127 8949164 8936616 8921565 
2344.701 8907868 8902254 8913211 8948522 9011879 9103226 9217065 9345219 
2348.558 9477849 9604726 9717409 9809447 9876929 9919031 9938523 9940727 
2352.416 9931878 9918692 9906488 9897708 9893199 9893064 9896217 9902216 
2356.273 9910996 9922488 9936523 9953168 9972222 9993413 10018130 10047257 
2360.130 10082084 10123289 10169925 10219484 10269320 10315463 10356249 
2363.506 10391270 10421338 10448932 10476187 10504123 10532977 10561698 
2366.881 10588926 10612591 10631911 10646003 10654764 10658465 10658058 
2370.256 10654594 10650554 10648347 10650486 10659043 10675104 10698604 
2373.631 10729102 10766191 10809941 10861509 10922903 10995283 11079638 
2377.007 11175195 11280227 11392155 11508603 11627872 11749865 11875262 
2380.382 12005123 12140101 12279926 12423343 12567659 12709806 12846572 
2383.757 12974437 13090799 13193254 13280088 13350639 13405278 13445433 
2387.132 13473322 13491368 13501896 13506236 13505006 13497794 13484293 
2390.508 13463820 13436275 13402135 13362326 13317839 13269736 13219112 
2393.883 13166989 13114259 13062490 13013119 12967575 12927533 12893571 
2397.258 12866708 12847528 12836095 12832887 12838176 12851589 12872750 
2400.633 12900908 12935214 12974847 13019947 13070651 13127918 13192913 
2404.009 13266628 13349546 13441982 13543358 13652657 13768789 13890118 
2407.384 14015486 14143901 14274648 14408107 14545135 14687142 14835265 
2410.759 14990262 15151286 15316247 15481923 15644399 15799446 15944133 
2414.134 16076041 16193477 16296187 16383402 16455045 16511384 16552206 
2417.510 16578469 16591311 16592240 16583152 16565837 16541706 16512383 
2420.885 16478861 16442141 16403187 16362654 16320853 16278470 16235646 
2424.260 16193340 16152415 16114278 16080856 16054416 16037052 16030796 
2427.635 16037157 16057475 16092135 16141342 16204517 16280878 16368814 
2431.010 16466849 16573306 16687363 16808306 16936448 17072588 17217630 
2434.386 17372584 17537874 17713478 17898890 18093394 18295660 18505072 
2437.761 18720952 18943308 19172980 19411642 19661426 19924364 20202316 
2441.136 20495660 20803974 21125798 21459242 21802698 22155490 22517678 
2444.511 22890088 23273162 23666656 24069294 24479002 24893272 25310010 
2447.887 25727816 26145568 26562242 26976812 27387404 27791990 28188432 
2451.262 28575364 28951412 29316052 29668052 30005034 30324298 30621184 
2454.637 30891056 31129770 31333216 31498276 31622808 31703818 31739320 
2458.012 31727236 31666004 31555034 31394258 31184412 30926314 30621040 
2461.388 30269692 29874150 29437552 28964906 28461854 27935252 27391816 
2464.763 26836898 26274736 25708410 25140718 24574958 24015748 23468344 
2468.138 22939338 22434804 21959470 21516790 21108440 20734426 20394280 
2471.513 20087262 19812504 19568698 19353644 19164254 18996542 18845750 
2474.889 18708084 18580248 18460680 18348886 18245068 18149428 18061270 
2478.264 17979312 17901616 17826108 17750684 17674618 17597734 17520658 
2481.639 17444804 17371584 17302066 17236800 17176160 17119460 17066212 
2485.014 17015730 16967318 16921152 16877780 16837996 16802658 16772730 
2488.390 16747935 16727926 16712362 16700104 16690360 16682647 16676415 
2491.765 16671181 16666809 16662678 16658753 16655033 16651832 16649457 
2495.140 16648423 16648699 16650008 16651969 16653657 16654689 16654827 
2498.515 16654002 16652107 16649181 16644360 16636889 16626423 16612653 
2501.891 16596681 16580053 16564701 16552653 16545286 16542705 16544323 
2505.266 16549073 16554993 16560605 16564770 16566182 16564425 16559055 
2508.641 16550312 16538471 16524497 16509112 16492868 16475590 16456421 
2512.016 16433915 16406525 16373079 16333032 16287312 16236849 16183401 
2515.392 16128445 16073119 16017698 15962694 15908351 15855184 15804119 
2518.767 15756462 15712623 15673356 15638869 15608883 15583571 15562759 
2522.142 15546618 15535423 15528692 15526013 15526357 15528555 15531439 
2525.517 15534152 15536316 15538273 15540505 15543733 15548816 15556096 
2528.893 15566193 15579141 15594836 15612868 15632618 15653124 15673632 
2532.268 15693521 15712244 15729938 15746979 15763883 15781682 15801610 
2535.643 15824737 15852023 15884362 15921481 15962729 16007075 16053213 
2539.018 16099390 16145021 16189488 16233135 16276648 16320441 16364856 
2542.394 16409794 16454907 16499337 16542809 16585113 16625907 16665535 
2545.769 16703650 16740289 16775450 16809098 16841302 16872510 16902342 
2549.144 16930798 16957360 16981374 17002324 17020276 17035818 17050566 
2552.519 17065730 17083064 17103192 17126008 17151134 17177366 17203944 
2555.895 17229628 17253452 17274584 17291720 17303618 17309720 17309650 
2559.270 17303720 17292964 17278308 17260554 17239660 17215046 17186018 
2562.645 17151756 17112290 17068660 17022756 16976586 16932176 16890972 
2566.020 16853910 16821186 16792808 16768700 16748657 16732335 16719284 
2569.396 16708782 16700277 16693493 16688637 16686331 16687261 16692219 
2572.771 16701069 16713602 16728995 16746592 16766014 16787676 16812128 
2576.146 16839788 16870754 16904340 16939274 16974072 17007838 17040194 
2579.521 17071864 17103848 17137484 17174058 17214044 17257450 17304100 
2582.896 17353238 17403968 17455912 17507930 17559194 17609294 17657984 
2586.272 17705264 17752100 17799182 17847170 17896368 17946298 17996338 
2589.647 18045520 18093326 18139514 18184218 18227756 18270362 18312492 
2593.022 18354174 18395548 18437100 18479072 18522086 18566658 18612722 
2596.397 18659968 18708048 18756378 18804850 18853674 18903334 18954142 
2599.773 19006788 19061348 19118268 19178070 19241794 19310480 19384756 
2603.148 19464868 19549842 19638234 19727822 19816978 19904800 19991286 
2606.523 20077790 20165662 20256296 20350110 20446686 20544814 20642824 
2609.898 20739154 20832342 20921202 21004552 21081066 21149278 21208074 
2613.274 21256124 21293044 21318830 21334040 21339852 21337416 21328158 
2616.649 21313298 21294262 21272200 21248190 21222930 21196834 21170082 
2620.024 21142182 21113206 21083012 21051920 21020444 20989528 20960110 
2623.399 20932746 20908476 20887546 20870824 20858726 20851182 20847948 
2626.775 20848574 20852294 20858552 20867208 20878438 20893040 20912232 
2630.150 20936848 20967446 21003822 21045206 21090318 21138112 21187720 
2633.525 21238726 21291268 21345488 21401562 21459800 21520028 21581832 
2636.900 21645250 21709404 21774024 21838792 21903188 21967172 22031098 
2640.276 22094858 22158908 22223558 22288498 22353446 22417814 22480862 
2643.651 22542038 22601788 22660012 22717616 22775472 22833754 22892916 
2647.026 22953204 23014656 23077408 23142194 23209474 23279910 23353890 
2650.401 23431168 23511502 23594302 23679042 23765336 23853226 23943126 
2653.777 24035288 24130272 24228430 24330392 24436306 24546348 24660484 
2657.152 24778688 24900114 25024314 25150688 25278542 25407276 25536750 
2660.527 25666826 25797326 25928218 26059500 26191070 26322822 26454682 
2663.902 26586828 26719262 26852054 26985486 27119770 27254978 27391992 
2667.278 27531096 27673072 27818308 27966736 28118044 28272022 28427822 
2670.653 28585308 28743982 28903920 29065260 29227904 29391494 29555394 
2674.028 29718680 29880324 30039190 30194630 30345864 30492602 30635050 
2677.403 30773632 30909128 31042994 31176474 31311136 31448402 31589310 
2680.779 31734898 31885852 32043166 32207500 32380320 32562566 32755140 
2684.154 32959100 33174704 33402082 33640676 33890004 34149084 34416856 
2687.529 34692184 34973756 35260540 35551400 35845980 36144324 36446660 
2690.904 36753964 37067188 37386888 37713684 38047708 38388580 38735624 
2694.280 39088092 39444984 39805584 40169424 40536336 40906836 41281620 
2697.655 41661288 42046328 42436748 42831656 43229300 43628372 44027184 
2701.030 44424492 44819964 45213332 45604180 45992068 46375328 46752136 
2704.405 47119928 47475828 47817524 48142576 48448344 48733160 48994720 
2707.781 49231128 49440340 49621196 49772400 49893216 49983764 50043920 
2711.156 50074188 50075932 50050052 49998376 49922540 49823532 49702136 
2714.531 49557792 49389844 49197064 48978400 48733604 48463344 48168856 
2717.906 47852188 47516044 47163100 46796008 46418024 46031744 45639696 
2721.281 45244844 44849316 44455768 44066752 43684976 43313236 42954616 
2724.657 42611788 42286836 41981616 41696920 41433304 41191192 40970844 
2728.032 40772952 40598180 40446680 40318608 40213516 40130392 40068072 
2731.407 40025196 40000888 39994676 40006264 40035152 40081080 40143108 
2734.782 40220164 40310868 40413948 40527860 40651008 40782088 40919360 
2738.158 41061008 41205360 41350240 41493960 41634376 41769584 41897460 
2741.533 42016468 42125472 42224096 42313132 42394260 42469964 42542276 
2744.908 42613360 42684272 42755564 42827488 42899932 42973416 43048232 
2748.283 43124812 43203240 43283108 43363796 43444608 43525108 43605912 
2751.659 43688276 43774608 43866748 43967124 44077168 44197952 44330216 
2755.034 44474228 44630776 44799868 44982040 45176668 45382904 45599028 
2758.409 45823100 46052520 46285012 46517844 46748112 46972740 47187996 
2761.784 47390308 47575788 47741256 47883928 48001556 48092564 48155936 
2765.160 48191184 48198548 48178928 48133984 48066472 47979536 47876456 
2768.535 47760820 47635720 47504252 47369172 47232912 47097912 46966168 
2771.910 46839300 46718300 46604008 46496236 46395272 46300752 46212696 
2775.285 46130888 46054952 45984224 45917524 45852892 45787608 45718724 
2778.661 45642564 45555496 45453944 45334684 45195384 45034776 44852952 
2782.036 44651192 44432200 44199528 43957264 43709780 43461164 43215100 
2785.411 42974336 42740936 42515820 42299068 42090208 41888336 41692000 
2788.786 41500668 41313760 41131012 40952784 40779468 40611676 40449988 
2792.162 40294868 40146892 40006376 39873640 39748680 39631092 39520064 
2795.537 39414360 39312240 39211556 39110280 39006200 38897144 38781416 
2798.912 38657564 38524736 38382680 38231916 38073176 37907548 37736276 
2802.287 37559684 37378180 37191560 36999640 36802468 36600664 36395096 
2805.663 36187396 35979324 35772724 35569272 35370520 35177608 34991960 
2809.038 34814620 34646856 34489956 34344912 34212680 34093888 33989032 
2812.413 33897960 33820192 33754900 33700900 33656500 33620340 33591020 
2815.788 33568148 33551608 33542444 33541906 33551216 33571976 33604944 
2819.164 33650916 33710104 33783084 33870016 33971760 34088904 34221856 
2822.539 34370732 34534908 34712892 34902548 35101192 35306112 35513860 
2825.914 35721704 35926520 36125456 36315764 36494768 36659676 36808060 
2829.289 36937116 37044816 37129620 37190836 37228776 37244696 37240548 
2832.665 37218524 37180660 37128860 37064736 36989788 36905624 36814116 
2836.040 36717472 36617932 36517400 36417544 36318576 36220960 36123980 
2839.415 36026804 35928828 35829212 35727676 35623652 35517524 35409560 
2842.790 35300288 35191188 35083696 34979536 34879888 34786436 34699540 
2846.166 34619476 34545812 34478408 34416676 34360260 34308804 34262188 
2849.541 34220348 34183460 34152132 34127040 34109264 34099408 34097724 
2852.916 34104352 34118440 34139156 34165252 34195972 34230996 34270436 
2856.291 34315004 34365212 34421196 34482532 34547896 34615132 34681488 
2859.667 34743868 34799360 34845384 34880392 34903476 34914608 34915004 
2863.042 34905992 34889296 34866784 34840324 34811964 34783208 34756252 
2866.417 34732880 34714936 34704064 34701336 34707400 34722836 34747168 
2869.792 34780124 34821080 34869300 34923408 34982192 35044220 35108232 
2873.167 35173476 35239988 35308732 35381592 35460032 35545864 35639764 
2876.543 35741888 35851664 35968096 36090100 36217288 36349484 36486620 
2879.918 36629000 36776824 36929612 37086780 37247584 37410864 37575652 
2883.293 37740788 37905268 38067708 38227428 38383368 38534764 38680924 
2886.668 38821196 38954952 39081820 39201512 39313908 39419440 39518608 
2890.044 39612612 39702604 39789860 39875712 39961580 40048740 40138460 
2893.419 40232304 40331592 40437480 40551248 40673712 40805528 40946520 
2896.794 41095828 41250976 41407716 41559880 41700208 41820216 41912528 
2900.169 41971432 41993768 41979316 41930852 41852872 41750248 41628396 
2903.545 41491848 41344628 41190756 41033728 40876544 40722000 40572020 
2906.920 40427620 40288868 40155468 40026904 39903060 39783688 39669096 
2910.295 39559040 39452492 39348336 39244488 39139796 39032988 38923780 
2913.670 38812464 38699728 38586328 38471732 38355932 38237632 38115820 
2917.046 37989520 37858448 37722468 37582588 37440264 37297372 37156436 
2920.421 37020208 36891120 36771492 36662636 36565012 36477760 36399564 
2923.796 36328124 36260904 36195352 36129128 36059604 35985012 35903452 
2927.171 35813844 35715732 35609660 35497172 35380476 35262696 35147716 
2930.547 35039480 34942332 34860288 34796672 34753916 34733244 34734608 
2933.922 34756964 34798932 34859208 34936908 35032116 35145344 35276640 
2937.297 35425772 35590996 35769480 35958016 36152644 36350096 36547820 
2940.672 36743760 36936288 37123880 37304124 37474000 37629668 37766200 
2944.048 37878444 37960664 38007060 38012484 37972812 37886252 37753548 
2947.423 37578904 37369696 37135252 36886180 36632784 36383064 36143100 
2950.798 35915292 35699940 35495380 35299176 35109024 34923192 34740780 
2954.173 34561996 34387048 34216656 34051096 33890152 33733340 33579816 
2957.549 33428668 33278934 33130358 32983012 32837470 32694548 32555352 
2960.924 32420590 32291156 32167536 32049910 31938416 31833224 31734258 
2964.299 31641696 31555816 31476938 31405516 31341902 31286314 31238744 
2967.674 31198546 31164656 31135288 31108448 31081432 31051714 31016658 
2971.050 30974134 30922364 30860532 30788606 30707876 30620578 30530068 
2974.425 30440178 30354536 30276050 30206070 30143698 30085672 30026372 
2977.800 29958738 29874186 29765128 29624986 29449146 29236304 28987966 
2981.175 28708548 28404794 28084674 27757268 27430708 27112894 26810394 
2984.551 26528288 26271144 26042122 25843990 25679058 25548980 25454668 
2987.926 25395646 25369160 25369196 25385670 25405026 25410824 25384898 
2991.301 25311484 25178884 24981774 24722950 24412754 24067648 23705810 
2994.676 23345846 23002986 22686822 22402042 22148830 21924234 21723896 
2998.052 21543460 21379284 21228566 21089378 20960354 20840196 20727894 
3001.427 20622498 20523032 20428626 20337956 20249700 20162538 20075430 
3004.802 19987852 19900360 19814204 19731118 19652726 19580310 19513972 
3008.177 19453224 19396744 19343218 19291256 19240616 19191334 19144168 
3011.552 19099812 19059098 19022194 18988928 18958952 18931782 18906794 
3014.928 18884022 18863432 18845576 18831146 18821182 18816474 18817652 
3018.303 18824712 18837306 18854090 18873122 18892016 18908420 18919980 
3021.678 18924824 18922126 18911640 18893816 18869696 18840524 18807618 
3025.053 18772326 18735932 18699920 18665538 18634096 18606634 18583604 
3028.429 18564756 18549022 18534568 18519248 18501374 18479936 18454906 
3031.804 18427006 18397552 18367722 18338170 18308550 18278208 18246414 
3035.179 18212932 18178208 18143798 18111876 18084242 18062480 18047280 
3038.554 18038438 18035018 18036158 18040856 18048420 18058196 18069698 
3041.930 18082410 18095986 18110044 18124588 18139652 18155438 18171746 
3045.305 18188296 18204190 18218460 18230346 18239952 18247658 18254708 
3048.680 18262208 18271088 18281698 18293794 18306856 18319886 18332296 
3052.055 18343666 18353240 18360152 18363402 18361674 18354036 18340348 
3055.431 18321270 18298700 18274924 18252256 18232594 18216940 18205260 
3058.806 18197176 18191786 18188574 18186982 18186844 18187536 18188780 
3062.181 18190300 18191440 18191994 18192098 18191614 18191026 18190474 
3065.556 18190336 18190748 18192268 18195414 18200700 18208682 18219392 
3068.932 18232352 18247036 18262518 18278380 18294276 18310728 18328182 
3072.307 18347226 18367930 18390088 18413040 18436064 18458640 18480560 
3075.682 18501720 18522846 18544422 18567038 18591004 18616700 18643816 
3079.057 18672282 18701166 18729464 18756412 18780838 18802532 18821872 
3082.433 18839554 18856892 18874816 18893816 18913508 18933374 18952272 
3085.808 18969958 18986400 19002256 19018454 19035972 19055496 19077066 
3089.183 19100784 19126580 19154764 19185620 19219490 19255994 19294270 
3092.558 19332686 19370032 19404990 19437698 19468678 19499624 19531924 
3095.934 19566516 19603846 19643192 19683580 19724112 19763886 19802690 
3099.309 19840216 19876496 19911356 19945214 19978102 20010820 20044372 
3102.684 20079488 20116518 20155112 20194334 20232968 20270112 20305874 
3106.059 20341150 20377542 20416228 20458356 20503304 20549954 20596684 
3109.435 20642058 20685460 20727268 20768488 20809918 20852538 20896378 
3112.810 20941090 20986434 21031886 21077586 21123676 21170290 21217086 
3116.185 21263710 21309608 21354434 21398220 21441592 21485108 21529220 
3119.560 21573720 21618154 21661374 21702962 21742812 21781760 21821232 
3122.936 21862522 21906220 21952222 21999238 22045984 22090814 22133384 
3126.311 22174040 22214038 22254842 22297740 22343540 22391892 22442062 
3129.686 22493040 22543746 22593622 22642244 22689790 22736644 22783258 
3133.061 22829946 22877304 22925750 22975458 23026568 23079084 23132620 
3136.437 23186756 23240934 23294734 23347770 23399976 23451486 23502654 
3139.812 23553968 23605742 23658432 23712074 23766316 23820952 23875734 
3143.187 23930206 23984372 24038264 24092584 24147962 24204640 24262940 
3146.562 24322544 24382926 24443528 24503892 24563808 24623628 24684160 
3149.938 24745996 24809910 24876184 24945100 25015888 25087988 25160484 
3153.313 25232678 25303934 25373938 25442372 25509658 25575722 25641094 
3156.688 25706338 25771904 25838750 25907466 25978552 26052430 26128606 
3160.063 26206592 26285014 26362920 26439434 26513952 26586654 26658556 
3163.438 26730468 26803592 26878562 26955554 27034428 27115010 27197158 
3166.814 27280804 27365912 27452522 27540098 27627342 27712836 27794604 
3170.189 27871300 27942036 28006810 28066506 28122428 28175846 28227998 
3173.564 28279342 28329950 28379504 28427468 28473176 28516058 28556044 
3176.939 28593412 28628908 28663772 28699414 28737434 28779280 28825484 
3180.315 28876120 28930624 28988002 29047300 29107634 29168650 29230102 
3183.690 29292092 29354304 29416418 29477868 29537980 29596432 29653046 
3187.065 29708320 29762642 29817398 29873546 29931866 29993424 30058292 
3190.440 30126404 30197188 30269478 30342062 30413986 30484426 30553422 
3193.816 30621470 30689418 30758126 30828232 30899878 30972890 31046732 
3197.191 31121190 31196304 31272002 31348672 31425998 31503764 31581224 
3200.566 31657234 31731262 31803098 31873514 31943298 32013882 32086120 
3203.941 32160506 32236512 32313462 32390352 32466222 32540568 32613426 
3207.317 32685402 32757320 32829930 32904554 32981690 33061632 33143982 
3210.692 33227924 33312130 33395282 33476408 33555544 33632908 33709780 
3214.067 33787812 33867904 33950944 34036404 34123348 34210204 34295532 
3217.442 34378336 34458248 34535732 34611940 34688092 34765476 34845384 
3220.818 34928076 35013760 35101660 35191332 35281852 35372712 35463484 
3224.193 35554168 35644872 35735772 35826404 35916660 36005856 36093372 
3227.568 36179256 36263748 36347684 36432028 36517692 36605136 36694612 
3230.943 36785808 36878280 36971568 37065128 37158640 37251700 37344348 
3234.319 37436216 37527568 37619044 37711156 37804768 37900820 37999684 
3237.694 38101172 38204888 38310224 38416524 38523576 38631456 38739896 
3241.069 38849060 38958032 39066412 39173624 39279776 39385700 39493208 
3244.444 39603868 39719672 39841568 39969428 40101864 40237432 40373696 
3247.820 40509088 40642636 40773936 40902976 41030124 41155820 41280708 
3251.195 41405128 41529436 41653628 41777900 41901912 42025848 42149788 
3254.570 42274640 42401240 42530764 42663800 42800356 42939472 43079624 
3257.945 43218868 43355668 43488736 43618112 43744376 43868216 43990260 
3261.321 44110908 44229832 44346584 44460760 44572028 44679836 44784328 
3264.696 44885324 44983104 45077820 45169980 45260252 45349508 45438196 
3268.071 45526496 45614152 45700800 45785548 45867768 45947168 46023896 
3271.446 46098020 46169652 46238828 46305208 46368876 46429712 46487788 
3274.822 46543516 46596920 46647756 46695384 46739108 46778332 46812984 
3278.197 46843692 46871780 46898652 46926116 46955356 46987472 47023284 
3281.572 47062980 47106812 47154492 47205060 47256776 47307464 47354980 
3284.947 47397812 47435284 47468288 47498340 47527432 47556708 47586764 
3288.323 47617600 47648252 47678276 47707272 47735560 47763412 47791040 
3291.698 47818228 47844456 47869500 47893216 47916712 47941204 47968324 
3295.073 47999040 48033272 48069840 48106740 48142388 48175152 48204584 
3298.448 48231164 48255496 48278156 48299672 48320072 48339596 48358632 
3301.823 48378184 48399744 48424524 48453896 48488016 48527328 48570828 
3305.199 48617888 48667588 48718740 48770080 48820392 48868408 48913720 
3308.574 48956668 48998432 49041196 49087680 49140028 49199660 49267164 
3311.949 49342288 49424188 49511964 49604332 49700764 49800008 49900760 
3315.324 50001944 50102484 50202004 50301212 50400892 50502896 50608244 
3318.700 50717676 50830856 50947048 51065024 51183740 51302788 51421756 
3322.075 51540604 51659152 51776684 51892644 52006100 52116740 52224456 
3325.450 52330036 52433920 52536740 52638880 52739584 52838288 52933644 
3328.825 53024008 53107876 53183852 53251084 53309672 53360432 53404756 
3332.201 53443880 53479028 53509688 53534684 53551552 53558260 53553164 
3335.576 53536484 53509460 53474796 53435036 53391756 53345036 53294276 
3338.951 53237560 53173444 53101400 53021612 52935328 52843452 52746804 
3342.326 52645276 52538312 52425136 52304620 52176180 52039044 51892944 
3345.702 51737716 51574032 51402920 51226536 51047396 50868180 50690864 
3349.077 50516220 50343848 50172324 49999640 49824348 49645896 49464620 
3352.452 49281084 49096248 48910788 48724820 48538668 48352816 48167708 
3355.827 47984352 47803468 47625292 47449516 47275248 47101828 46928888 
3359.203 46756524 46585896 46417764 46253052 46091976 45933948 45778732 
3362.578 45625896 45475796 45328504 45184576 45044184 44906560 44770884 
3365.953 44635988 44501396 44367572 44235076 44105224 43979040 43856560 
3369.328 43737704 43621740 43507968 43396272 43286952 43180000 43075340 
3372.704 42972284 42869432 42765548 42659636 42551520 42441900 42332128 
3376.079 42222924 42114884 42007856 41901292 41794464 41687364 41579968 
3379.454 41472964 41366640 41260924 41154872 41047716 40938000 40825216 
3382.829 40709408 40591012 40470536 40348748 40225436 40100776 39975132 
3386.205 39848872 39723372 39600272 39480760 39366220 39256600 39151504 
3389.580 39048976 38947664 38845220 38740224 38631816 38520032 38405524 
3392.955 38290140 38175908 38064564 37957156 37853460 37751812 37649760 
3396.330 37544404 37434052 37318496 37199644 37080180 36963560 36852132 
3399.706 36746680 36646156 36548184 36450048 36349304 36244804 36136692 
3403.081 36025904 35913960 35802116 35691524 35582544 35475276 35369696 
3406.456 35265644 35162444 35059056 34954648 34848080 34738664 34626116 
3409.831 34510476 34392288 34272192 34150520 34027732 33903976 33779256 
3413.207 33654068 33528772 33403474 33278398 33153460 33028920 32904554 
3416.582 32780938 32658718 32538280 32420054 32303646 32188232 32072742 
3419.957 31956174 31837966 31718324 31598114 31478290 31359856 31243622 
3423.332 31130232 31019648 30912686 30809308 30709724 30613610 30519652 
3426.708 30425748 30329592 30229158 30123490 30013236 29899952 29785780 
3430.083 29673090 29562948 29455634 29350830 29247822 29146292 29046980 
3433.458 28950244 28857070 28767312 28680478 28594756 28508698 28420784 
3436.833 28330268 28237580 28143532 28048834 27953910 27858192 27760942 
3440.208 27661242 27558670 27453720 27347914 27242982 27140650 27041728 
3443.584 26945434 26849906 26752246 26649570 26539594 26421828 26298004 
3446.959 26171186 26046168 25927200 25817580 25718430 25628862 25546096 
3450.334 25467000 25387672 25306076 25220492 25130746 25037336 24940856 
3453.709 24841836 24740734 24637902 24533480 24427684 24320896 24213608 
3457.085 24106068 23998520 23891172 23784342 23678202 23573312 23469706 
3460.460 23367666 23267116 23167918 23070314 22973990 22879504 22786750 
3463.835 22695446 22604266 22511500 22415824 22315878 22211666 22104410 
3467.210 21996520 21890258 21787784 21689762 21595624 21503594 21411690 
3470.586 21317926 21221748 21123432 21023436 20923080 20823268 20724314 
3473.961 20626770 20530606 20436406 20344484 20255636 20169966 20087610 
3477.336 20007940 19930158 19852632 19773872 19692214 19606516 19516190 
3480.711 19421828 19324268 19226312 19130490 19039502 18955214 18877794 
3484.087 18805922 18737176 18668304 18596642 18520148 18438450 18351754 
3487.462 18261586 18169224 18075950 17983146 17891844 17802980 17717964 
3490.837 17637554 17562368 17492026 17425282 17360340 17295168 17227594 
3494.212 17156374 17081134 17002014 16920016 16836482 16753100 16671561 
3497.588 16593479 16519919 16451260 16387496 16327148 16268633 16209986 
3500.963 16149284 16085153 16017320 15946161 15872780 15798999 15726984 
3504.338 15658380 15594665 15536281 15483056 15432859 15383389 15332001 
3507.713 15276536 15216342 15152761 15088707 15027374 14972222 14924313 
3511.089 14883369 14847059 14812328 14776709 14738727 14698007 14655646 
3514.464 14612706 14570044 14527148 14483399 14437633 14389988 14340876 
3517.839 14292043 14245304 14202165 14162043 14124047 14085541 14043719 
3521.214 13996219 13942054 13880984 13814963 13746012 13676729 13608483 
3524.590 13542162 13476705 13410609 13341620 13268131 13188916 13105141 
3527.965 13018001 12930230 12844149 12761259 12681762 12605110 12529631 
3531.340 12454404 12378714 12302832 12227065 12151958 12076934 12001172 
3534.715 11923176 11842062 11757762 11671233 11584346 11499484 11417938 
3538.091 11340490 11266761 11196070 11127193 11059720 10993346 10928000 
3541.466 10863582 10799683 10735589 10670520 10603696 10534437 10462542 
3544.841 10387265 10308337 10225963 10140926 10055396 9972357 9895742 
3548.216 9828291 9771254 9723542 9681426 9640364 9595444 9543383 9483437 
3552.074 9417641 9349451 9282932 9221431 9166638 9118824 9077071 9039788 
3555.931 9005654 8972605 8938781 8901949 8859642 8810644 8754754 8693430 
3559.789 8629781 8567731 8510859 8461258 8420075 8386158 8357920 8332249 
3563.646 8306242 8276050 8237552 8186395 8119344 8035089 7935799 7827930 
3567.503 7720121 7621275 7538127 7472997 7424189 7387047 7356379 7327499 
3571.361 7297610 7265735 7231841 7196097 7159009 7119667 7078004 7034157 
3575.218 6988934 6943850 6900791 6860530 6823200 6787658 6752321 6716078 
3579.076 6678425 6640169 6602456 6567200 6535413 6507529 6483481 6463168 
3582.933 6445949 6431220 6417970 6404015 6386127 6359799 6320866 6266068 
3586.791 6195145 6111935 6023566 5938877 5866160 5810481 5773712 5753297 
3590.648 5745239 5743460 5742721 5737785 5725061 5702164 5669030 5627070 
3594.505 5579778 5531383 5486082 5447126 5416191 5392909 5374827 5358188 
3598.363 5339101 5313877 5280470 5238514 5189923 5138152 5087628 5042305 
3602.220 5005669 4979458 4964242 4958946 4961997 4970509 4980631 4988139 
3606.078 4988105 4975838 4949026 4907807 4855399 4798877 4746081 4703373 
3609.935 4673463 4654339 4640240 4624265 4600154 4565497 4522170 4476538 
3613.792 4436267 4407882 4394560 4394593 4402158 4409053 4407112 4389606 
3617.650 4352991 4297471 4227672 4151059 4075731 4009914 3958819 3924613 
3621.507 3906258 3901343 3906525 3919398 3938857 3965071 3998945 4040447 
3625.365 4086903 4131925 4165544 4174544 4146041 4072487 3956611 3814894 
3629.222 3673089 3558155 3485602 3456477 3460351 3481761 3506278 3523080 
3633.080 3527623 3520808 3507814 3494587 3485736 3482629 3482997 3482963 
3636.937 3478220 3466597 3447994 3424783 3400204 3377363 3358096 3342736 
3640.794 3330649 3320999 3314121 3311250 3315190 3328078 3351484 3384509 
3644.652 3424315 3465361 3500867 3524082 3528825 3511956 3472142 3411257 
3648.509 3333320 3243779 3149350 3058412 2980338 2923692 2894605 2894605 
3652.367 2919690 2961555 3007729 3045299 3063084 3053007 3013935 2952648 
3656.224 2882497 2817894 2770840 2746132 2741664 2750500 2764972 2778710 
3660.082 2787914 2791549 2790648 2786914 2781945 2777009 2773108 2771507 
3663.939 2773608 2781445 2796918 2820962 2853246 2891803 2932599 2969295 
3667.796 2995418 3004259 2992282 2961655 2921858 2889402 2881897 2912585 
3671.654 2986143 3097255 3232930 3375426 3507246 3609638 3668478 3677433 
3675.511 3640677 3570783 3483130 3388282 3289949 3187366 3079668 2968695 
3679.369 2861218 2766439 2692851 2644744 2620542 2613942 2617342 2624242 
3683.226 2632909 2644544 2662812 2689584 2723758 2759136 2787147 2797451 
3687.083 2782245 2739229 2672947 2593909 2514584 2445671 2392993 2356746 
3690.941 2335059 2325365 2326098 2335825 2353681 2377201 2403222 2427844 
3694.798 2447503 2460566 2467397 2470862 2474761 2482459 2495989 2514484 
3698.656 2535114 2552845 2562277 2559944 2544046 2516417 2481892 2447637 
3702.513 2420014 2404288 2402888 2415316 2439306 2471529 2508719 2548712 
3706.371 2589742 2630943 2670980 2708121 2739329 2760303 2766472 2754034 
3710.228 2721258 2669947 2605108 2536080 2473262 2425545 2398591 2393393 
3714.085 2406454 2431909 2463331 2495089 2523249 2546546 2565543 2582142 
3717.943 2598509 2615209 2631309 2644577 2651378 2649377 2638077 2619575 
3721.800 2598275 2579142 2566310 2561511 2563310 2567810 2570443 2567477 
3725.658 2558311 2545646 2535047 2534147 2548379 2580176 2627609 2685449 
3729.515 2745665 2799786 2841040 2866021 2874993 2871858 2861918 2848744 
3733.373 2832135 2807823 2770073 2715489 2646111 2571343 2504587 2459766 
3737.230 2444005 2457200 2492723 2542146 2598675 2658545 2721958 2790015 
3741.087 2861651 2931765 2988712 3016304 2998921 2928363 2813425 2681682 
3744.945 2572643 2516284 2521683 2577109 2659312 2744865 2812125 2847710 
3748.802 2846943 2813225 2756035 2686950 2615809 2547846 2487324 2438207 
3752.660 2405854 2394926 2407520 2440939 2488324 2539780 2586475 2620875 
3756.517 2640043 2644077 2636776 2622442 2604409 2585675 2568143 2554611 
3760.375 2549012 2555078 2575076 2607108 2645910 2683082 2709721 2719857 
3764.232 2711922 2690484 2664179 2643210 2634976 2640577 2655311 2670980 
3768.089 2679281 2674081 2654378 2623776 2589875 2560144 2540213 2531781 
3771.947 2533681 2542580 2555244 2569310 2584009 2600008 2618309 2639843 
3775.804 2664379 2689617 2712122 2727059 2730593 2720157 2697185 2666213 
3779.662 2634743 2610275 2598075 2599075 2610342 2625909 2639377 2646177 
3783.519 2644844 2636510 2625309 2615009 2608908 2607708 2610175 2614308 
3787.376 2618442 2621642 2624042 2626509 2629543 2633409 2637710 2643010 
3791.234 2649611 2659212 2673081 2691351 2712722 2733628 2749466 2756635 
3795.091 2753367 2742264 2729260 2723258 2731294 2756435 2795951 2841640 
3798.949 2881130 2901010 2890603 2845509 2771874 2685383 2608675 2562244 
3802.806 2555444 2585675 2639977 2701586 2751900 2777043 2769740 2731694 
3806.664 2674047 2613742 2568177 2547179 2551512 2574376 2606942 2641510 
3810.521 2674714 2707187 2742097 2782745 2828833 2876127 2915253 2936302 
3814.378 2930097 2894305 2835570 2771307 2722491 2706054 2728093 2782145 
3818.236 2852779 2919389 2962089 2966126 2924927 2844608 2743698 2648711 
3822.093 2581142 2552978 2561944 2596975 2642843 2685216 2714889 2728193 
3825.951 2727426 2719424 2712989 2715189 2729093 2753234 2783079 2812725 
3829.808 2836704 2852079 2858249 2857649 2854414 2853313 2858650 2872658 
3833.666 2894539 2921124 2947477 2966793 2971997 2958720 2925494 2875460 
3837.523 2816694 2759736 2714389 2686383 2676114 2679315 2689683 2700386 
3841.380 2706854 2707154 2702020 2693784 2686316 2683549 2688150 2702320 
3845.238 2726892 2760703 2802387 2849444 2899609 2951414 3005160 3061349 
3849.095 3121383 3185197 3249387 3305841 3341500 3340432 3286444 3172113 
3852.953 3005260 2814059 2637443 2509252 2445771 2442938 2484758 2551812 
3856.810 2628809 2704520 2773141 2832268 2881330 2920623 2950713 2971931 
3860.667 2984975 2991448 2992649 2989379 2981639 2967694 2946643 2919256 
3864.525 2889869 2865420 2854247 2861651 2887601 2925360 2963157 2987377 
3868.382 2986176 2954316 2896207 2826332 2764104 2724792 2714456 2727959 
3872.240 2753834 2778243 2791515 2790015 2777743 2764538 2760537 2774075 
3876.097 2807289 2856081 2911784 2964591 3004293 3023277 3018306 2991281 
3879.955 2949813 2905413 2870557 2855047 2862485 2889702 2927195 2963590 
3883.812 2985509 2983507 2954817 2905446 2849478 2804388 2785013 2796918 
3887.669 2836337 2891870 2949245 2995018 3018406 3015236 2987978 2945509 
3891.527 2899742 2862385 2841040 2838105 2851846 2878795 2914819 2956918 
3895.384 3002591 3049804 3095686 3137202 3170477 3191906 3199449 3193308 
3899.242 3176452 3153622 3129726 3108634 3091181 3075330 3057111 3033320 
3903.099 3001623 2963424 2922959 2886500 2860284 2847910 2850412 2865620 
3906.957 2889535 2917355 2944708 2968828 2987778 3001357 3010398 3016537 
3910.814 3021642 3028382 3038859 3054642 3076031 3101593 3128525 3152955 
3914.671 3170511 3178221 3174883 3161532 3141474 3118479 3096187 3076732 
3918.529 3060314 3046634 3034588 3024812 3018206 3016604 3020841 3030184 
3922.386 3042563 3053908 3060715 3060848 3054008 3043297 3032786 3027248 
3926.244 3029383 3039660 3056510 3076565 3096621 3113740 3126522 3134232 
3930.101 3136768 3134265 3126722 3114541 3098589 3081070 3064752 3052573 
3933.958 3046600 3047401 3053674 3062817 3071927 3078501 3081704 3081871 
3937.816 3081070 3081737 3085375 3092516 3101993 3111471 3117912 3119214 
3941.673 3114141 3103395 3089546 3075698 3065386 3060982 3063184 3071059 
3945.531 3082371 3094285 3103962 3109669 3111104 3108835 3104663 3100158 
3949.388 3097088 3096087 3097155 3100125 3104730 3110770 3118146 3126456 
3953.246 3135066 3142675 3147982 3149951 3147949 3143276 3137102 3131829 
3957.103 3128992 3129326 3132529 3136735 3140373 3141173 3139104 3134165 
3960.960 3127724 3121950 3118413 3118379 3122117 3128992 3137903 3147081 
3964.818 3155358 3161132 3163935 3163335 3160231 3155525 3150785 3147682 
3968.675 3147348 3150085 3155458 3162467 3169876 3176352 3181258 3184296 
3972.533 3185898 3186331 3186198 3185731 3185130 3184663 3184930 3186098 
3976.390 3189069 3193942 3200718 3208962 3218342 3227689 3236635 3245014 
3980.248 3252392 3258634 3263575 3266780 3267748 3265946 3261272 3254395 
3984.105 3246116 3237603 3229992 3224952 3222248 3222214 3224351 3227455 
3987.962 3230960 3233798 3235734 3236468 3236368 3235867 3235367 3235200 
3991.820 3234933 3234399 3233030 3230660 3227322 3223750 3221113 3220646 
3995.677 3223116 3228891 3237303 3247251 3257132 3265411 3271154 3274058 
3999.535 3273991 3271988 3268616 
##END=
