
##TITLE=mdmaHCL00386_3
##JCAMP-DX=5.01  $$ Nicolet v. 1
##DATATYPE=INFRARED SPECTRUM
##ORIGIN=UniL
##OWNER=Nicolet
##LONGDATE=2011/08/23
##TIME=16:54:06
##SPECTROMETER/DATA SYSTEM=Nicolet iS5
##DATA PROCESSING=
Ratio against background
%Transmittance->Absorbance
Truncated
ElementMultiply or ElementDivide
##COMMENTS=
Number of sample scans: 32
Collection length: 51.23 sec
Sample gain: 2.0
Background collected on: Mar Aout 23 16:41:07 2011 (GMT+02:00);
Number of background scans: 32
Background gain: 2.0
Sample spacing:  1.000
Number of scan points: 12415
Resolution points: 8192
Number of FFT points: 65536
Apodization: N-B fort;
Phase correction: Mertz;
Laser frequency: 15798.0 cm-1
Number of rejected sample scans: 0
Number of rejected background scans: 0
Bench serial number: ASB1000141;
##RESOLUTION=4.000
##XUNITS=1/CM
##YUNITS=ABSORBANCE
##FIRSTX=649.893372
##LASTX=4000.122314
##FIRSTY=0.073633
##MAXX=4000.122314
##MINX=649.893372
##MAXY=0.207343
##MINY=0.002629
##XFACTOR=1.000000
##YFACTOR=1.000000E-009
##NPOINTS=6950
##DELTAX=0.482117
##ZPD=6100
##XYDATA=(X++(Y..Y))
649.893 73632736 73462400 73374856 73385808 73486688 73652680 73857376 
653.268 74087520 74346680 74651608 75018608 75452960 75943200 76467704 
656.643 77001856 77528184 78040240 78536352 79011888 79456824 79854392 
660.018 80191096 80466528 80696416 80909288 81134816 81393264 81684824 
663.393 81990864 82278368 82512056 82659160 82686424 82559864 82244696 
666.767 81722096 81017288 80231912 79523432 79017408 78744120 78635784 
670.142 78584072 78479064 78238136 77818936 77217712 76469240 75628456 
673.517 74755344 73891192 73049896 72225880 71407600 70592072 69789232 
676.892 69017432 68292520 67619272 66989192 66387364 65801860 65232784 
680.267 64692332 64199180 63766988 63398056 63079892 62794244 62521600 
683.642 62251384 61983900 61726624 61487284 61268984 61068416 60880212 
687.016 60702348 60540356 60405196 60309020 60256524 60241068 60244572 
690.391 60243392 60219640 60166240 60091008 60010424 59943164 59901060 
693.766 59884440 59884592 59887784 59883492 59866792 59838764 59803168 
697.141 59762828 59717736 59665692 59606316 59543952 59486684 59445228 
700.516 59426840 59431972 59452980 59477452 59492612 59490068 59468480 
703.890 59431628 59384940 59331224 59269048 59193932 59102200 58993788 
707.265 58873712 58749916 58630824 58521052 58421120 58328760 58242588 
710.640 58165148 58104012 58069544 58071136 58112420 58187804 58281388 
714.015 58367340 58415436 58393072 58269488 58022772 57641096 57128784 
717.390 56506636 55815072 55109820 54450556 53898664 53502452 53288208 
720.765 53258160 53386812 53625212 53900424 54129124 54227696 54119368 
724.139 53756140 53127008 52265192 51241300 50150940 49095396 48151200 
727.514 47364552 46744128 46270672 45908464 45621112 45381804 45173068 
730.889 44984756 44809200 44636320 44455072 44258152 44044936 43823828 
734.264 43609208 43415936 43252396 43117932 43003632 42897996 42791908 
737.639 42683032 42574328 42471896 42379652 42295928 42216172 42134344 
741.013 42048188 41960848 41879616 41811464 41759732 41721836 41690724 
744.388 41659320 41624168 41587552 41555868 41534760 41524732 41519192 
747.763 41507120 41477376 41423716 41348452 41260412 41171264 41089708 
751.138 41018432 40954784 40893908 40832864 40773060 40719744 40678516 
754.513 40651988 40637944 40630376 40623500 40615280 40608296 40609348 
757.888 40623900 40654136 40696420 40744308 40791404 40836648 40884296 
761.262 40943024 41020256 41119828 41240156 41377756 41530640 41703344 
764.637 41905852 42152492 42456112 42823720 43256132 43749616 44299100 
768.012 44899724 45546220 46232232 46949596 47696844 48489688 49377968 
771.387 50445396 51800952 53548852 55734184 58299124 61042332 63650644 
774.762 65719172 66848956 66775420 65419912 62936896 59649460 55994196 
778.136 52396500 49171420 46514600 44473788 42991088 41945628 41209116 
781.511 40677968 40280144 39979348 39760084 39615444 39541476 39535704 
784.886 39598204 39732088 39943276 40236452 40613348 41074008 41619716 
788.261 42256120 42997600 43864696 44879996 46065892 47440088 49016528 
791.636 50810856 52842440 55135400 57714128 60592464 63760348 67170048 
795.010 70734256 74320768 77752312 80835608 83360336 85121584 85960248 
798.385 85772856 84543144 82346008 79346944 75776336 71879920 67911872 
801.760 64088488 60564276 57441288 54757940 52502716 50630172 49079408 
805.135 47791964 46719624 45835804 45132444 44613628 44285080 44143040 
808.510 44164348 44306952 44508552 44696508 44805376 44780732 44590200 
811.885 44224144 43691168 43012120 42213140 41324472 40377512 39403476 
815.259 38435964 37506328 36640352 35858072 35169344 34575808 34072632 
818.634 33652312 33307768 33033922 32829288 32694190 32630392 32640752 
822.009 32728702 32899406 33159648 33517640 33981544 34556864 35244692 
825.384 36038540 36923552 37871536 38841812 39781288 40621608 41290692 
828.759 41721800 41862468 41690980 41221100 40503852 39612760 38637032 
832.133 37666272 36771272 36004128 35391980 34937380 34622776 34414668 
835.508 34272084 34147652 33997380 33788712 33502572 33138904 32713414 
838.883 32254216 31791974 31353298 30956948 30611548 30318080 30073916 
842.258 29876492 29724178 29616330 29551350 29524714 29529254 29556882 
845.633 29600332 29655388 29721234 29799334 29891150 29996868 30115110 
849.008 30244396 30384526 30537780 30708338 30900520 31116920 31357396 
852.382 31619030 31898688 32195046 32510214 32849730 33220376 33628072 
855.757 34076292 34565620 35095944 35668792 36289144 36966340 37712636 
859.132 38541100 39464976 40496288 41645572 42922208 44331828 45871228 
862.507 47522148 49246196 50982484 52644716 54135920 55356620 56213512 
865.882 56640628 56602428 56100688 55173848 53896148 52369548 50702704 
869.256 49008740 47388092 45913508 44636064 43579908 42748252 42129380 
872.631 41702684 41444132 41325204 41316020 41385484 41500232 41631128 
876.006 41755212 41859040 41940192 42005704 42068744 42143216 42241620 
879.381 42373916 42546880 42766680 43040440 43373900 43772996 44239404 
882.756 44770556 45358040 45988904 46647756 47317292 47980760 48623632 
886.131 49234284 49807516 50346228 50863076 51378636 51917776 52504772 
889.505 53155356 53873304 54648580 55461684 56286680 57097416 57872948 
892.880 58595936 59252372 59829636 60312976 60686456 60935000 61044428 
896.255 61004504 60809128 60455920 59947200 59290584 58501372 57602428 
899.630 56624360 55604504 54580080 53585360 52649464 51791428 51023548 
903.005 50352072 49779272 49305876 48930892 48651612 48462380 48354924 
906.379 48320296 48349848 48438156 48583132 48785948 49049136 49374736 
909.754 49762888 50212604 50722736 51292792 51923864 52617260 53372832 
913.129 54187228 55053924 55964904 56914628 57902744 58936672 60030660 
916.504 61204472 62479856 63876128 65409860 67091928 68924768 70898928 
919.879 72987888 75145904 77301360 79367272 81252896 82874336 84181000 
923.254 85167024 85880976 86417504 86912472 87527072 88412592 89703952 
926.628 91495880 93822848 96651728 99867832 103287912 106641896 109602368 
930.003 111834936 113000896 112835200 111191528 108062432 103599216 98084088 
933.378 91912032 85500848 79241712 73471968 68413672 64190844 60841068 
936.753 58335544 56610016 55586048 55191532 55356580 56007988 57063748 
940.128 58409752 59900188 61373504 62650272 63570320 64021668 63947572 
943.502 63363740 62346960 61026048 59548052 58052996 56663056 55456788 
946.877 54474480 53722840 53184868 52832076 52632372 52559028 52588988 
950.252 52703668 52887984 53128020 53411352 53728992 54074932 54447328 
953.627 54846656 55274088 55729740 56211852 56716740 57240660 57781036 
957.002 58336908 58908628 59496640 60099568 60713964 61335304 61958676 
960.377 62581532 63203820 63827924 64456620 65091500 65731852 66375316 
963.751 67019196 67662440 68306560 68955136 69612184 70280008 70958648 
967.126 71645584 72338544 73036720 73742512 74461008 75198768 75960848 
970.501 76749880 77566608 78411032 79284384 80191216 81137888 82131424 
973.876 83177192 84276736 85428808 86630208 87878872 89174392 90518344 
977.251 91911832 93353264 94836640 96351984 97886288 99427112 100963064 
980.625 102483480 103977328 105430720 106826400 108146664 109376320 
983.518 110507016 111538712 112478312 113336624 114121912 114838472 
986.411 115485888 116061840 116565584 117000624 117374968 117699576 
989.304 117985528 118242856 118481792 118713936 118954096 119221160 
992.196 119534192 119908632 120353032 120866712 121441800 122066568 
995.089 122730872 123427496 124152624 124903616 125675288 126458544 
997.982 127243328 128019616 128782408 129532800 130276248 131018968 
1000.874 131763800 132507664 133243488 133963736 134664048 135345968 
1003.767 136016592 136685664 137361552 138050064 138755664 139483664 
1006.660 140243712 141051088 141922528 142873392 143912320 145038448 
1009.552 146243360 147514256 148839664 150210992 151623392 153072752 
1012.445 154553152 156055664 157571184 159093552 160623424 162168464 
1015.338 163739888 165345312 166983024 168637536 170283504 171889904 
1018.231 173426592 174873280 176218528 177461056 178606464 179668080 
1021.123 180667824 181635824 182613632 183649056 184785648 186057952 
1024.016 187481728 189052416 190747952 192536896 194385936 196260480 
1026.909 198126944 199947552 201674160 203253744 204630336 205753408 
1029.802 206588688 207119072 207342736 207266960 206902944 206264112 
1032.695 205366960 204236256 202906496 201414608 199796032 198070816 
1035.588 196238448 194276768 192150528 189823872 187267440 184468992 
1038.481 181432864 178178016 174734224 171141280 167452496 163729072 
1041.374 160042768 156469616 153073840 149905376 146992384 144339616 
1044.267 141936096 139762736 137801328 136037664 134463312 133072944 
1047.160 131860656 130818160 129935352 129201280 128605496 128139096 
1050.053 127790720 127544952 127381520 127273264 127193496 127118496 
1052.947 127030816 126922384 126789704 126629696 126436280 126197128 
1055.840 125895024 125512600 125032800 124442320 123731160 122890760 
1058.733 121913640 120795600 119538168 118152720 116661016 115095368 
1061.626 113491976 111885128 110305696 108775952 107312240 105927600 
1064.519 104632312 103434448 102338016 101340432 100431616 99594360 98810344 
1067.894 98061496 97335536 96626392 95932496 95253696 94588320 93931728 
1071.269 93278056 92622376 91962312 91299744 90638512 89983736 89338792 
1074.645 88705856 88087024 87485168 86905344 86354400 85837040 85354920 
1078.020 84903696 84474920 84058304 83645784 83235144 82830304 82440424 
1081.395 82074944 81742216 81447544 81193848 80985664 80831336 80744464 
1084.770 80745416 80857560 81104744 81510976 82095920 82874776 83855616 
1088.146 85035296 86394376 87890720 89462624 91024664 92477384 93727496 
1091.521 94692680 95319424 95591256 95528000 95182368 94627248 93953240 
1094.896 93252136 92605104 92082968 91732416 91575984 91611736 91815128 
1098.271 92143880 92540400 92943112 93288000 93512640 93566360 93409920 
1101.646 93021712 92401752 91571552 90572048 89452896 88270216 87075816 
1105.022 85910056 84805120 83782752 82857048 82037120 81327168 80725696 
1108.397 80224296 79807960 79455904 79143024 78844664 78537504 78200016 
1111.772 77813944 77362608 76830664 76206400 75483120 74660928 73747064 
1115.147 72755384 71703584 70609336 69490696 68363992 67243688 66144632 
1118.523 65080376 64062372 63099632 62196320 61352704 60565384 59829296 
1121.898 59138004 58483404 57855228 57238808 56614020 55958688 55250492 
1125.273 54472720 53619096 52696112 51722824 50725380 49735060 48781200 
1128.648 47886112 47065788 46328212 45674000 45098144 44591160 44140324 
1132.024 43729568 43342856 42965480 42586096 42199700 41807304 41416208 
1135.399 41037336 40684044 40370784 40109856 39912540 39787496 39739712 
1138.774 39769920 39873460 40040748 40257424 40507164 40774844 41047568 
1142.149 41316784 41578256 41829888 42070896 42300568 42518340 42724412 
1145.525 42920964 43111932 43302072 43495916 43696224 43903368 44115716 
1148.900 44331428 44549632 44771656 45000524 45239620 45492204 45759920 
1152.275 46042868 46340856 46653956 46983228 47329892 47694328 48075648 
1155.650 48469900 48871408 49273328 49667960 50048232 50406992 50735772 
1159.026 51025744 51266284 51446596 51557392 51591272 51542580 51407988 
1162.401 51184376 50868776 50458980 49953768 49354872 48666808 47897356 
1165.776 47055708 46151040 45192116 44186320 43140988 42064468 40966656 
1169.151 39859040 38755256 37667608 36607548 35584592 34604908 33673008 
1172.527 32791908 31963948 31191818 30478208 29825668 29236410 28711944 
1175.902 28252996 27859816 27532122 27269478 27071136 26935952 26862912 
1179.277 26851068 26901122 27014858 27196136 27450050 27781922 28196422 
1182.652 28696796 29285038 29962820 30732094 31595834 32557602 33620056 
1186.028 34783384 36043256 37390028 38806160 40266692 41740580 43186548 
1189.403 44558148 45806644 46882080 47743996 48365812 48738420 48872040 
1192.778 48793216 48540740 48155640 47677724 47140056 46563836 45960688 
1196.153 45332588 44675760 43984100 43252984 42482748 41679232 40854192 
1199.529 40022944 39202272 38407296 37649288 36935708 36270160 35653072 
1202.904 35083372 34559160 34077652 33634624 33224240 32838222 32466292 
1206.279 32098070 31723600 31335670 30930796 30508668 30072816 29628604 
1209.654 29183180 28744654 28321390 27922460 27556974 27233212 26959114 
1213.030 26740582 26582460 26488174 26460246 26500992 26612826 26797778 
1216.405 27057314 27391710 27799760 28279306 28827926 29443720 30126012 
1219.780 30874726 31689954 32571636 33519250 34532180 35611312 36759336 
1223.155 37980732 39281624 40667596 42141972 43704832 45352120 47075092 
1226.531 48859284 50685020 52524740 54340968 56090248 57721544 59179920 
1229.906 60415624 61383500 62049180 62393664 62414400 62129224 61575704 
1233.281 60814732 59924832 58992044 58111360 57371972 56849776 56612960 
1236.656 56712852 57187816 58066668 59366552 61093512 63239084 65779196 
1240.031 68668584 71837536 75200784 78650952 82063576 85313664 88266400 
1243.407 90792320 92784104 94156416 94862320 94897280 94297520 93133584 
1246.782 91497440 89503296 87271184 84918808 82562504 80294336 78175536 
1250.157 76228432 74430368 72718912 71000872 69180712 67173296 64924860 
1253.532 62426256 59712144 56854916 53943904 51079300 48351260 45824980 
1256.908 43542652 41517076 39737680 38176488 36796556 35560316 34431380 
1260.283 33381648 32391600 31448722 30547308 29685612 28863514 28081458 
1263.658 27339482 26637522 25975634 25355004 24777354 24244930 23758968 
1267.033 23320046 22926868 22576902 22267396 21996102 21761830 21564248 
1270.409 21403128 21277628 21185738 21124546 21090458 21080336 21091952 
1273.784 21123396 21173352 21239840 21320676 21413082 21514944 21624596 
1277.159 21740930 21862522 21986586 22108734 22222790 22322086 22401450 
1280.534 22457520 22489340 22497474 22482364 22443284 22377936 22283196 
1283.910 22157268 22001050 21819246 21620000 21413744 21211658 21023436 
1287.285 20857370 20719656 20614888 20546376 20515946 20523554 20566734 
1290.660 20640288 20738250 20854032 20982330 21120022 21265902 21419488 
1294.035 21580370 21747236 21918416 22092592 22270012 22452808 22644862 
1297.411 22851006 23075520 23321828 23592448 23888686 24211892 24563178 
1300.786 24942644 25348472 25775984 26218066 26665354 27107814 27536676 
1304.161 27944934 28327474 28681610 29005854 29300598 29568092 29813282 
1307.536 30042990 30265322 30488372 30717654 30955916 31202534 31454280 
1310.912 31707026 31956174 32198078 32428768 32644358 32840188 33011578 
1314.287 33154070 33264838 33342078 33385728 33395570 33371740 33313706 
1317.662 33221736 33097818 32947090 32777116 32598208 32420270 32251324 
1321.037 32096144 31956602 31832226 31722102 31627118 31549652 31494428 
1324.413 31467352 31475368 31526386 31628904 31792186 32025084 32332986 
1327.788 32715340 33162296 33654852 34164284 34658232 35106688 35484304 
1331.163 35777040 35981520 36105076 36161500 36169820 36150480 36122396 
1334.538 36102484 36104860 36138812 36209976 36320052 36468176 36651960 
1337.914 36869516 37120344 37405084 37725176 38080624 38469776 38888776 
1341.289 39331140 39787896 40246920 40692124 41101288 41449124 41707648 
1344.664 41850392 41858636 41722712 41443508 41030672 40499704 39869900 
1348.039 39160244 38391152 37583708 36758688 35939300 35148504 34407352 
1351.415 33734992 33145308 32645930 32239546 31923902 31694018 31542882 
1354.790 31462438 31443592 31475368 31546410 31645614 31763096 31891770 
1358.165 32026618 32163862 32300186 32430660 32550066 32654398 32743316 
1361.540 32823034 32906268 33012510 33163260 33377032 33667744 34042208 
1364.916 34501436 35042068 35656920 36333492 37049720 37775056 38468184 
1368.291 39078956 39559404 39865612 39964920 39840408 39490088 38927008 
1371.666 38176160 37276464 36278084 35235888 34211532 33261404 32427124 
1375.041 31732440 31179536 30755850 30441564 30219496 30080842 30028042 
1378.417 30073490 30238252 30549476 31034526 31718574 32617710 33729368 
1381.792 35021196 36420752 37824180 39093280 40078644 40649804 40697292 
1385.167 40158704 39029616 37378616 35346868 33123564 30922720 28919112 
1388.542 27218570 25856860 24811278 24029440 23449038 23016368 22687872 
1391.917 22430026 22219548 22038628 21874856 21722956 21583400 21462376 
1395.293 21367696 21305260 21276828 21278812 21303728 21342706 21386802 
1398.668 21429268 21466552 21498722 21528002 21557214 21587996 21620208 
1402.043 21652250 21682342 21709892 21736680 21767126 21807680 21864124 
1405.418 21940198 22036256 22150190 22278836 22419800 22572714 22739122 
1408.794 22920998 23119480 23333750 23561382 23799742 24047054 24304146 
1412.169 24573590 24858606 25161012 25480704 25815400 26162318 26519590 
1415.544 26886952 27265810 27657534 28061488 28475406 28895562 29320094 
1418.919 29750792 30194348 30658588 31146642 31655486 32175704 32696440 
1422.295 33207860 33707416 34201744 34706860 35243112 35829788 36480460 
1425.670 37199972 37987892 38840908 39755508 40725640 41737992 42770700 
1429.045 43789560 44753220 45623796 46372564 46988988 47481040 47873976 
1432.420 48202212 48501208 48805744 49145856 49549548 50049496 50684012 
1435.796 51494792 52519764 53774592 55246428 56899220 58683656 60545000 
1439.171 62419908 64237632 65905124 67312048 68354416 68938784 69006168 
1442.546 68539720 67559416 66114768 64269752 62102084 59689260 57100780 
1445.921 54405224 51665944 48950808 46343584 43934456 41807852 40022652 
1449.297 38595708 37505892 36708204 36156604 35815320 35664836 35698000 
1452.672 35910036 36290008 36822088 37484400 38256700 39126636 40083224 
1456.047 41114364 42196636 43294712 44366360 45376248 46305208 47146736 
1459.422 47901648 48573868 49169712 49696644 50161164 50567108 50910312 
1462.798 51176844 51347388 51402584 51335452 51159024 50905956 50616136 
1466.173 50320072 50032428 49751332 49465472 49160884 48824356 48442452 
1469.548 47995228 47452028 46772284 45913176 44852552 43609028 42256120 
1472.923 40898936 39638640 38536904 37605532 36824284 36165536 35615160 
1476.299 35179152 34880896 34745084 34789992 35018684 35423760 35994084 
1479.674 36724036 37617096 38684984 39941708 41396160 43048780 44891348 
1483.049 46912788 49104112 51464240 53996804 56701372 59565424 62547164 
1486.424 65562040 68490248 71167480 73401888 75005056 75803400 75681072 
1489.800 74614696 72691024 70097392 67066676 63834332 60575744 57388644 
1493.175 54315740 51354508 48488496 45715304 43055588 40560164 38299800 
1496.550 36340372 34721364 33444774 32485608 31803560 31358964 31121974 
1499.925 31070362 31187510 31458840 31867772 32395314 33020802 33716368 
1503.301 34447304 35169308 35813196 36284424 36462804 36216100 35454032 
1506.676 34182780 32520174 30639566 28691096 26759998 24872466 23028106 
1510.051 21226548 19475990 17802498 16241390 14822922 13568655 12483935 
1513.426 11559607 10777705 10115963 9551478 9060324 8621298 8219689 7849792 
1517.284 7516450 7231336 7004154 6836025 6715573 6619008 6518763 6392246 
1521.141 6234505 6063112 5909050 5799198 5741546 5725564 5729224 5730802 
1524.999 5714888 5678866 5630561 5583402 5548029 5527155 5516819 5511584 
1528.856 5509202 5513866 5533095 5573200 5633850 5706058 5772973 5815417 
1532.713 5820958 5791240 5744332 5705286 5695853 5724456 5786605 5870560 
1536.571 5963331 6055518 6139928 6211111 6262135 6283045 6263615 6199985 
1540.428 6101988 5990911 5891484 5821428 5783919 5770119 5763773 5751215 
1544.286 5725833 5692697 5663860 5653957 5671346 5714720 5774618 5837917 
1548.143 5893667 5935921 5965918 5989803 6014999 6045002 6078165 6108474 
1552.000 6129510 6137374 6133274 6123428 6116740 6122084 6144666 6185163 
1555.858 6239681 6301366 6357916 6390800 6375804 6289297 6124906 5907203 
1559.715 5686486 5510275 5401430 5359630 5368486 5407335 5455245 5496953 
1563.573 5524873 5539639 5549304 5565145 5596123 5644760 5706528 5771898 
1567.430 5830730 5874624 5899578 5906027 5899612 5888696 5882012 5888125 
1571.288 5913853 5963063 6036972 6132736 6243345 6356840 6458560 6535245 
1575.145 6579008 6594247 6597039 6611270 6655982 6739398 6859957 7011225 
1579.002 7187338 7385935 7608528 7858699 8139735 8452981 8797288 9169109 
1582.860 9563367 9972256 10384686 10785688 11155442 11473015 11720997 
1586.235 11888270 11974332 11989728 11956315 11902811 11862219 11869575 
1589.610 11955429 12144258 12452154 12882614 13423254 14043102 14695779 
1592.986 15318718 15842434 16205378 16357804 16273689 15955269 15432584 
1596.361 14756895 13987699 13187926 12409466 11689715 11054282 10515869 
1599.736 10078251 9738282 9488788 9320878 9225424 9196048 9229248 9323587 
1603.594 9478458 9691556 9957847 10269524 10615308 10980601 11348244 
1606.969 11695569 11996438 12224372 12353111 12363270 12245843 12003557 
1610.344 11652241 11218748 10739835 10252458 9789520 9374403 9017020 8715876 
1614.201 8460954 8237788 8031343 7829921 7630245 7438682 7269037 7135901 
1618.059 7049412 7010855 7014424 7048739 7100401 7156449 7205664 7240870 
1621.916 7260412 7268094 7271766 7280055 7299766 7333463 7380003 7436020 
1625.774 7497807 7561087 7621713 7675602 7719447 7752130 7775844 7796016 
1629.631 7820475 7855933 7907590 7975992 8058413 8148749 8238632 8319177 
1633.489 8380349 8411832 8404840 8354845 8266121 8152868 8036911 7937724 
1637.346 7867539 7828672 7815920 7819664 7829414 7837713 7840919 7840784 
1641.203 7842707 7852964 7875637 7910357 7951930 7991584 8019394 8025098 
1645.061 8001338 7944708 7857990 7751186 7640091 7544399 7481154 7461873 
1648.918 7490661 7564425 7673005 7798884 7918421 7998064 7999144 7893216 
1652.776 7684202 7422234 7178075 7004322 6911934 6883454 6892745 6917758 
1656.633 6944827 6966779 6982435 6992907 7000080 7004558 7004928 6998328 
1660.490 6980718 6947857 6896549 6825624 6738153 6641919 6547825 6468246 
1664.348 6412590 6384748 6382697 6398837 6422207 6439930 6439829 6413128 
1668.205 6356605 6273632 6173535 6069932 5975761 5901392 5852424 5829790 
1672.063 5829689 5843928 5861123 5867067 5847622 5794866 5711295 5611831 
1675.920 5517625 5447763 5410220 5401698 5410958 5425921 5438402 5447394 
1679.778 5458701 5481283 5522121 5580483 5645599 5696054 5705387 5649493 
1683.635 5519571 5332862 5130005 4955126 4832045 4762830 4733754 4728059 
1687.492 4730538 4731074 4724442 4708866 4685520 4657755 4631700 4614989 
1691.350 4614922 4636991 4682071 4744909 4813652 4872421 4904020 4896614 
1695.207 4850641 4783399 4723068 4692152 4699655 4736333 4781523 4807186 
1699.065 4785778 4701296 4559938 4394024 4245338 4145272 4100717 4100516 
1702.922 4124900 4154873 4175547 4177086 4157148 4120451 4076735 4036266 
1706.780 4006837 3991020 3987910 3994230 4006871 4024093 4046233 4075096 
1710.637 4112725 4160293 4217233 4281644 4350180 4419831 4488389 4554581 
1714.494 4617266 4674300 4720120 4747287 4747186 4714862 4652598 4572997 
1718.352 4494382 4433220 4399514 4393991 4410225 4438644 4469340 4495118 
1722.209 4512327 4520530 4522237 4521433 4522003 4526992 4538174 4556389 
1726.067 4581168 4610970 4642751 4672559 4696272 4711345 4718747 4723102 
1729.924 4730873 4747923 4775929 4809967 4836870 4837741 4792981 4690913 
1733.781 4537739 4360421 4197661 4080849 4020649 4010148 4032086 4067303 
1737.639 4097873 4111688 4103727 4076501 4039209 4003694 3980386 3974501 
1741.496 3985435 4009044 4039678 4072186 4103259 4132093 4159657 4187959 
1745.354 4219274 4254841 4294928 4338332 4383347 4427430 4468002 4501781 
1749.211 4525485 4535931 4531378 4512561 4484506 4455414 4434861 4429974 
1753.069 4443698 4473994 4513800 4553342 4583411 4596471 4590443 4568878 
1756.926 4540351 4514402 4497395 4490766 4490565 4490298 4481995 4460268 
1760.783 4423045 4372771 4315442 4259358 4212716 4181067 4166916 4169459 
1764.641 4185082 4208467 4232356 4250458 4257752 4253804 4242227 4230650 
1768.498 4227505 4237007 4258220 4283818 4303395 4305770 4284688 4241758 
1772.356 4187490 4136909 4102422 4090414 4099312 4123328 4155509 4190836 
1776.213 4227337 4264678 4303060 4341645 4377457 4407346 4428066 4439213 
1780.071 4443029 4444167 4447347 4455347 4467566 4480221 4488858 4489159 
1783.928 4479384 4461306 4439078 4418158 4403396 4398543 4405472 4424852 
1787.785 4456218 4498098 4547281 4598346 4644024 4675606 4685320 4668807 
1791.643 4626810 4566568 4498634 4434493 4381808 4343319 4317483 4300483 
1795.500 4288737 4279401 4271203 4263038 4254506 4244535 4231587 4214322 
1799.358 4191973 4165009 4134768 4103861 4074594 4049243 4029444 4016201 
1803.215 4009847 4010449 4017405 4029544 4045196 4062520 4079979 4096703 
1807.073 4112825 4128112 4143165 4157315 4170027 4179829 4186320 4189364 
1810.930 4190134 4190869 4193947 4201241 4213653 4230616 4251127 4273412 
1814.787 4296133 4318353 4339503 4359249 4378126 4396401 4414409 4432250 
1818.645 4450326 4468738 4488189 4509347 4532851 4558934 4587195 4615424 
1822.502 4639838 4655880 4659329 4647808 4623060 4590945 4560574 4540719 
1826.360 4537203 4550529 4576346 4605981 4629724 4640340 4634479 4615056 
1830.217 4589137 4565798 4552003 4550462 4559938 4576714 4597408 4619041 
1834.074 4641177 4664855 4691516 4722398 4757940 4797604 4840891 4887500 
1837.932 4938302 4994541 5057927 5129804 5210412 5298816 5392472 5487860 
1841.789 5579610 5661913 5729324 5779151 5812159 5834424 5855212 5883658 
1845.647 5925508 5981807 6049168 6121512 6191650 6254807 6307855 6350418 
1849.504 6383335 6407815 6423889 6430614 6426579 6411211 6385387 6351629 
1853.362 6313167 6272758 6231379 6187987 6140633 6087069 6026691 5960308 
1857.219 5890376 5819447 5749671 5681350 5614416 5548264 5483364 5420922 
1861.076 5362918 5311193 5266384 5228286 5196831 5171581 5154246 5146903 
1864.934 5151262 5167457 5192136 5219667 5242002 5252432 5246697 5225637 
1868.791 5194953 5162293 5135470 5119042 5113443 5116259 5123467 5131447 
1872.649 5137381 5139862 5138454 5133525 5125646 5115655 5104625 5093964 
1876.506 5083940 5074721 5065033 5052697 5035769 5012707 4983480 4949764 
1880.364 4913537 4877346 4842131 4808292 4774924 4741190 4707593 4675674 
1884.221 4647976 4627079 4614955 4611372 4614487 4621419 4629121 4634613 
1888.078 4636589 4633877 4627112 4617534 4607689 4599752 4596906 4600522 
1891.936 4610970 4627145 4646502 4665592 4682305 4695468 4705952 4715565 
1895.793 4726719 4740453 4756265 4772713 4788223 4802194 4815729 4830638 
1899.651 4849234 4872689 4899831 4928550 4956031 4979793 5000239 5018841 
1903.508 5038283 5060541 5086187 5114180 5141941 5166887 5187140 5202129 
1907.365 5212625 5219232 5222652 5223323 5220741 5214939 5206455 5195926 
1911.223 5184491 5172922 5161656 5150893 5141841 5135202 5132721 5135303 
1915.080 5142578 5152000 5159980 5162025 5155353 5140667 5120986 5101675 
1918.938 5087058 5078208 5072408 5063961 5046462 5015121 4969705 4913905 
1922.795 4855064 4800988 4758274 4729935 4715599 4712215 4716302 4724777 
1926.653 4735161 4745176 4753115 4757102 4756700 4752379 4746851 4742731 
1930.510 4742765 4747990 4757135 4766783 4773818 4775996 4773852 4769999 
1934.367 4767420 4769195 4776029 4786515 4797872 4807688 4815227 4821190 
1938.225 4827690 4835865 4845649 4855131 4861162 4860459 4852317 4838110 
1942.082 4821492 4807018 4798374 4797671 4804941 4818342 4835463 4855030 
1945.940 4875370 4896312 4917759 4941151 4967325 4997725 5032886 5071067 
1949.797 5109319 5142343 5164641 5173023 5167759 5152805 5135303 5123098 
1953.655 5120416 5127826 5140600 5151698 5153777 5143685 5121891 5094400 
1957.512 5068486 5050384 5042741 5044920 5052094 5059368 5063122 5061949 
1961.369 5056652 5048641 5038685 5027489 5015657 5004462 4996049 4994507 
1965.227 5002183 5021221 5051322 5090176 5135101 5185128 5239353 5297609 
1969.084 5359194 5421056 5478632 5527088 5561889 5581657 5587799 5584242 
1972.942 5574743 5562997 5550412 5538565 5528732 5524873 5530343 5549740 
1976.799 5583940 5629755 5678866 5720998 5747153 5752256 5736610 5703809 
1980.656 5661477 5616598 5574643 5539203 5513463 5497725 5492591 5497692 
1984.514 5509873 5524672 5537021 5541552 5536250 5522021 5502893 5484303 
1988.371 5470915 5464741 5464540 5467727 5470713 5472693 5474807 5480411 
1992.229 5492524 5512457 5539606 5570615 5602097 5631702 5658556 5682961 
1996.086 5704514 5721535 5731406 5730500 5717003 5692092 5660906 5629822 
1999.944 5606662 5596660 5599815 5612469 5628413 5641067 5645666 5641202 
2003.801 5630024 5616497 5605823 5601124 5603608 5612167 5623311 5633280 
2007.658 5638147 5635193 5624452 5607737 5589008 5573435 5565212 5566823 
2011.516 5577227 5593237 5608777 5617739 5617202 5605924 5585685 5560647 
2015.373 5535578 5514470 5501517 5499000 5509504 5535780 5578838 5637408 
2019.231 5708106 5783953 5857261 5921041 5971092 6006365 6029412 6044061 
2023.088 6053536 6059348 6061700 6059147 6051721 6040667 6027161 6014529 
2026.946 6004685 5997664 5992659 5987754 5981203 5972401 5962324 5951339 
2030.803 5940153 5930278 5922150 5918522 5923661 5942673 5980329 6039357 
2034.660 6117715 6208724 6303585 6392650 6467809 6525692 6566326 6591825 
2038.518 6605853 6611841 6611505 6606627 6598486 6587519 6575341 6562626 
2042.375 6549507 6535817 6521286 6504704 6486609 6467843 6448740 6430816 
2046.233 6414675 6400484 6388447 6379200 6372105 6366255 6359295 6347695 
2050.090 6327085 6295315 6251345 6199078 6144565 6094663 6056257 6032604 
2053.948 6022525 6021282 6022760 6021181 6013555 6000184 5983487 5966993 
2057.805 5953287 5942505 5933973 5927020 5920940 5916607 5915969 5920571 
2061.662 5930849 5946301 5965347 5986007 6007071 6027598 6046413 6062104 
2065.520 6071949 6073360 6065128 6048630 6027363 6006768 5992558 5987619 
2069.377 5990945 5997866 6001763 5996186 5977743 5946166 5905356 5860249 
2073.235 5815685 5774887 5739363 5708610 5682525 5661410 5645632 5635730 
2077.092 5631366 5631098 5632608 5633984 5634085 5632743 5631031 5629520 
2080.949 5627976 5625291 5620223 5611899 5601024 5590082 5581993 5579375 
2084.807 5582966 5591290 5601728 5611059 5617067 5619451 5619350 5617974 
2088.664 5615960 5612167 5604279 5589310 5565715 5533162 5494235 5452997 
2092.522 5413440 5379657 5354565 5339302 5334103 5338296 5350338 5367648 
2096.379 5387642 5406697 5422063 5432363 5436993 5437396 5435450 5432363 
2100.237 5429142 5425854 5422164 5418339 5415655 5415487 5419714 5429008 
2104.094 5442093 5457024 5471586 5484102 5495209 5506484 5520880 5540277 
2107.951 5565178 5593538 5622371 5648989 5671715 5690817 5707536 5723416 
2111.809 5739061 5753666 5765855 5773611 5776901 5776834 5775928 5776767 
2115.666 5781602 5790434 5803026 5817936 5833853 5851215 5870661 5893432 
2119.524 5919899 5949425 5980094 6009120 6034788 6055384 6070201 6079609 
2123.381 6083709 6082566 6076418 6065262 6050209 6032503 6014025 5996051 
2127.239 5979691 5964541 5949223 5931890 5911200 5886043 5856522 5823577 
2131.096 5788990 5754909 5724288 5699982 5684741 5680108 5685848 5699545 
2134.953 5717205 5733824 5746078 5752458 5753398 5752323 5752424 5755144 
2138.811 5760382 5766358 5769682 5768977 5764445 5757997 5752189 5749671 
2142.668 5750443 5752928 5754909 5754472 5751820 5748697 5747019 5748126 
2146.526 5751585 5754237 5752726 5744903 5729660 5710087 5691052 5675945 
2150.383 5667687 5666814 5670473 5675207 5677556 5674300 5662752 5641772 
2154.240 5609750 5567796 5520141 5475411 5446522 5448065 5493464 5588538 
2158.098 5729056 5899746 6076552 6237765 6364708 6449816 6495185 6510220 
2161.955 6506991 6498381 6494311 6500567 6519907 6550011 6585938 6620824 
2165.813 6646596 6657194 6649253 6624828 6587721 6544932 6503123 6466632 
2169.670 6437172 6414406 6396483 6381721 6370289 6362085 6357849 6357042 
2173.528 6357781 6357412 6353982 6346518 6335289 6321235 6304964 6285163 
2177.385 6260959 6231278 6197633 6165738 6143624 6140062 6161537 6208455 
2181.242 6274842 6350082 6421030 6476385 6511330 6525524 6522766 6508807 
2185.100 6489670 6468784 6449379 6434011 6425200 6425436 6435995 6454861 
2188.957 6477596 6497607 6508740 6507832 6495556 6476351 6457619 6445848 
2192.815 6444469 6454054 6472147 6494782 6518494 6542443 6564980 6586308 
2196.672 6605719 6620588 6628596 6627957 6618435 6601514 6581060 6560237 
2200.530 6542207 6528955 6520378 6515500 6514054 6514794 6516812 6519032 
2204.387 6519470 6516341 6508807 6496766 6482708 6468986 6458964 6454020 
2208.244 6454558 6458661 6464345 6471340 6480522 6494412 6516476 6548531 
2212.102 6589302 6635156 6680107 6717491 6742124 6752691 6749763 6737514 
2215.959 6721529 6706454 6696931 6694980 6701575 6715439 6734586 6756561 
2219.817 6778066 6796476 6810343 6818556 6821551 6820743 6817445 6813137 
2223.674 6808896 6804823 6801424 6798126 6793952 6788163 6779648 6766927 
2227.531 6750235 6730346 6709314 6690538 6677247 6671527 6673109 6680141 
2231.389 6688519 6694643 6695484 6690135 6679771 6666783 6652315 6637814 
2235.246 6622910 6606559 6588696 6570329 6553442 6541602 6537364 6541938 
2239.104 6554687 6573626 6595727 6618772 6641784 6664159 6686164 6707766 
2242.961 6728293 6746701 6762114 6774095 6782745 6789610 6794894 6799203 
2246.819 6802063 6802467 6799203 6792505 6782509 6770528 6758547 6748485 
2250.676 6741855 6740475 6745591 6758547 6779446 6807651 6840703 6874769 
2254.533 6905033 6926781 6937386 6936039 6924155 6904729 6881098 6855918 
2258.391 6831009 6807718 6786548 6768441 6754811 6746331 6743167 6744884 
2262.248 6749730 6755989 6762451 6768879 6776047 6785202 6797048 6811117 
2266.106 6826095 6840097 6851205 6858880 6863424 6866017 6867733 6869248 
2269.963 6870056 6869888 6868541 6866218 6864839 6866791 6873692 6886551 
2273.821 6904864 6925703 6946611 6964691 6977822 6985028 6986745 6983311 
2277.678 6976173 6966812 6956543 6946981 6939844 6935433 6933884 6934289 
2281.535 6934827 6933514 6928700 6919543 6906110 6889210 6869652 6848748 
2285.393 6827071 6804790 6782509 6760432 6738658 6717357 6696325 6675060 
2289.250 6653055 6630244 6607031 6584828 6565350 6549877 6539348 6533395 
2293.108 6531006 6530536 6530637 6530603 6530401 6530266 6530266 6529325 
2296.965 6526197 6518931 6506049 6487046 6462663 6434549 6405259 6376678 
2300.823 6350116 6325774 6302946 6279885 6254640 6224891 6188726 6145103 
2304.680 6094193 6037308 5977306 5917817 5862097 5812361 5769246 5730970 
2308.537 5694543 5655904 5612469 5562997 5508363 5450850 5393412 5338598 
2312.395 5287681 5241130 5198273 5158169 5119645 5081728 5042908 5001445 
2316.252 4955059 4901909 4840489 4770769 4694530 4614654 4534960 4458896 
2320.110 4388769 4325849 4270166 4220111 4174008 4129182 4082789 4032086 
2323.967 3975002 3910504 3839396 3764022 3687826 3614215 3545862 3483932 
2327.824 3427956 3376428 3328111 3282738 3242110 3208495 3185163 3173648 
2331.682 3173181 3181525 3194976 3209563 3222415 3231861 3237403 3239139 
2335.539 3237370 3232028 3223316 3212067 3199216 3186432 3175250 3166773 
2339.397 3161332 3158462 3157561 3158095 3159830 3162467 3165805 3170377 
2343.254 3177820 3192440 3221580 3275527 3364473 3494887 3666640 3870686 
2347.112 4091151 4307009 4498198 4647741 4743568 4780418 4759346 4687932 
2350.969 4577116 4441154 4294560 4148082 4009078 3880782 3763220 3655513 
2354.826 3557487 3470204 3395495 3335490 3291819 3264844 3253961 3257933 
2358.684 3275026 3303738 3342569 3390486 3446925 3511455 3583846 3663733 
2362.541 3750553 3843207 3940194 4040347 4142128 4244870 4348406 4452736 
2366.399 4558331 4665191 4772612 4879625 4984854 5086455 5183921 5277351 
2370.256 5367480 5456588 5547660 5642645 5744366 5854070 5972670 6100913 
2374.114 6238639 6385656 6542039 6707565 6881569 7063691 7253168 7449300 
2377.971 7651557 7859981 8073974 8292665 8514609 8737580 8958432 9174118 
2381.828 9382022 9579693 9765933 9939778 10100600 10247301 10378679 10493261 
2385.686 10590081 10668687 10729985 10775532 10807529 10828421 10839903 
2389.061 10842859 10837797 10824515 10802842 10772849 10735249 10690658 
2392.436 10640231 10585361 10527376 10467566 10407390 10348206 10291067 
2395.812 10237158 10187767 10143876 10106772 10077709 10058109 10048511 
2399.187 10049360 10060041 10079404 10106162 10139162 10177523 10221214 
2402.562 10270643 10326320 10388691 10458164 10534675 10618126 10708317 
2405.937 10805083 10907919 11016353 11129300 11245984 11366032 11489856 
2409.313 11618922 11755652 11902028 12059185 12226213 12399545 12574241 
2412.688 12744027 12903025 13046920 13173547 13282684 13375481 13453772 
2416.063 13519089 13572313 13613885 13643118 13660077 13664762 13657786 
2419.438 13640724 13615526 13584210 13548862 13511193 13471510 13429986 
2422.813 13386074 13338954 13288526 13235576 13181675 13129489 13082466 
2426.189 13043301 13014689 12998335 12995160 13005573 13029712 13067544 
2429.564 13119210 13184272 13262972 13354672 13459104 13575356 13702718 
2432.939 13840276 13986809 14140991 14301597 14467605 14638819 14815927 
2436.314 15000689 15195239 15401652 15621214 15854428 16100489 16358148 
2439.690 16626218 16903892 17191154 17488232 17795800 18114432 18444292 
2443.065 18785750 19138836 19503992 19881524 20271120 20671664 21081796 
2446.440 21499278 21922354 22349540 22779976 23213842 23650770 24089816 
2449.815 24529204 24966052 25397018 25819126 26229646 26626706 27008970 
2453.191 27374664 27721878 28047632 28348270 28619848 28858344 29059098 
2456.566 29218016 29330872 29393302 29402520 29356432 29254132 29096582 
2459.941 28885434 28622714 28310534 27951260 27547230 27101254 26617054 
2463.316 26098698 25550666 24978440 24386852 23781856 23169944 22557742 
2466.692 21952848 21363518 20796084 20256504 19748142 19272446 18829486 
2470.067 18417984 18037024 17685694 17364272 17072450 16810234 16576508 
2473.442 16369399 16185980 16023027 15877247 15745502 15625130 15513754 
2476.817 15409479 15310617 15215657 15124009 15035298 14949553 14866774 
2480.193 14787096 14709524 14633850 14559423 14486276 14415059 14347075 
2483.568 14283071 14223427 14167760 14115079 14063876 14013671 13964397 
2486.943 13917419 13874245 13836822 13805728 13781033 13761470 13745841 
2490.318 13733084 13722620 13714960 13710514 13709454 13711403 13715439 
2493.694 13719713 13723167 13724295 13723031 13719372 13714070 13707846 
2497.069 13701247 13694647 13688424 13682337 13676148 13669309 13661342 
2500.444 13651187 13638468 13623253 13606432 13589646 13574603 13563015 
2503.819 13555801 13552964 13553408 13555425 13557682 13558878 13558878 
2507.195 13558126 13557306 13556964 13557306 13557647 13556348 13551392 
2510.570 13540898 13523190 13497247 13463000 13421340 13374080 13322896 
2513.945 13269804 13216686 13164052 13112722 13062866 13014142 12966415 
2517.320 12919580 12873433 12828314 12784360 12742491 12703392 12668593 
2520.696 12638642 12614320 12595184 12580108 12567250 12554767 12541465 
2524.071 12527585 12514422 12504463 12500064 12503032 12513193 12529052 
2527.446 12548116 12567386 12584712 12599311 12611284 12621994 12632637 
2530.821 12644372 12657813 12673403 12690870 12710590 12732290 12756277 
2534.197 12781630 12807975 12834627 12861043 12887529 12915143 12944909 
2537.572 12977920 13014826 13055320 13098789 13144244 13190795 13238138 
2540.947 13286169 13334650 13382998 13430226 13475372 13517482 13556759 
2544.322 13594056 13630569 13667771 13706205 13745362 13783975 13820779 
2547.698 13854609 13885808 13915640 13946125 13978768 14014595 14052890 
2551.073 14092044 14130140 14164713 14194771 14219934 14240545 14257699 
2554.448 14272457 14285948 14298892 14311835 14324575 14337143 14348684 
2557.823 14357794 14363308 14363993 14359301 14348992 14333752 14313924 
2561.198 14290570 14264033 14234451 14202029 14166664 14128634 14088656 
2564.574 14047072 14004637 13961556 13918241 13875237 13833538 13794715 
2567.949 13760478 13732538 13712019 13698887 13692869 13692322 13695776 
2571.324 13701623 13709010 13717251 13726279 13736299 13747517 13760513 
2574.699 13776006 13794441 13816777 13842910 13872842 13905856 13941164 
2578.075 13977605 14014903 14052684 14091359 14131235 14172176 14214148 
2581.450 14256466 14298481 14339848 14380740 14421808 14463906 14508030 
2584.825 14554592 14604037 14656160 14710620 14766768 14824225 14882238 
2588.200 14940156 14997122 15052311 15105106 15155471 15203268 15248875 
2591.576 15292942 15335640 15377346 15418233 15458334 15498062 15537861 
2594.951 15577904 15618398 15659444 15700977 15742924 15785873 15830167 
2598.326 15876835 15926499 15979607 16035918 16094953 16155923 16218517 
2601.701 16283080 16350405 16421838 16498167 16580259 16667463 16758885 
2605.077 16853324 16949436 17046190 17143174 17240004 17336548 17432490 
2608.452 17527282 17620646 17712098 17801496 17888634 17973164 18054706 
2611.827 18132430 18204950 18271296 18330186 18380512 18421232 18451864 
2615.202 18471810 18481284 18480940 18472296 18457360 18438312 18416740 
2618.578 18393786 18369346 18342594 18312492 18278552 18240784 18200700 
2621.953 18160138 18121548 18086934 18057472 18033466 18014402 17999410 
2625.328 17987668 17978552 17971886 17967984 17967224 17970644 17978656 
2628.703 17992090 18011500 18036816 18067590 18102894 18141656 18182594 
2632.079 18225164 18269222 18314668 18362158 18412004 18464310 18518868 
2635.454 18575130 18632886 18692102 18752744 18815472 18880528 18947600 
2638.829 19016344 19085860 19155318 19223956 19291220 19356900 19421136 
2642.204 19483684 19544540 19603916 19661704 19718392 19774808 19831718 
2645.580 19889920 19949550 20011026 20073452 20136820 20200684 20265114 
2648.955 20330700 20397788 20467212 20539430 20614922 20693522 20775404 
2652.330 20860498 20948808 21040476 21135364 21233334 21334110 21437310 
2655.705 21542834 21650612 21761134 21874682 21992164 22114000 22240716 
2659.081 22372040 22507698 22646398 22787134 22928300 23068636 23207482 
2662.456 23344762 23481040 23617358 23754592 23893202 24033572 24175004 
2665.831 24316620 24457830 24598240 24738032 24877972 25019330 25163470 
2669.206 25311346 25463944 25621798 25784668 25952278 26123716 26297722 
2672.582 26472782 26647174 26819594 26988800 27154264 27315910 27473840 
2675.957 27628296 27779522 27927796 28073046 28215764 28356512 28495820 
2679.332 28634782 28774252 28915500 29059558 29208200 29362954 29526168 
2682.707 29699946 29886004 30085386 30298290 30524202 30761966 31010502 
2686.083 31268832 31536184 31811974 32095574 32386140 32682796 32984622 
2689.458 33291202 33602656 33919704 34243472 34574732 34914036 35261436 
2692.833 35616816 35979468 36349304 36726232 37110168 37500764 37897384 
2696.208 38299184 38705120 39114272 39526704 39942436 40361984 40785836 
2699.583 41213816 41645316 42079108 42513772 42948032 43380636 43810708 
2702.959 44236984 44658356 45072784 45478188 45872004 46251724 46614852 
2706.334 46958716 47280644 47577816 47847120 48086052 48292376 48465012 
2709.709 48603548 48708656 48781352 48823020 48835000 48818312 48773864 
2713.084 48702096 48603140 48477236 48324000 48143460 47935392 47699764 
2716.460 47436764 47146848 46830924 46489784 46124952 45738792 45333876 
2719.835 44913836 44482564 44044236 43602948 43162652 42726424 42297388 
2723.210 41878192 41471648 41080380 40706608 40352568 40019380 39708128 
2726.585 39419116 39152452 38908704 38688752 38493744 38324484 38181696 
2729.961 38065216 37974040 37906428 37860800 37835348 37828840 37840480 
2733.336 37869660 37915932 37978488 38056824 38149680 38256088 38374972 
2736.711 38504964 38644348 38791200 38943064 39097484 39252284 39404964 
2740.086 39553996 39697708 39834600 39963252 40082424 40191380 40290216 
2743.462 40379948 40462500 40540484 40616732 40693216 40771204 40851172 
2746.837 40932868 41015848 41099616 41184016 41269012 41354724 41441068 
2750.212 41528304 41616652 41706696 41799388 41895892 41997708 42106232 
2753.587 42222708 42348380 42484796 42633500 42796188 42974480 43169312 
2756.963 43380348 43606608 43845344 44093708 44348196 44605440 44862432 
2760.338 45116192 45363780 45601568 45825716 46032332 46217856 46378976 
2763.713 46513164 46618392 46693580 46737892 46751248 46734496 46689372 
2767.088 46618652 46525848 46414888 46289656 46154028 46011260 45863936 
2770.464 45714860 45566352 45420832 45280696 45147960 45023600 44908396 
2773.839 44801924 44703380 44611424 44524632 44441744 44361664 44283468 
2777.214 44205728 44127120 44045116 43956748 43858540 43746208 43616244 
2780.589 43465592 43292696 43097516 42881468 42647608 42399196 42140332 
2783.965 41874984 41606552 41338724 41074372 40816264 40566640 40326644 
2787.340 40096344 39875132 39661256 39453256 39249420 39049408 38853368 
2790.715 38662748 38478828 38303128 38136728 37979756 37831736 37691748 
2794.090 37558564 37431124 37307700 37186792 37066752 36945700 36821980 
2797.466 36694288 36561736 36423992 36281220 36133340 35980476 35822372 
2800.841 35658396 35487860 35309956 35124184 34930268 34728180 34518656 
2804.216 34302384 34080700 33854936 33626928 33398468 33171236 32946944 
2807.591 32727454 32513782 32307502 32110200 31923152 31747662 31585180 
2810.967 31436324 31301380 31179786 31070792 30973032 30885684 30807958 
2814.342 30739560 30680528 30631246 30591994 30562948 30544178 30535648 
2817.717 30537532 30550258 30575002 30612792 30665026 30733088 30817526 
2821.092 30918592 31035770 31168074 31314410 31473550 31644404 31825770 
2824.468 32016128 32214030 32417022 32622210 32826106 33025018 33215408 
2827.843 33393924 33557620 33704196 33831544 33937580 34020312 34078476 
2831.218 34110948 34117868 34099908 34059052 33997380 33918236 33824276 
2834.593 33718696 33604552 33484534 33361182 33236544 33111836 32987374 
2837.969 32862846 32737170 32609280 32478466 32344658 32208144 32069922 
2841.344 31930960 31791904 31652886 31514130 31375882 31238138 31101970 
2844.719 30968334 30838156 30712390 30591212 30474580 30361996 30253208 
2848.094 30148068 30047036 29950610 29859384 29773964 29694874 29622502 
2851.469 29557698 29501486 29455138 29420000 29397450 29388162 29392452 
2854.845 29410108 29440494 29482726 29535886 29598844 29669790 29746746 
2858.220 29827052 29907550 29985188 30057262 30121184 30175346 30218750 
2861.595 30250436 30270508 30278750 30275908 30262586 30240170 30210118 
2864.970 30174138 30133862 30091388 30048812 30008442 29972904 29945036 
2868.346 29927322 29921892 29930232 29952632 29988276 30035746 30093058 
2871.721 30157444 30226742 30298824 30372302 30446006 30520042 30595086 
2875.096 30672528 30754178 30841572 30936242 31038654 31149064 31266764 
2878.471 31390838 31520828 31656024 31796250 31941518 32091576 32246004 
2881.847 32403990 32564424 32726060 32887470 33047474 33205282 33359788 
2885.222 33510160 33655568 33794976 33927516 34052424 34169052 34277568 
2888.597 34378012 34471124 34557368 34637812 34713608 34785648 34855760 
2891.972 34925384 34996740 35071916 35153428 35243328 35343492 35455360 
2895.348 35579560 35716096 35863720 36020400 36182424 36344584 36500392 
2898.723 36641940 36761284 36851156 36906272 36923948 36904252 36850544 
2902.098 36768172 36663028 36541732 36409256 36269912 36126140 35979900 
2905.473 35832164 35683684 35535216 35387704 35242000 35099144 34960288 
2908.849 34826432 34698604 34577676 34463988 34357428 34257240 34162240 
2912.224 34070592 33980396 33889684 33796660 33699972 33598144 33490222 
2915.599 33375208 33252322 33121240 32981944 32835078 32682046 32524784 
2918.974 32365650 32207466 32053120 31905248 31766058 31637456 31520542 
2922.350 31416130 31324170 31244226 31175086 31115068 31061680 31011926 
2925.725 30962606 30910516 30852920 30788180 30715448 30635690 30550790 
2929.100 30463386 30377028 30295234 30221414 30159008 30111240 30080806 
2932.475 30070296 30081516 30115324 30172254 30251610 30352332 30473196 
2935.851 30612828 30770326 30944708 31134966 31339768 31556778 31783704 
2939.226 32017700 32255500 32495036 32734062 32970932 33203960 33430814 
2942.601 33648088 33851212 34033964 34189484 34310092 34388808 34419832 
2945.976 34399928 34328488 34208232 34044932 33847236 33624600 33387444 
2949.352 33145628 32906804 32676686 32458864 32253966 32061398 31879396 
2952.727 31705708 31537932 31374492 31214104 31056200 30900804 30747848 
2956.102 30597504 30450092 30305538 30163944 30025660 29890832 29759662 
2959.477 29632648 29509644 29390394 29274510 29161104 29049744 28940186 
2962.853 28833062 28729540 28631562 28541182 28460122 28389832 28330694 
2966.228 28282666 28245076 28216966 28197060 28184156 28176412 28171708 
2969.603 28167220 28159476 28145230 28121368 28086018 28038866 27980942 
2972.978 27915252 27845226 27775106 27708880 27649270 27597824 27554116 
2976.354 27515986 27478922 27436920 27382498 27307338 27203402 27063978 
2979.729 26884238 26662394 26399996 26102216 25776404 25432676 25082162 
2983.104 24735156 24401712 24089816 23804958 23550854 23329204 23140694 
2986.479 22985518 22864066 22776378 22721944 22698274 22699844 22716568 
2989.854 22734654 22736644 22703790 22619870 22473220 22259620 21982822 
2993.230 21654722 21293148 20916926 20545336 20193534 19871084 19582322 
2996.605 19327108 19101892 18902018 18722440 18559224 18408892 18269016 
2999.980 18137614 18013122 17894020 17779092 17667544 17558920 17452876 
3003.355 17349618 17249278 17151928 17057632 16966766 16879434 16795942 
3006.731 16716667 16641950 16572136 16507322 16447818 16393347 16344076 
3010.106 16299490 16259139 16222198 16187562 16154099 16120881 16086977 
3013.481 16051974 16016252 15980260 15945267 15912717 15884053 15860409 
3016.856 15842812 15831644 15826454 15826454 15830200 15835870 15841920 
3020.232 15846971 15849788 15849788 15846008 15837932 15824359 15804153 
3023.607 15776493 15741069 15698468 15650515 15600056 15550464 15504998 
3026.982 15465923 15434816 15411230 15393824 15380333 15368216 15354828 
3030.357 15338043 15316384 15288891 15255773 15217475 15175303 15130802 
3033.733 15085449 15040717 14997534 14956583 14918311 14882375 14849184 
3037.108 14818705 14791518 14768379 14749936 14736910 14729747 14728376 
3040.483 14732386 14740818 14752438 14765842 14779623 14792616 14804134 
3043.858 14814179 14822613 14830087 14837184 14844419 14852099 14860327 
3047.234 14869037 14877643 14885701 14892422 14896845 14898217 14896022 
3050.609 14889816 14880386 14868351 14854944 14841401 14828201 14815173 
3053.984 14801769 14786582 14768447 14747194 14723234 14698042 14673605 
3057.359 14651841 14633987 14620417 14610581 14602940 14596120 14588822 
3060.735 14580633 14571381 14561890 14552604 14544347 14537186 14531225 
3064.110 14525880 14520570 14514951 14508818 14502446 14496280 14491346 
3067.485 14488606 14488982 14492922 14500459 14511148 14523962 14537803 
3070.860 14551542 14564357 14575596 14585636 14594579 14603145 14612192 
3074.236 14622472 14634844 14649889 14667744 14688239 14710620 14733722 
3077.611 14756586 14777875 14796969 14813631 14828064 14840613 14851961 
3080.986 14862419 14872706 14882786 14893485 14904903 14917386 14930863 
3084.361 14944923 14958606 14970953 14981105 14989061 14995475 15001718 
3087.737 15009641 15020994 15036772 15057182 15081332 15107987 15135537 
3091.112 15162540 15188308 15212534 15235354 15257180 15278595 15300012 
3094.487 15321944 15345148 15370069 15397326 15426816 15458678 15492087 
3097.862 15525876 15559222 15591161 15621283 15649620 15676517 15702454 
3101.238 15728254 15754366 15780890 15807934 15835425 15863294 15891785 
3104.613 15921274 15952211 15985142 16020276 16057510 16096432 16135873 
3107.988 16174803 16212290 16247651 16280707 16312253 16343009 16374078 
3111.363 16406354 16440144 16475109 16511040 16547250 16583255 16619161 
3114.739 16655207 16691566 16728753 16766874 16805724 16844368 16882464 
3118.114 16919120 16953984 16986784 17018004 17047982 17077378 17106948 
3121.489 17137208 17168714 17201840 17236556 17272620 17309686 17346928 
3124.864 17383826 17419592 17453944 17487058 17519244 17551536 17584658 
3128.240 17619714 17657086 17696944 17738812 17781854 17825072 17867746 
3131.615 17909144 17949370 17988638 18027664 18066968 18107108 18148114 
3134.990 18189504 18230762 18271296 18310658 18349092 18386872 18425312 
3138.365 18465450 18508116 18553828 18602484 18653466 18705524 18757900 
3141.740 18809522 18859902 18908974 18956980 19004228 19050686 19096386 
3145.116 19141156 19184892 19227800 19270334 19313980 19359986 19409668 
3148.491 19463792 19522638 19585162 19650194 19716034 19781294 19844828 
3151.866 19906326 19965578 20023310 20079906 20135814 20191556 20247200 
3155.241 20303270 20359556 20416368 20474160 20533418 20594632 20658146 
3158.617 20724174 20792366 20862132 20932188 21001420 21068856 21134354 
3161.992 21198470 21262562 21328332 21397280 21470104 21546316 21624702 
3165.367 21703102 21779668 21853148 21923258 21990628 22056440 22121982 
3168.742 22187674 22254074 22320692 22387390 22453366 22518444 22582278 
3172.118 22644512 22704454 22761434 22814230 22862320 22905176 22942970 
3175.493 22975912 23004978 23030902 23054834 23078142 23102216 23128706 
3178.868 23159144 23194550 23235236 23280470 23328960 23378924 23428894 
3182.243 23478066 23525914 23572892 23619560 23666374 23713438 23760646 
3185.619 23807582 23854170 23900520 23947432 23995578 24045760 24098678 
3188.994 24154160 24212032 24271664 24332356 24393300 24454324 24515040 
3192.369 24575484 24635902 24696364 24756974 24817452 24877588 24936960 
3195.744 24994972 25051446 25106454 25160590 25214734 25270218 25327994 
3199.120 25388482 25451718 25517036 25583384 25649706 25715372 25780168 
3202.495 25844058 25908170 25973100 26039870 26109112 26181006 26254952 
3205.870 26330038 26404540 26477254 26546884 26613144 26676382 26738434 
3209.245 26801090 26866120 26934612 27006608 27080872 27155464 27228872 
3212.621 27299574 27367748 27433744 27498974 27564636 27631544 27699452 
3215.996 27768148 27836606 27904368 27970764 28036180 28100972 28165876 
3219.371 28231568 28298900 28368362 28440454 28515528 28593376 28673894 
3222.746 28756338 28840178 28924708 29009290 29093924 29178184 29261928 
3226.122 29344662 29425814 29505210 29582562 29658190 29732588 29806434 
3229.497 29880644 29955366 30030988 30107404 30184898 30263404 30343414 
3232.872 30425322 30508988 30594198 30680386 30767124 30853738 30940688 
3236.247 31028226 31116920 31207128 31298812 31391158 31483776 31576198 
3239.623 31668424 31761102 31854934 31950324 32047414 32145378 32243188 
3242.998 32340270 32436550 32533248 32632072 32734670 32842330 32954988 
3246.373 33071574 33190370 33309844 33428560 33546024 33662624 33778860 
3249.748 33894768 34010568 34125680 34240032 34353088 34465312 34577100 
3253.124 34689488 34802952 34918308 35035780 35155404 35277504 35401796 
3256.499 35528060 35655772 35783948 35911620 36037644 36161036 36281544 
3259.874 36398772 36512428 36622904 36729588 36832620 36931812 37027676 
3263.249 37120852 37212604 37304052 37396420 37490000 37584972 37680472 
3266.625 37775740 37869440 37960808 38048940 38133472 38214512 38292236 
3270.000 38367120 38439548 38510000 38578328 38644236 38707044 38766088 
3273.375 38821088 38872140 38919976 38965388 39009792 39054196 39099004 
3276.750 39144508 39190560 39237196 39283948 39330596 39376556 39421364 
3280.125 39464540 39506056 39546228 39586260 39627604 39670984 39717132 
3283.501 39765056 39812812 39858168 39899212 39934844 39965432 39992532 
3286.876 40018404 40044888 40073300 40103720 40135880 40168660 40201556 
3290.251 40233868 40265460 40296324 40326788 40356932 40387328 40418748 
3293.626 40452024 40487924 40526444 40567148 40608440 40648712 40686556 
3297.002 40721344 40753772 40784888 40816116 40848220 40880916 40913312 
3300.377 40944372 40973428 41000740 41027468 41054888 41084132 41115348 
3303.752 41147952 41181028 41213960 41247044 41281620 41319408 41362300 
3307.127 41411252 41466328 41526520 41590692 41657388 41726248 41797016 
3310.503 41869768 41944352 42020780 42098896 42178924 42261708 42348124 
3313.878 42439308 42535664 42636788 42741416 42847524 42953812 43059284 
3317.253 43164408 43270076 43377708 43488228 43601920 43718356 43836584 
3320.628 43955868 44076068 44196884 44318656 44441600 44565748 44691000 
3324.004 44817172 44944336 45072084 45199944 45326816 45451032 45570472 
3327.379 45683352 45788528 45886068 45976596 46061696 46142604 46219736 
3330.754 46293524 46363348 46428712 46489376 46545136 46595484 46639232 
3334.129 46674612 46699516 46712432 46713020 46702912 46685092 46663140 
3337.505 46639972 46616844 46592828 46565276 46530752 46486352 46430152 
3340.880 46362092 46282248 46192316 46093380 45986800 45873476 45754800 
3344.255 45631932 45506148 45378236 45248152 45114944 44977112 44833372 
3347.630 44682888 44525988 44363612 44197732 44029788 43861144 43692524 
3351.006 43524044 43355740 43187320 43018416 42848440 42677032 42503360 
3354.381 42327416 42149788 41971724 41795372 41622560 41454332 41290876 
3357.756 41130936 40972880 40815064 40656864 40498544 40341624 40187744 
3361.131 40038056 39892712 39751256 39612216 39474448 39337124 39200312 
3364.507 39064528 38930556 38799060 38670316 38544324 38421156 38300380 
3367.882 38182132 38066120 37952020 37839760 37729120 37620092 37513444 
3371.257 37409676 37309864 37213940 37121500 37030704 36940040 36847552 
3374.632 36752304 36654376 36554704 36454696 36355788 36258816 36163700 
3378.008 36069792 35976736 35883912 35791324 35698936 35607032 35514904 
3381.383 35421852 35326380 35227300 35123540 35014664 34901180 34784356 
3384.758 34665696 34547104 34429944 34315292 34203428 34094172 33986772 
3388.133 33880724 33774708 33668388 33561308 33453506 33345156 33236294 
3391.509 33127390 33018726 32911130 32805808 32703944 32606638 32514032 
3394.884 32425090 32337804 32249362 32157224 32059684 31956672 31849872 
3398.259 31741920 31635318 31532228 31433440 31338486 31245972 31154616 
3401.634 31063530 30972142 30880098 30786864 30691766 30594056 30493384 
3405.010 30390248 30285856 30182234 30080984 29982844 29887140 29792594 
3408.385 29696612 29597566 29494570 29388268 29279758 29170422 29060620 
3411.760 28950350 28838654 28724724 28608806 28491998 28376460 28264350 
3415.135 28157250 28055374 27957620 27862042 27765958 27667564 27565906 
3418.510 27461274 27354372 27246864 27140052 27035238 26933238 26834220 
3421.886 26738080 26644004 26551182 26458626 26365562 26272024 26178400 
3425.261 26085608 25993996 25904196 25815540 25727150 25637790 25546590 
3428.636 25453122 25357920 25261790 25165542 25069874 24974932 24880922 
3432.011 24788194 24697346 24609146 24524506 24443422 24365472 24288764 
3435.387 24211086 24130552 24046040 23957728 23867052 23775940 23686634 
3438.762 23600248 23517030 23436482 23357804 23279736 23201994 23124582 
3442.137 23047776 22971860 22896828 22821636 22745022 22665110 22580008 
3445.512 22488644 22390704 22287206 22180804 22074674 21972402 21876320 
3448.888 21787784 21705922 21628950 21553976 21478632 21401074 21320850 
3452.263 21238552 21155262 21071988 20989250 20906772 20824136 20741168 
3455.638 20657732 20574308 20491146 20408450 20325492 20241264 20154590 
3459.013 20064428 19970608 19874170 19776542 19679768 19585614 19495222 
3462.389 19408802 19325896 19245708 19167128 19088908 19010042 18929982 
3465.764 18848136 18764646 18679822 18594566 18509222 18424346 18339968 
3469.139 18255676 18170918 18085622 17999758 17913736 17828250 17743470 
3472.514 17659364 17575686 17492026 17408244 17325064 17243796 17165544 
3475.890 17091300 17020896 16953052 16886048 16818054 16747935 16675485 
3479.265 16601706 16527697 16454700 16382679 16311530 16240668 16170125 
3482.640 16100386 16032686 15968161 15907252 15849343 15792128 15733132 
3486.015 15670231 15601912 15528348 15451331 15373021 15295550 15220289 
3489.391 15147717 15077524 15009023 14941768 14875654 14810408 14745754 
3492.766 14681213 14616510 14550994 14484563 14417560 14350842 14285297 
3496.141 14221852 14160845 14102483 14046627 13993448 13943012 13895558 
3499.516 13851154 13809115 13768105 13726211 13681516 13632518 13578603 
3502.892 13521037 13461804 13403638 13349239 13300757 13259009 13223313 
3506.267 13192161 13163300 13134168 13102375 13066246 13025069 12979456 
3509.642 12931015 12881760 12833809 12789001 12747951 12710727 12676917 
3513.017 12645771 12616161 12587680 12559746 12532121 12504225 12476296 
3516.393 12448062 12419933 12392350 12365998 12341521 12319023 12297821 
3519.768 12276620 12253750 12227269 12195576 12157819 12113797 12064396 
3523.143 12010880 11954952 11898418 11841449 11784827 11727635 11669055 
3526.518 11607896 11543716 11476791 11407938 11338823 11270161 11202938 
3529.894 11136813 11070902 11004016 10935442 10864839 10792855 10720137 
3533.269 10647701 10575278 10503002 10430027 10355841 10280618 10205101 
3536.644 10130581 10058176 9988699 9921675 9856625 9792943 9730285 9669500 
3540.501 9611671 9557948 9509210 9465015 9424075 9384289 9343324 9299281 
3544.359 9250911 9197367 9138450 9074263 9005620 8933944 8861400 8791270 
3548.216 8726592 8669497 8620555 8578444 8540358 8501804 8459332 8410244 
3552.074 8353967 8291821 8226543 8161477 8099731 8043291 7993778 7951491 
3555.931 7916633 7888255 7865514 7846215 7827963 7808532 7785491 7757696 
3559.789 7724944 7688114 7649095 7610383 7575080 7545477 7523631 7510011 
3563.646 7503269 7499459 7492380 7474783 7439053 7380374 7298452 7198152 
3567.503 7089118 6982368 6887291 6809300 6748485 6702046 6664798 6632498 
3571.361 6601749 6570766 6538945 6506284 6472954 6438719 6403847 6368978 
3575.218 6335087 6303417 6275380 6250639 6227984 6205229 6179887 6149976 
3579.076 6114556 6074435 6031260 5987619 5946368 5910091 5881005 5861425 
3582.933 5852828 5855716 5868511 5887823 5907942 5921142 5919429 5896589 
3586.791 5849570 5780595 5696893 5608508 5525712 5456588 5405120 5371506 
3590.648 5352787 5344468 5341080 5337222 5328702 5312267 5286608 5252566 
3594.505 5212290 5169503 5127289 5088768 5055245 5026953 5002551 4980296 
3598.363 4958142 4934147 4906902 4875906 4840858 4803031 4764137 4727021 
3602.220 4694765 4670549 4657085 4655913 4667368 4689506 4718948 4750670 
3606.078 4778776 4796901 4800653 4787553 4759112 4719283 4675506 4633944 
3609.935 4598982 4571557 4549491 4528029 4502685 4471249 4434325 4395932 
3613.792 4361559 4336659 4323975 4322770 4328795 4335655 4336893 4326318 
3617.650 4300215 4257216 4199200 4130386 4056567 3984332 3919096 3865003 
3621.507 3823953 3796844 3783006 3782004 3794103 3819641 3859755 3914182 
3625.365 3980687 4053290 4122291 4174008 4193345 4167987 4093960 3980587 
3629.222 3848790 3725120 3629551 3569814 3541586 3533702 3533569 3530128 
3633.080 3517401 3494353 3464159 3432197 3403911 3383207 3371285 3367779 
3636.937 3371519 3380735 3394226 3409955 3425718 3438075 3444354 3441982 
3640.794 3430995 3413428 3393993 3379032 3375292 3387614 3418705 3468000 
3644.652 3531898 3604326 3677867 3744203 3795073 3824086 3827195 3802827 
3648.509 3752725 3681309 3595672 3504240 3416701 3342502 3288847 3259636 
3652.367 3254628 3269284 3296026 3325139 3346642 3351584 3335223 3297628 
3656.224 3245314 3187934 3135166 3093818 3065753 3049170 3040361 3035956 
3660.082 3033454 3031785 3030751 3030584 3030551 3030985 3031452 3032953 
3663.939 3037758 3049036 3069958 3103128 3149150 3206592 3271688 3337761 
3667.796 3398033 3444220 3470371 3473945 3459283 3437273 3422779 3431095 
3671.654 3472142 3548835 3656716 3785380 3920266 4042353 4131457 4171499 
3675.511 4155174 4088107 3985402 3864535 3738120 3612578 3490144 3372688 
3679.369 3263442 3167106 3088211 3029350 2989379 2964391 2949145 2939471 
3683.226 2933900 2933800 2941639 2959520 2987010 3020675 3054075 3079769 
3687.083 3090447 3081971 3054608 3012333 2961789 2909983 2861251 2817861 
3690.941 2780644 2749599 2725359 2708721 2700386 2699952 2706054 2716890 
3694.798 2729893 2742964 2755068 2765938 2776242 2787114 2799486 2813726 
3698.656 2828966 2843241 2853313 2855414 2846076 2823931 2789781 2748065 
3702.513 2705020 2667313 2641110 2628909 2631543 2647244 2673181 2706921 
3706.371 2746365 2790482 2838505 2889002 2939438 2985576 3022176 3043664 
3710.228 3045666 3027147 2990313 2941940 2890536 2845409 2813726 2799085 
3714.085 2801220 2816927 2841240 2868655 2893438 2911951 2921758 2922725 
3717.943 2916654 2906247 2894272 2882664 2872425 2863085 2854114 2845075 
3721.800 2835804 2827066 2819428 2813325 2807756 2801320 2792449 2780044 
3725.658 2764071 2746899 2732227 2724992 2729260 2747665 2780244 2824564 
3729.515 2876227 2929964 2980972 3025446 3062083 3092116 3118846 3144845 
3733.373 3170678 3193107 3205992 3202887 3179756 3137970 3085308 3033988 
3737.230 2995351 2976868 2981339 3007429 3052273 3112706 3187433 3274659 
3741.087 3371920 3473778 3569814 3644954 3682579 3669012 3602922 3500766 
3744.945 3394627 3317227 3286177 3302069 3352185 3418104 3480826 3525618 
3748.802 3543490 3532332 3496491 3443786 3382572 3318395 3255797 3199015 
3752.660 3153656 3125154 3116711 3128458 3156025 3192707 3231261 3265745 
3756.517 3292654 3311150 3321567 3324472 3319030 3303371 3276495 3239940 
3760.375 3199349 3162467 3137302 3128158 3134465 3150051 3166339 3175384 
3764.232 3172747 3159730 3142308 3129726 3129159 3142875 3166906 3193575 
3768.089 3214036 3220879 3211299 3187467 3155925 3124286 3099057 3083606 
3771.947 3077833 3079702 3086309 3095219 3104797 3115209 3126789 3140806 
3775.804 3157961 3177620 3197413 3213335 3220278 3213969 3191772 3155491 
3779.662 3111004 3067122 3031919 3011699 3007262 3015503 3030384 3044965 
3783.519 3053808 3054141 3046033 3032019 3015236 2998154 2982206 2967727 
3787.376 2954983 2944375 2937069 2934034 2935768 2942540 2953682 2968828 
3791.234 2987878 3011466 3040394 3074596 3112405 3150452 3184262 3209330 
3795.091 3222849 3225552 3221914 3219544 3225686 3244881 3276662 3315757 
3798.949 3352753 3375526 3374124 3341400 3279099 3197981 3116477 3054108 
3802.806 3023444 3027681 3060114 3108367 3156626 3190704 3199449 3178922 
3806.664 3133798 3076532 3023611 2988011 2975500 2984775 3009931 3043764 
3810.521 3081103 3119914 3160464 3204690 3252926 3302636 3348078 3381136 
3814.378 3393692 3380735 3344772 3296259 3251657 3226721 3231027 3264210 
3818.236 3318128 3377930 3427288 3450131 3434935 3379132 3292019 3193107 
3822.093 3104029 3042396 3015370 3020341 3048502 3087744 3127924 3160798 
3825.951 3182860 3195143 3202187 3209764 3222047 3240908 3265478 3292887 
3829.808 3319898 3343804 3363739 3379767 3393391 3406182 3419840 3435203 
3833.666 3452135 3469937 3486938 3500165 3505944 3500132 3479289 3442417 
3837.523 3391755 3333453 3276128 3227322 3192874 3174583 3170410 3176452 
3841.380 3188134 3201319 3213168 3222181 3228356 3232362 3235867 3241075 
3845.238 3250289 3266046 3290150 3324105 3368480 3423247 3488107 3562665 
3849.095 3645823 3735380 3827763 3915553 3987810 4030180 4026200 3963266 
3852.953 3840165 3672721 3491514 3329413 3209430 3138237 3110003 3112739 
3856.810 3135400 3168775 3207360 3248653 3291352 3334956 3378932 3422378 
3860.667 3464293 3504140 3540684 3572253 3596274 3608970 3606931 3589692 
3864.525 3560560 3527522 3501167 3491714 3503639 3534738 3575894 3613881 
3868.382 3633828 3624873 3584514 3520908 3450799 3391521 3355157 3343571 
3872.240 3351017 3366944 3381103 3387147 3384141 3376261 3370517 3374124 
3876.097 3390987 3421510 3462088 3507213 3550538 3585182 3606230 3611241 
3879.955 3601252 3581106 3558690 3542488 3538345 3548300 3568912 3593200 
3883.812 3611008 3612945 3592899 3551708 3497994 3444888 3406382 3390920 
3887.669 3399436 3426453 3462322 3496791 3520341 3527389 3517334 3493585 
3891.527 3463324 3434501 3414263 3406348 3412293 3432230 3464359 3506946 
3895.384 3557320 3612544 3668645 3721945 3768935 3807206 3835953 3855977 
3899.242 3869315 3878409 3884560 3887536 3885864 3876370 3855877 3822348 
3903.099 3775753 3719205 3657484 3597042 3543957 3502236 3473277 3456277 
3906.957 3448996 3448595 3452636 3460218 3470471 3483865 3500766 3520942 
3910.814 3543891 3568311 3592665 3615919 3637269 3656114 3672354 3685553 
3914.671 3694810 3698953 3697115 3688527 3673590 3654076 3632224 3610673 
3918.529 3591697 3577197 3568177 3565538 3569614 3580037 3595873 3615050 
3922.386 3634429 3650401 3659589 3659790 3651570 3637804 3623069 3612778 
3926.244 3610506 3617356 3631322 3648295 3663065 3671218 3669981 3659356 
3930.101 3641479 3619861 3598211 3579502 3565204 3555516 3549870 3547198 
3933.958 3546830 3548167 3551173 3555783 3561730 3569346 3578266 3588924 
3937.816 3601352 3615551 3631255 3647260 3662296 3674559 3682512 3685186 
3941.673 3682913 3676564 3668812 3662029 3658754 3660726 3668678 3681710 
3945.531 3698085 3715328 3730434 3740894 3744671 3740827 3729899 3713758 
3949.388 3694643 3675127 3657384 3642782 3632023 3624873 3620563 3618525 
3953.246 3617823 3617690 3617957 3618024 3617924 3618057 3618759 3620697 
3957.103 3624606 3630787 3638906 3647961 3656549 3662998 3666272 3665638 
3960.960 3661494 3654811 3647126 3639675 3633527 3629284 3627112 3627179 
3964.818 3629651 3634830 3642849 3653274 3665203 3677132 3686957 3693005 
3968.675 3693874 3689797 3682011 3672822 3665103 3660826 3661494 3667008 
3972.533 3676063 3686455 3696046 3703064 3706740 3707208 3705637 3703565 
3976.390 3702295 3702964 3706071 3711218 3717668 3724619 3731236 3737218 
3980.248 3742532 3747545 3752993 3759276 3766863 3775252 3784210 3792232 
3984.105 3798281 3801390 3800788 3796744 3789925 3781536 3773347 3766595 
3987.962 3762217 3760947 3762485 3766295 3771542 3777391 3782939 3787619 
3991.820 3790828 3792432 3792265 3790627 3788120 3785079 3782371 3780800 
3995.677 3780600 3781937 3784377 3787519 3790460 3792298 3792800 3791262 
3999.535 3787953 3782939 3776923 
##END=
