
##TITLE=mdmaHCL00386_2
##JCAMP-DX=5.01  $$ Nicolet v. 1
##DATATYPE=INFRARED SPECTRUM
##ORIGIN=UniL
##OWNER=Nicolet
##LONGDATE=2011/08/23
##TIME=16:39:02
##SPECTROMETER/DATA SYSTEM=Nicolet iS5
##DATA PROCESSING=
Ratio against background
%Transmittance->Absorbance
Truncated
ElementMultiply or ElementDivide
##COMMENTS=
Number of sample scans: 32
Collection length: 51.22 sec
Sample gain: 2.0
Background collected on: Mar Aout 23 16:37:19 2011 (GMT+02:00);
Number of background scans: 32
Background gain: 2.0
Sample spacing:  1.000
Number of scan points: 12415
Resolution points: 8192
Number of FFT points: 65536
Apodization: N-B fort;
Phase correction: Mertz;
Laser frequency: 15798.0 cm-1
Number of rejected sample scans: 0
Number of rejected background scans: 0
Bench serial number: ASB1000141;
##RESOLUTION=4.000
##XUNITS=1/CM
##YUNITS=ABSORBANCE
##FIRSTX=649.893372
##LASTX=4000.122314
##FIRSTY=0.081297
##MAXX=4000.122314
##MINX=649.893372
##MAXY=0.207780
##MINY=0.002299
##XFACTOR=1.000000
##YFACTOR=1.000000E-009
##NPOINTS=6950
##DELTAX=0.482117
##ZPD=6100
##XYDATA=(X++(Y..Y))
649.893 81297440 81291456 81309352 81350624 81406496 81467928 81535360 
653.268 81621760 81748728 81937920 82198488 82521152 82881664 83252360 
656.643 83613648 83962576 84310936 84674072 85061048 85465840 85867976 
660.018 86243368 86575936 86863176 87118088 87360760 87610816 87880824 
663.393 88174856 88490536 88821944 89159376 89479920 89740704 89870240 
666.767 89768528 89350680 88609176 87663440 86705208 85894624 85281688 
670.142 84822920 84428672 84007848 83498096 82870640 82136872 81332360 
673.517 80501392 79674944 78861080 78051304 77234496 76410128 75594232 
676.892 74812176 74086144 73425240 72820616 72252680 71700728 71156664 
680.267 70625552 70123248 69665280 69259672 68901200 68578400 68277864 
683.642 67993080 67726832 67488232 67285240 67119920 66985792 66870676 
687.016 66764212 66661208 66563712 66478288 66409520 66355012 66305636 
690.391 66247588 66170328 66071288 65957264 65840036 65732388 65640732 
693.766 65563580 65494420 65425308 65352320 65277524 65206760 65144888 
697.141 65094000 65050892 65010408 64968764 64926780 64889772 64864652 
700.516 64855456 64858876 64864992 64860992 64835988 64786016 64716176 
703.890 64636684 64559832 64493476 64439824 64395704 64356080 64316124 
707.265 64273476 64226376 64171292 64102352 64011768 63892872 63745072 
710.640 63576916 63405992 63254452 63142924 63084760 63080928 63119128 
714.015 63174160 63215048 63206388 63113996 62912076 62584780 62131516 
717.390 61568832 60931184 60268244 59633952 59083940 58663060 58397964 
720.765 58295560 58339824 58494360 58700800 58887680 58978948 58898604 
724.139 58592752 58039056 57256236 56301808 55261068 54230024 53285244 
727.514 52475832 51815288 51288580 50864344 50508928 50199588 49922988 
730.889 49674872 49453704 49255140 49071692 48896180 48724632 48558304 
734.264 48403668 48267124 48150900 48051076 47958224 47862580 47758604 
737.639 47647328 47534972 47429704 47336140 47253528 47176288 47097656 
741.013 47014428 46928888 46848196 46778888 46725312 46685092 46651332 
744.388 46615848 46573428 46523672 46471084 46421084 46376544 46336472 
747.763 46296660 46253420 46206060 46158376 46116220 46084240 46062064 
751.138 46043016 46017636 45978180 45922604 45856940 45792024 45739448 
754.513 45706540 45693436 45694800 45703192 45714088 45726900 45744312 
757.888 45769496 45801856 45837832 45872296 45902644 45932328 45970668 
761.262 46029644 46117844 46237020 46381040 46540344 46707264 46882188 
764.637 47074316 47299636 47574752 47910308 48310076 48770488 49285016 
768.012 49845980 50447000 51082056 51746672 52444500 53195916 54051700 
771.387 55091424 56413624 58108440 60208068 62647164 65226660 67646952 
774.762 69526824 70495560 70312416 68912344 66447824 63227540 59665616 
778.136 56164716 53024048 50432968 48442044 47002280 46004152 45326632 
781.511 44868640 44553524 44336308 44190944 44101300 44057624 44056556 
784.886 44101336 44200996 44368232 44614692 44946724 45367640 45879480 
788.261 46487384 47203432 48046080 49034964 50189620 51524896 53051488 
791.636 54780872 56728180 58912344 61353200 64061224 67025692 70201608 
795.010 73508192 76824056 79987016 82820960 85134280 86739672 87491488 
798.385 87292936 86125536 84053440 81223328 77842680 74135784 70338440 
801.760 66655724 63238584 60192120 57561720 55345328 53505224 51986376 
805.135 50732792 49696344 48849012 48180556 47693588 47393672 47277724 
808.510 47324796 47494604 47726428 47947604 48091488 48100412 47938024 
811.885 47592016 47069296 46391992 45589828 44698568 43755224 42794980 
815.259 41852144 40955876 40127520 39381420 38723524 38153152 37666632 
818.634 37259536 36928708 36672476 36490264 36381260 36343396 36374812 
822.009 36474948 36645832 36893936 37229064 37662296 38202608 38853988 
825.384 39611704 40461772 41376044 42313460 43221760 44033564 44679140 
828.759 45094396 45228772 45061828 44607056 43914040 43054412 42114632 
832.133 41181976 40325408 39595480 39018236 38595928 38311236 38131628 
835.508 38017004 37921032 37799852 37619912 37360128 37017860 36606792 
838.883 36154732 35694332 35255940 34863660 34530456 34259680 34048088 
842.258 33889288 33776068 33701828 33660332 33645332 33650024 33669176 
845.633 33699180 33739824 33793580 33863892 33953668 34063744 34192636 
849.008 34337276 34496056 34668424 34856660 35063548 35291768 35542048 
852.382 35813520 36104284 36413688 36743036 37095912 37477068 37890952 
855.757 38340804 38828516 39355840 39926348 40545432 41221756 41965152 
859.132 42785512 43692816 44696916 45807120 47033552 48383260 49855676 
862.507 51436040 53089568 54759448 56363636 57809084 58999860 59845460 
865.882 60281872 60273956 59822680 58964488 57769952 56336056 54766440 
869.256 53169436 51641500 50253784 49057224 48077352 47318552 46770252 
872.631 46411200 46215684 46152404 46189736 46295552 46437416 46587372 
876.006 46724680 46836756 46921504 46985108 47039828 47099648 47178428 
879.381 47288696 47440496 47642964 47903980 48229908 48624784 49088496 
882.756 49616920 50200664 50826720 51480280 52144012 52801692 53438856 
886.131 54044272 54613484 55150112 55667812 56187192 56732636 57327500 
889.505 57986380 58712708 59497132 60321200 61160148 61987836 62782376 
892.880 63523836 64195028 64781556 65268552 65642080 65891208 66006520 
896.255 65981252 65811308 65493612 65027876 64418264 63676508 62822924 
899.630 61886536 60904308 59913232 58947976 58037540 57201200 56450904 
903.005 55792392 55227800 54756816 54377772 54087840 53882120 53754564 
906.379 53699256 53711032 53787264 53927772 54133368 54405224 54742832 
909.754 55144316 55607100 56129644 56711644 57354348 58058864 58823328 
913.129 59642656 60507864 61408996 62339272 63298032 64292916 65338260 
916.504 66454040 67661632 68979560 70423544 72002936 73719624 75563080 
919.879 77507512 79509144 81500856 83402336 85130736 86610672 87798272 
923.254 88690208 89333216 89815224 90261256 90819312 91628512 92813400 
926.628 94461944 96607312 99220288 102196496 105367920 108486184 111249232 
930.003 113347168 114464712 114352040 112867160 109993952 105863456 
932.896 100729592 94954376 88925496 83010456 77530680 72702144 68650304 
936.271 65419800 62991976 61312676 60312748 59925900 60085528 60720028 
939.646 61748584 63060016 64513540 65955064 67213400 68136512 68616776 
943.020 68598656 68094040 67173368 65956920 64583360 63187032 61885960 
946.395 60757828 59842680 59148784 58660972 58352936 58194432 58160904 
949.770 58231452 58388712 58618764 58907600 59242276 59612892 60012288 
953.145 60437448 60887876 61363888 61864564 62387200 62927164 63480348 
956.520 64044364 64619192 65206796 65809496 66427512 67059092 67700312 
959.894 68346656 68995528 69646808 70302176 70964192 71633904 72310016 
963.269 72989808 73669992 74349360 75029080 75712424 76403024 77102352 
966.644 77809624 78521896 79236664 79953712 80676432 81411088 82164976 
970.019 82943152 83747912 84578648 85434168 86315184 87226064 88173400 
973.394 89165480 90208688 91305592 92455456 93655760 94904568 96201528 
976.768 97547896 98944184 100387520 101870104 103380136 104902728 106424032 
980.143 107932456 109417960 110870800 112279032 113627624 114901368 
983.036 116087080 117178256 118176080 119087888 119923312 120689016 
985.929 121386360 122011672 122560008 123028368 123419792 123742656 
988.821 124009856 124235320 124431640 124611712 124789352 124980488 
991.714 125204680 125480760 125823304 126239848 126729056 127282408 
994.607 127887976 128535736 129218664 129933120 130675776 131440968 
997.500 132218480 132997112 133766088 134519440 135258160 135987376 
1000.392 136713312 137438624 138160848 138872848 139567680 140240960 
1003.285 140894464 141534368 142169120 142805168 143446992 144097664 
1006.178 144762624 145452352 146183680 146975328 147844272 148800544 
1009.070 149844544 150968768 152161632 153412960 154715264 156064000 
1011.963 157454800 158880112 160328480 161787984 163249760 164712784 
1014.856 166183440 167672640 169188192 170728576 172279232 173815728 
1017.748 175308944 176731792 178066704 179305520 180448832 181502592 
1020.641 182478224 183394320 184276608 185162448 186096720 187121504 
1023.534 188272160 189566784 191003616 192563888 194218464 195935344 
1026.427 197680368 199419520 201114784 202718112 204177216 205437856 
1029.320 206451744 207187376 207629984 207779968 207646048 207239952 
1032.213 206574256 205663696 204530128 203204752 201721600 200114000 
1035.106 198402192 196587520 194651536 192563632 190291392 187808544 
1037.999 185103088 182177328 179046752 175736304 172281200 168730560 
1040.892 165143184 161589216 158144224 154872528 151824656 149029264 
1043.785 146491440 144200992 142138976 140287744 138633440 137167440 
1046.678 135883952 134776192 133834568 133047832 132403792 131891904 
1049.571 131503360 131227520 131050544 130952832 130908448 130891072 
1052.464 130877312 130849376 130798504 130720376 130610976 130463152 
1055.357 130263912 129995464 129640328 129182216 128609104 127912448 
1058.250 127085016 126120048 125013144 123764856 122384648 120892800 
1061.144 119320576 117704104 116079072 114478776 112928096 111445968 
1064.037 110047096 108741728 107537632 106437240 105436888 104525112 
1066.930 103684560 102895944 102141120 101406720 100685512 99974848 99273968 
1070.305 98581648 97895504 97212384 96530672 95850600 95174936 94507408 
1073.680 93850736 93205896 92572592 91950728 91342880 90753856 90190864 
1077.055 89659560 89161976 88694392 88249024 87816248 87389200 86966384 
1080.431 86551952 86154584 85782992 85444096 85141944 84878840 84658856 
1083.806 84490736 84388472 84372616 84466424 84693400 85076488 85634288 
1087.181 86380952 87323568 88458696 89767224 91208904 92724912 94234576 
1090.556 95643488 96863504 97815688 98447744 98741664 98712880 98408560 
1093.932 97896120 97261664 96594192 95974152 95471976 95135048 94985424 
1097.307 95020520 95215536 95528040 95901968 96278728 96598048 96801592 
1100.682 96841680 96680824 96297384 95689952 94877896 93900136 92805072 
1104.057 91648440 90482304 89347624 88277000 87292456 86407272 85629816 
1107.433 84962760 84403320 83942072 83563320 83246176 82966136 82699208 
1110.808 82422792 82115528 81759008 81335080 80826264 80219000 79504368 
1114.183 78681728 77758464 76750032 75676296 74557416 73413352 72261216 
1117.558 71115488 69990016 68897160 67847712 66850232 65910176 65028952 
1120.934 64204976 63434252 62710636 62025176 61366368 60717664 60057904 
1124.309 59364992 58617512 57800456 56909984 55954616 54954944 53937752 
1127.684 52934060 51972112 51073036 50251328 49513340 48858764 48281672 
1131.059 47772140 47317440 46901900 46509844 46126612 45740740 45346308 
1134.435 44943528 44538948 44143004 43769880 43434720 43151492 42932520 
1137.810 42787336 42721052 42734504 42822880 42977332 43184612 43429776 
1141.185 43699120 43980032 44263620 44544160 44817504 45081052 45332700 
1144.560 45571060 45795964 46009088 46213840 46414188 46614040 46815828 
1147.936 47020516 47227484 47436208 47647108 47861548 48082312 48312556 
1151.311 48555596 48814164 49090944 49388952 49710908 50059012 50433860 
1154.686 50833428 51253160 51685800 52123280 52558284 52984180 53395616 
1158.061 53786928 54150296 54475984 54751856 54965092 55105040 55163616 
1161.437 55135964 55019248 54811392 54509492 54110920 53613136 53016032 
1164.812 52322412 51538592 50673064 49735060 48734456 47680424 46582280 
1168.187 45450704 44297336 43134804 41976648 40834936 39720288 38641596 
1171.562 37605172 36616164 35678828 34796704 33973304 33211290 32512426 
1174.938 31877898 31308108 30803012 30362850 29987990 29679156 29436912 
1178.313 29261504 29152280 29108698 29130240 29217554 29372880 29599444 
1181.688 29901622 30283084 30747066 31295750 31930960 32654718 33469610 
1185.063 34378156 35382204 36481184 37670680 38941724 40278800 41659688 
1188.438 43056136 44430256 45738568 46934904 47970992 48807300 49416948 
1191.814 49789268 49932092 49868872 49635272 49269912 48811416 48293412 
1195.189 47738704 47161624 46566976 45953248 45315008 44647412 43948464 
1198.564 43221320 42474272 41718844 40969240 40238012 39535160 38867468 
1201.939 38238428 37649216 37099884 36589740 36117320 35679616 35271788 
1205.315 34886100 34512880 34142024 33763964 33371306 32960278 32530244 
1208.690 32084086 31626548 31165118 30708338 30265570 29847316 29464144 
1212.065 29125314 28839258 28612770 28449934 28354142 28327404 28371686 
1215.440 28488638 28679698 28945392 29285002 29696400 30177050 30724412 
1218.816 31337130 32014880 32757856 33566392 34439524 35375624 36373012 
1222.191 37431092 38551604 39738368 40996988 42332528 43747964 45242820 
1225.566 46812580 48448600 50137252 51860088 53591996 55298660 56940128 
1228.941 58469452 59836064 60994324 61903304 62532320 62864588 62898552 
1232.317 62650880 62155640 61468428 60661308 59813288 59012916 58343800 
1235.692 57878208 57680484 57799320 58270212 59118868 60359616 61995976 
1239.067 64018564 66403536 69108560 72069392 75207360 78423936 81604848 
1242.442 84634368 87387536 89743272 91601176 92880080 93534624 93559000 
1245.818 92985104 91877440 90320776 88421768 86292760 84045112 81789888 
1249.193 79616200 77584952 75720752 74005552 72383008 70765920 69062920 
1252.568 67190192 65091960 62754392 60204756 57508120 54747344 52017676 
1255.943 49407148 46980604 44781504 42825036 41103368 39591196 38254388 
1259.319 37057336 35965612 34952496 33998920 33092026 32225702 31396788 
1262.694 30604330 29847956 29127442 28443106 27795592 27186364 26617688 
1266.069 26091556 25609638 25172458 24779388 24428806 24119378 23850110 
1269.444 23620856 23432076 23283686 23174594 23102042 23062034 23050048 
1272.820 23061858 23094286 23144606 23210978 23291446 23383750 23485690 
1276.195 23595946 23713404 23837508 23967252 24099730 24230216 24351838 
1279.570 24457234 24540318 24597048 24626258 24628574 24605254 24556516 
1282.945 24481490 24378160 24245352 24084144 23898874 23696922 23488068 
1286.321 23283300 23092538 22924840 22787378 22685706 22623150 22601578 
1289.696 22619938 22674918 22760840 22871436 23000750 23143698 23297948 
1293.071 23461838 23634186 23813462 23997014 24182326 24368206 24555710 
1296.446 24748310 24951348 25171124 25412474 25678566 25971132 26290856 
1299.822 26638156 27013518 27416944 27846604 28297696 28763100 29233254 
1303.197 29697924 30148814 30579126 30984774 31363488 31714760 32038708 
1306.572 32337304 32614354 32875388 33127178 33376962 33630256 33890004 
1309.947 34156612 34428296 34701764 34973288 35239300 35495844 35738220 
1313.323 35961288 36159092 36326176 36458732 36553984 36610756 36628348 
1316.698 36606468 36544900 36444820 36309712 36145944 35962876 35771788 
1320.073 35583044 35404564 35241100 35093756 34961544 34843412 34739844 
1323.448 34653032 34587756 34549692 34545920 34584168 34672836 34821368 
1326.823 35038544 35330044 35695984 36127584 36607476 37108688 37601048 
1330.199 38055556 38447116 38760476 38990252 39140228 39221384 39250144 
1333.574 39245900 39228276 39215692 39223996 39264072 39341840 39457904 
1336.949 39609164 39790692 39998564 40231396 40490868 40780232 41102384 
1340.324 41457872 41843716 42253344 42675832 43097080 43499212 43859380 
1343.700 44152760 44354028 44439908 44394952 44213064 43897324 43458268 
1347.075 42911636 42275404 41567100 40805128 40008956 39197960 38394480 
1350.450 37621536 36900248 36250280 35685448 35213468 34836016 34550188 
1353.825 34350004 34227840 34175536 34183996 34242684 34340432 34465672 
1357.201 34607632 34758368 34911704 35063080 35208292 35342196 35459492 
1360.576 35556036 35631744 35693900 35756604 35842096 35975148 36176664 
1363.951 36462048 36837560 37301704 37847060 38462248 39131348 39831000 
1367.326 40531900 41196548 41780856 42242320 42541544 42647208 42541216 
1370.702 42217156 41682628 40956788 40073408 39079428 38028868 36985100 
1374.077 36008340 35144840 34422844 33847916 33408414 33083550 32853946 
1377.452 32707802 32644250 32673542 32814744 33093884 33537720 34171240 
1380.827 35010496 36053736 37270724 38592304 39918972 41117168 42041984 
1384.203 42565152 42578056 42017456 40877056 39223052 37194768 34979860 
1387.578 32791838 30805040 29125208 27787256 26767154 26010214 25451436 
1390.953 25034002 24712286 24451064 24227272 24024782 23835092 23657102 
1394.328 23496078 23361302 23260788 23198920 23173404 23177318 23200456 
1397.704 23232824 23267396 23300328 23332176 23365988 23405850 23453830 
1401.079 23509404 23569044 23628168 23682086 23728800 23769780 23810838 
1404.454 23861208 23929578 24022542 24141972 24285540 24448224 24625102 
1407.829 24813068 25011328 25220844 25442584 25676774 25922204 26177170 
1411.205 26440596 26712992 26996662 27294704 27609652 27942354 28292002 
1414.580 28656974 29035326 29425352 29825560 30233600 30645540 31057622 
1417.955 31468242 31881750 32308430 32763716 33259724 33797988 34369228 
1421.330 34955368 35537628 36100144 36638080 37158968 37682640 38234704 
1424.706 38838044 39507036 40243976 41042944 41894468 42790628 43723448 
1428.081 44681708 45648640 46597220 47493240 48303596 49002620 49580224 
1431.456 50044552 50419456 50737596 51031000 51328144 51650532 52016036 
1434.831 52447116 52975716 53644480 54502580 55583300 56892040 58402888 
1438.207 60066084 61819176 63589120 65299132 66855916 68155744 69105488 
1441.582 69624752 69664616 69213232 68289304 66934996 65204292 63162200 
1444.957 60874268 58400428 55802184 53140116 50483284 47920928 45550564 
1448.332 43463360 41722820 40346388 39310716 38567068 38065864 37769776 
1451.708 37659984 37730996 37979504 38394012 38954660 39632140 40396712 
1455.083 41226384 42104480 43021560 43968776 44934596 45899772 46840148 
1458.458 47734492 48565972 49323916 50002056 50600944 51123876 51574184 
1461.833 51952132 52249872 52450704 52534912 52487496 52311388 52031796 
1465.208 51693564 51343916 51014676 50717116 50443464 50176972 49898676 
1468.584 49591664 49238884 48816276 48289448 47614568 46747780 45668848 
1471.959 44403024 43032208 41668876 40417584 39337852 38436328 37686292 
1475.334 37054488 36523600 36098920 35804024 35665192 35701488 35916228 
1478.709 36301248 36844304 37538080 38385324 39396800 40586280 41962308 
1482.085 43524560 45263708 47166756 49222148 51426228 53780664 56284644 
1485.460 58927408 61671932 64442128 67128472 69580016 71618552 73069384 
1488.835 73772240 73621776 72600000 70792008 68374816 65564504 62575480 
1492.210 59563448 56610320 53746576 50962212 48237240 45568336 42978980 
1495.586 40525276 38285980 36335220 34719532 33446382 32493144 31820778 
1498.961 31389772 31170386 31139952 31281258 31578336 32013026 32563530 
1502.336 33206608 33910568 34636596 35335472 35933288 36332768 36415996 
1505.711 36062916 35205384 33874600 32205754 30371378 28506822 26677086 
1509.087 24891342 23137792 21409916 19715168 18080684 16544806 15140478 
1512.462 13891555 12804084 11869166 11068897 10382209 9788842 9269020 
1515.837 8806417 8390551 8017538 7690947 7417987 7202801 7041599 6919845 
1519.695 6813372 6696427 6551121 6378292 6199549 6047152 5945394 5898302 
1523.552 5891585 5900956 5904952 5890275 5857361 5817230 5785598 5773107 
1527.409 5780964 5802220 5828043 5853634 5880300 5913853 5959132 6015100 
1531.267 6072755 6116640 6130753 6107533 6054208 5993532 5951642 5947275 
1535.124 5983017 6048193 6125679 6199044 6257497 6295080 6310511 6303888 
1538.982 6275515 6224555 6153336 6071142 5993028 5935216 5906867 5906464 
1542.839 5922519 5939985 5946939 5940120 5926550 5919496 5931655 5968337 
1546.697 6024474 6087607 6143288 6181702 6200254 6205363 6207951 6219077 
1550.554 6242774 6275447 6307687 6330279 6337507 6330548 6316260 6304258 
1554.411 6303451 6317302 6343896 6376947 6407748 6424999 6414742 6362220 
1558.269 6257194 6106390 5937601 5791878 5700452 5672252 5698269 5759710 
1562.126 5836237 5908714 5964642 5999109 6015604 6024709 6038887 6067446 
1565.984 6111700 6165805 6219312 6262573 6289567 6300257 6299887 6297231 
1569.841 6301467 6318815 6353209 6406100 6478134 6568277 6673479 6787254 
1573.698 6898838 6995567 7066386 7107340 7126066 7141965 7179287 7254785 
1577.556 7372993 7528384 7711655 7915959 8139364 8384335 8656348 8959717 
1581.413 9296573 9664926 10059736 10474150 10898134 11318927 11720282 
1584.789 12081907 12383521 12608930 12749691 12808828 12800774 12751330 
1588.164 12691928 12656312 12677702 12782722 12991303 13314662 13753433 
1591.539 14294954 14909910 15555169 16171776 16693320 17059940 17221250 
1594.914 17149928 16845952 16336851 15672017 14909944 14113333 13334615 
1598.290 12612307 11973481 11432463 10993787 10654934 10408374 10243841 
1601.665 10150863 10122271 10153949 10245130 10396530 10607295 10873672 
1605.040 11188284 11539701 11912551 12289300 12646726 12958973 13199778 
1608.415 13343191 13369842 13270010 13045691 12711682 12293935 11828510 
1611.791 11351882 10896163 10484130 10124781 9815819 9546533 9303310 9072774 
1615.648 8847299 8628463 8427440 8260785 8142740 8080287 8070463 8103072 
1619.505 8163503 8235492 8305094 8360148 8394334 8408218 8408893 8408116 
1623.363 8417339 8444095 8489403 8549212 8616972 8686297 8752591 8812909 
1627.220 8865492 8910099 8948150 8982820 9019016 9062523 9118452 9189448 
1631.078 9274875 9370239 9467554 9556559 9626034 9664418 9661945 9613669 
1634.935 9523637 9406298 9284759 9183560 9118147 9091586 9096898 9121938 
1638.792 9153171 9179025 9193780 9196521 9192528 9189482 9195168 9213477 
1642.650 9242957 9276568 9303953 9313973 9296303 9244988 9159634 9048178 
1646.507 8925894 8812605 8729195 8689677 8700528 8758507 8854231 8971794 
1650.365 9089082 9179262 9208265 9143120 8968038 8707155 8428521 8207026 
1654.222 8084235 8054564 8087139 8147703 8211381 8264162 8300062 8319414 
1658.080 8325730 8322589 8312287 8294692 8267776 8228468 8173700 8101925 
1661.937 8014298 7916026 7816021 7725383 7654491 7609979 7592917 7598413 
1665.794 7617363 7637866 7646903 7632875 7588702 7513079 7412156 7297778 
1669.652 7185688 7089253 7017791 6974153 6955500 6954354 6959473 6957654 
1673.509 6934962 6880222 6790553 6674723 6553274 6448539 6377048 6341542 
1677.367 6333070 6336633 6338348 6330548 6314108 6297265 6290474 6300997 
1681.224 6327152 6357075 6369651 6341710 6255614 6111599 5933637 5762430 
1685.082 5634186 5562762 5540579 5549036 5569944 5588874 5597097 5591290 
1688.939 5571219 5540008 5502457 5466419 5440080 5430585 5441824 5471687 
1692.796 5511584 5546552 5559339 5534471 5466117 5364427 5256557 5175169 
1696.654 5141036 5154213 5196328 5239755 5253975 5214805 5115085 4971716 
1700.511 4824976 4715063 4664621 4669812 4711613 4766649 4815863 4846453 
1704.369 4852350 4835262 4802998 4767252 4738008 4721226 4717475 4724174 
1708.226 4736735 4751240 4766314 4782127 4800753 4824574 4855232 4893028 
1712.083 4936828 4984419 5033624 5082733 5130273 5173895 5210144 5233048 
1715.941 5235530 5212189 5162964 5095640 5026316 4973056 4948289 4955360 
1719.798 4988373 5036674 5088600 5134296 5168530 5189923 5200821 5205348 
1723.656 5207897 5211485 5217454 5226307 5237575 5250923 5265679 5280168 
1727.513 5292041 5298984 5300158 5297207 5294289 5296502 5307236 5325113 
1731.371 5342858 5346481 5319008 5246530 5126216 4973794 4820922 4703005 
1735.228 4641177 4634948 4668405 4719953 4769999 4803266 4811340 4793818 
1739.085 4757102 4712517 4671621 4643153 4629724 4629657 4638833 4653033 
1742.943 4669511 4687095 4705918 4727054 4751038 4778408 4808760 4840958 
1746.800 4873627 4904891 4933074 4956668 4973459 4981737 4979994 4967828 
1750.658 4947485 4924260 4905561 4898323 4906968 4930963 4965415 5001512 
1754.515 5028562 5038081 5024875 4990217 4942324 4893263 4854829 4833185 
1758.373 4827757 4831175 4834022 4826417 4801792 4758911 4701866 4638967 
1762.230 4579828 4533420 4504124 4493377 4498265 4514068 4534625 4552907 
1766.087 4563153 4561914 4549860 4531880 4515775 4509146 4515106 4530909 
1769.945 4548186 4556088 4545205 4511992 4461775 4408250 4367115 4349477 
1773.802 4358312 4388067 4430007 4475534 4519525 4560541 4599652 4638163 
1777.660 4675573 4709301 4735965 4752546 4758676 4757671 4755226 4756968 
1781.517 4765711 4780485 4797168 4810637 4816600 4813786 4804170 4792076 
1785.375 4782394 4778776 4782964 4795158 4814389 4839484 4868902 4900300 
1789.232 4929119 4949697 4955830 4941854 4905863 4851144 4786716 4722901 
1793.089 4669913 4632939 4611942 4602732 4600422 4600589 4600288 4598011 
1796.947 4593222 4585152 4572897 4555150 4531076 4501312 4467667 4433355 
1800.804 4402024 4376586 4358747 4349008 4346498 4350146 4358446 4370394 
1804.662 4384418 4399380 4414375 4428333 4441355 4453573 4464922 4475367 
1808.519 4484640 4491436 4495252 4496391 4495587 4495018 4496993 4503321 
1812.376 4514537 4530038 4548252 4567472 4586760 4605780 4625404 4646971 
1816.234 4671185 4698784 4728662 4759614 4789396 4815930 4838077 4855399 
1820.091 4868768 4879658 4890080 4901104 4912364 4922115 4927612 4925802 
1823.949 4915681 4898960 4880463 4866791 4863441 4872421 4890783 4911727 
1827.806 4926103 4925802 4906801 4871315 4828025 4788425 4764036 4761088 
1831.664 4779312 4813786 4857141 4903349 4947921 4989245 5027355 5062988 
1835.521 5096412 5127557 5156258 5183284 5210714 5242304 5281778 5332560 
1839.378 5396297 5472324 5557527 5647412 5736845 5819950 5892122 5950398 
1843.236 5995044 6030319 6064019 6105282 6160932 6232959 6318310 6410001 
1847.093 6499524 6578840 6643702 6692927 6728899 6755552 6776081 6792000 
1850.951 6802366 6804756 6796241 6775980 6744278 6702685 6653257 6597308 
1854.808 6534976 6466363 6392145 6314175 6235849 6161167 6092546 6030488 
1858.666 5973510 5918287 5862332 5804470 5745373 5687862 5634824 5588068 
1862.523 5548734 5516484 5491014 5472525 5461553 5458164 5460815 5465647 
1866.380 5467023 5458802 5437060 5401564 5357248 5312904 5277518 5258536 
1870.238 5257798 5272622 5297341 5326019 5352955 5374457 5388749 5395055 
1874.095 5394183 5387575 5377175 5365433 5354431 5345340 5337625 5329809 
1877.953 5318975 5302909 5280839 5254109 5225234 5197468 5173057 5152067 
1881.810 5132553 5111431 5086086 5055714 5021690 4986932 4955026 4928651 
1885.667 4908812 4894470 4884048 4875034 4865518 4854829 4842600 4829298 
1889.525 4816500 4806348 4801390 4804170 4816064 4836301 4862469 4890281 
1893.382 4915045 4933811 4946043 4953819 4961393 4972788 4990016 5013109 
1897.240 5039858 5067346 5094702 5121623 5149754 5180467 5213900 5247469 
1901.097 5278089 5302305 5318505 5328300 5335747 5345508 5361509 5385025 
1904.955 5414111 5445180 5473868 5496853 5512625 5520544 5521081 5515007 
1908.812 5503799 5488564 5472123 5457225 5446388 5440952 5440583 5442697 
1912.669 5444542 5444005 5440382 5435080 5430048 5425720 5421123 5413340 
1916.527 5398813 5375833 5346749 5316895 5293517 5281879 5282650 5291404 
1920.384 5300057 5300259 5286574 5258368 5220237 5179998 5144657 5119377 
1924.242 5104290 5097350 5094970 5094601 5095741 5098826 5104055 5110861 
1928.099 5116930 5119913 5118941 5114951 5110526 5108548 5110895 5116896 
1931.957 5124171 5129602 5131547 5130407 5129033 5129804 5134363 5141405 
1935.814 5147842 5149217 5143953 5132251 5117902 5105396 5097954 5095875 
1939.671 5096613 5096110 5090746 5079683 5064899 5050585 5041199 5039825 
1943.529 5046831 5061547 5082934 5110056 5143282 5182178 5224161 5265411 
1947.386 5300427 5324308 5335713 5336149 5330547 5324543 5323671 5329306 
1951.244 5341315 5357617 5375934 5395324 5415386 5435181 5452763 5463835 
1955.101 5463633 5449105 5420117 5380664 5338598 5302204 5277921 5268228 
1958.958 5271347 5282784 5298448 5316996 5337826 5363488 5394486 5429310 
1962.816 5464540 5496719 5522960 5542391 5556285 5566152 5572831 5575347 
1966.673 5572394 5563635 5550680 5538061 5531619 5535679 5550680 5572663 
1970.531 5595855 5613342 5621028 5619081 5610992 5601225 5594479 5592733 
1974.388 5596559 5607568 5628748 5665505 5722375 5801447 5898503 6002804 
1978.246 6099602 6176156 6223782 6241967 6235580 6213396 6184693 6155521 
1982.103 6129073 6106390 6086868 6070302 6058173 6051217 6050243 6055048 
1985.960 6064590 6077728 6093924 6112540 6132736 6153001 6170073 6179786 
1989.818 6180089 6171048 6155924 6141507 6135761 6142952 6165368 6199817 
1993.675 6240186 6281129 6318109 6349880 6377350 6401998 6423922 6442115 
1997.533 6454794 6460343 6458930 6452810 6444032 6435289 6426613 6415953 
2001.390 6400955 6379267 6350116 6316192 6281700 6250337 6225026 6205968 
2005.248 6191986 6181467 6173737 6168292 6166343 6167250 6169267 6168594 
2009.105 6163016 6150816 6133509 6115564 6101988 6097418 6104105 6120974 
2012.962 6145674 6175753 6209262 6246505 6286944 6329203 6369381 6403914 
2016.820 6428697 6443090 6450287 6456812 6469255 6492798 6528349 6572717 
2020.677 6619815 6663587 6699825 6726678 6745018 6756191 6761172 6760398 
2024.535 6754374 6743706 6731053 6718804 6709314 6702955 6698378 6691816 
2028.392 6680713 6663923 6643466 6623650 6608982 6603868 6610563 6628865 
2032.250 6658607 6700027 6753028 6817613 6892678 6973412 7052107 7121755 
2036.107 7176256 7213481 7236289 7251315 7264118 7279988 7300305 7322916 
2039.964 7345258 7363658 7376599 7384351 7387721 7387148 7382733 7374173 
2043.822 7361434 7346438 7332048 7321467 7318535 7325410 7341248 7365545 
2047.679 7395709 7428975 7462176 7490762 7508932 7510786 7491031 7448255 
2051.537 7386069 7312908 7239557 7177536 7134756 7112829 7108114 7112560 
2055.394 7117342 7116871 7109091 7096360 7082888 7072178 7065813 7063826 
2059.251 7065443 7070023 7078914 7093800 7115760 7143244 7172685 7197883 
2063.109 7213312 7215906 7205866 7186462 7162579 7139000 7118353 7101614 
2066.966 7088108 7077331 7069383 7065139 7065072 7068541 7073357 7076758 
2070.824 7075782 7069147 7057865 7044428 7031867 7022135 7015569 7010956 
2074.681 7006982 7002470 6998059 6994759 6993749 6995298 6997857 6999238 
2078.539 6997487 6991325 6981896 6971122 6961122 6952974 6946341 6939507 
2082.396 6930215 6917523 6901700 6884363 6867834 6853898 6843497 6836832 
2086.253 6833399 6832557 6834375 6838650 6844541 6850532 6854504 6854167 
2090.111 6848546 6837943 6824109 6809266 6795534 6783115 6771807 6760734 
2093.968 6749831 6740475 6735394 6736639 6744985 6758412 6772379 6781668 
2097.826 6782812 6773826 6757638 6738994 6722943 6713520 6712814 6719779 
2101.683 6732904 6750336 6770730 6793414 6817243 6840569 6861001 6876687 
2105.541 6887190 6894664 6902575 6915839 6936881 6966610 7001696 7037255 
2109.398 7068777 7093463 7111583 7125864 7139842 7155809 7174235 7193301 
2113.255 7210246 7222913 7230730 7235042 7238006 7241915 7247979 7256301 
2117.113 7266341 7277224 7288681 7300811 7313548 7326185 7337406 7345662 
2120.970 7350683 7353144 7355165 7360052 7370129 7386137 7406966 7430087 
2124.828 7452839 7473367 7491706 7508157 7522990 7535127 7541735 7538532 
2128.685 7522889 7493695 7452704 7404943 7356143 7311897 7275809 7249361 
2132.542 7232448 7224699 7226248 7237232 7257581 7285648 7317558 7347785 
2136.400 7370803 7382463 7382025 7371780 7355638 7338788 7325309 7317659 
2140.257 7317120 7323792 7337170 7356480 7380003 7404370 7425705 7440503 
2144.115 7445390 7439862 7425807 7405449 7382126 7358603 7335519 7313380 
2147.972 7291882 7271800 7254077 7239759 7227360 7214289 7196603 7169754 
2151.830 7132466 7086390 7035807 6986274 6942874 6906648 6876385 6850734 
2155.687 6830639 6822830 6840468 6899343 7012303 7182623 7399584 7640732 
2159.544 7877155 8081130 8234108 8329547 8370958 8370012 8341402 8300197 
2163.402 8259164 8227050 8209998 8209829 8224652 8249303 8276725 8299049 
2167.259 8309889 8304992 8283378 8246703 8197639 8140106 8077789 8014061 
2171.117 7952031 7895510 7847396 7809982 7784648 7770379 7765151 7766399 
2174.974 7771796 7778374 7785222 7789911 7789472 7781410 7762925 7734051 
2178.832 7698131 7661573 7632841 7618509 7622927 7644711 7678064 7714657 
2182.689 7746295 7767984 7778542 7779285 7774225 7766803 7758775 7751827 
2186.546 7747341 7746228 7750950 7764105 7786537 7817944 7855730 7895476 
2190.404 7933134 7965024 7989087 8004240 8011193 8010214 8002620 7989526 
2194.261 7973258 7956519 7941975 7932155 7928004 7928916 7933404 7939748 
2198.119 7946362 7952740 7958679 7964586 7969479 7971942 7970423 7963607 
2201.976 7951121 7934383 7915283 7895949 7878066 7862140 7848746 7838929 
2205.833 7834475 7838052 7851648 7875704 7908568 7945923 7982100 8012543 
2209.691 8034144 8047139 8053721 8057265 8060405 8064151 8068168 8071577 
2213.548 8073299 8073906 8074143 8074986 8077046 8079814 8081502 8081062 
2217.406 8078126 8073974 8070261 8069147 8071206 8075797 8081839 8087915 
2221.263 8092945 8097975 8103748 8110432 8117419 8121944 8120695 8111242 
2225.121 8093182 8068303 8040895 8015918 7996713 7984598 7978152 7974035 
2228.978 7969512 7962965 7954090 7945484 7940119 7940693 7948826 7964754 
2232.835 7986791 8012273 8037621 8059121 8073906 8080624 8079611 8073974 
2236.693 8068134 8066109 8070733 8081974 8096355 8108710 8113808 8108946 
2240.550 8094936 8076235 8058446 8047241 8045283 8051358 8061721 8071510 
2244.408 8077046 8077046 8073535 8069384 8067999 8071408 8079375 8090177 
2248.265 8102026 8113133 8122821 8131194 8138554 8145036 8150944 8156616 
2252.123 8162896 8171235 8183053 8199294 8219452 8241266 8261596 8277569 
2255.980 8286789 8289187 8285708 8278075 8267573 8254470 8238058 8217527 
2259.837 8192574 8164314 8134638 8106719 8083088 8065096 8053350 8047341 
2263.695 8046430 8050717 8060270 8075358 8095815 8120222 8146285 8170864 
2267.552 8191696 8207060 8216447 8220566 8220533 8217257 8211787 8204662 
2271.410 8196255 8187138 8178157 8169446 8161309 8153375 8145171 8136393 
2275.267 8127311 8118399 8111107 8106482 8104895 8106482 8110095 8114483 
2279.125 8118635 8121944 8124475 8126805 8130215 8135178 8142402 8152565 
2282.982 8165867 8181466 8198922 8216413 8232081 8243461 8248796 8246906 
2286.839 8238227 8224045 8206654 8188657 8171910 8157865 8146825 8138925 
2290.697 8133489 8130417 8129033 8129135 8130282 8132072 8134030 8136595 
2294.554 8140106 8145204 8152295 8161377 8171573 8181534 8189569 8194431 
2298.412 8195512 8192979 8187475 8179812 8171201 8162018 8153037 8144799 
2302.269 8137946 8133017 8130113 8128696 8127751 8125252 8119547 8109824 
2306.126 8095882 8078903 8060978 8043899 8028879 8016694 8006670 7998097 
2309.984 7989896 7981628 7973023 7964113 7955507 7947240 7939410 7932560 
2313.841 7926992 7922639 7919738 7917578 7914980 7910593 7903338 7892810 
2317.699 7879752 7865987 7853908 7845743 7843011 7845946 7853537 7863828 
2321.556 7874051 7881406 7882857 7875299 7856540 7825299 7781410 7726900 
2325.414 7665619 7601953 7541263 7488301 7445727 7414987 7395237 7384890 
2329.271 7381621 7383609 7389642 7398607 7409662 7421593 7433323 7443974 
2333.128 7453243 7461772 7471042 7482402 7496964 7515506 7537251 7561424 
2336.986 7586611 7611698 7635505 7657526 7676782 7692701 7705281 7714725 
2340.843 7721808 7727137 7731285 7733849 7733444 7728284 7717693 7702852 
2344.701 7688148 7680829 7688856 7719986 7777834 7861905 7967454 8086666 
2348.558 8210943 8330898 8439163 8529984 8599465 8646918 8674060 8685249 
2352.416 8685959 8682106 8678725 8678691 8683728 8693531 8707357 8723989 
2356.273 8742888 8763646 8786265 8811287 8839522 8871580 8908239 8949537 
2360.130 8994862 9042697 9090504 9135371 9175201 9208975 9237270 9262317 
2363.988 9286587 9312585 9340886 9370882 9400372 9427258 9449336 9465861 
2367.845 9477815 9486688 9494206 9501623 9510056 9519471 9530004 9542366 
2371.703 9557134 9575493 9598120 9625357 9657303 9693860 9734860 9780471 
2375.560 9831442 9888454 9952151 10023114 10101720 10188683 10284859 
2378.935 10390999 10508027 10636088 10774207 10920151 11070529 11221502 
2382.311 11368991 11509929 11642166 11764230 11875636 11976069 12065249 
2385.686 12143168 12209821 12265236 12309717 12343464 12366475 12378577 
2389.061 12379532 12369441 12348782 12318852 12281324 12238141 12190975 
2392.436 12140816 12087869 12032272 11973923 11913334 11851528 11790309 
2395.812 11731618 11677530 11629710 11589552 11558075 11535924 11523846 
2399.187 11522280 11531229 11550453 11579446 11617628 11664493 11719669 
2402.562 11782955 11854116 11932576 12017624 12108107 12203176 12302082 
2405.937 12404863 12511898 12623359 12739591 12860565 12985533 13114224 
2409.313 13246473 13382998 13524660 13672558 13826799 13986912 14150815 
2412.688 14315739 14477678 14632993 14777806 14908915 15023327 15118829 
2416.063 15193901 15248258 15282611 15299257 15301282 15292461 15276193 
2419.438 15255499 15232231 15207249 15180656 15151971 15120201 15084762 
2422.813 15044593 14999454 14949381 14895645 14840133 14785827 14736568 
2426.189 14695437 14665790 14649374 14647353 14659724 14686354 14726799 
2429.564 14780926 14848704 14929936 15024218 15130905 15248806 15376900 
2432.939 15514029 15659513 15812743 15973659 16142339 16318891 16503640 
2436.314 16697004 16899034 17109740 17328858 17555988 17791070 18034606 
2439.690 18287988 18553414 18833640 19130804 19446536 19780702 20132064 
2443.065 20498196 20876630 21265204 21662104 22066132 22476222 22891310 
2446.440 23309906 23730656 24152374 24574644 24997392 25420976 25845150 
2449.815 26269526 26692096 27110318 27521072 27921048 28306962 28675594 
2453.191 29024202 29349980 29650314 29922778 30164724 30373546 30545814 
2456.566 30678110 30766306 30806178 30794724 30729818 30610766 30438648 
2459.941 30215304 29943368 29624914 29262532 28858344 28415052 27936100 
2463.316 27425378 26887374 26327188 25749580 25159678 24563002 23965290 
2466.692 23372666 22792126 22228964 21688926 21176066 20693418 20243000 
2470.067 19826344 19444110 19097286 18785716 18508496 18263244 18046314 
2473.442 17853486 17679932 17522212 17377412 17244072 17121458 17008596 
2476.817 16904030 16806068 16712017 16619917 16528696 16438527 16350854 
2480.193 16266948 16188422 16115619 16048227 15984900 15924230 15865425 
2483.568 15807865 15751857 15697954 15646528 15598271 15553246 15511557 
2486.943 15473202 15438318 15406698 15378273 15353077 15330869 15311441 
2490.318 15294864 15281066 15270119 15261813 15255807 15251929 15249698 
2493.694 15249081 15250316 15253645 15259033 15266035 15273447 15280174 
2497.069 15284842 15286970 15286970 15285700 15284567 15284121 15284602 
2500.444 15284842 15283331 15278595 15270015 15257523 15242217 15225402 
2503.819 15208244 15191705 15176229 15162059 15149192 15138522 15130322 
2507.195 15125245 15123289 15123632 15124799 15125278 15123083 15117079 
2510.570 15106066 15089394 15066615 15037630 15002644 14962344 14917797 
2513.945 14870683 14822271 14773555 14724982 14676209 14626585 14575698 
2517.320 14523790 14471442 14419958 14370671 14324575 14282284 14244209 
2520.696 14210246 14181009 14157046 14138800 14126341 14119186 14115661 
2524.071 14113744 14111725 14108747 14104879 14101662 14100703 14103374 
2527.446 14110150 14120214 14132091 14144312 14155642 14165980 14175839 
2530.821 14186418 14199085 14214627 14233629 14256055 14282044 14311253 
2534.197 14343512 14378240 14414512 14451403 14488023 14523619 14558121 
2537.572 14592454 14627407 14663939 14702772 14743594 14786136 14829367 
2540.947 14872294 14914540 14955760 14996058 15035675 15075329 15115569 
2544.322 15156809 15199803 15244757 15291603 15339656 15387337 15432997 
2547.698 15474849 15511453 15542600 15568838 15591780 15613349 15635125 
2551.073 15658243 15682803 15708294 15733786 15758110 15780719 15801199 
2554.448 15819961 15837451 15854085 15870340 15885875 15900241 15912579 
2557.823 15921688 15926499 15925916 15919074 15905637 15885770 15859962 
2561.198 15829651 15796045 15760826 15725197 15690155 15655804 15622142 
2564.574 15588379 15554070 15518837 15483160 15447657 15413599 15382565 
2567.949 15355445 15333168 15315869 15303273 15294864 15290265 15288789 
2571.324 15290265 15294280 15300664 15308902 15318649 15329770 15342470 
2574.699 15357300 15374944 15396296 15421633 15450918 15483915 15519763 
2578.075 15557573 15597000 15637770 15680090 15723994 15769621 15816558 
2581.450 15864464 15912408 15960047 16006868 16053075 16098736 16144505 
2584.825 16190864 16238295 16286796 16336611 16387394 16439078 16491078 
2588.200 16542740 16593341 16642295 16689017 16732920 16774004 16812198 
2591.576 16847848 16881742 16915158 16949298 16985648 17025514 17069520 
2594.951 17117702 17169266 17222732 17276378 17328892 17379724 17428938 
2598.326 17477296 17526144 17576756 17629722 17685936 17745196 17807710 
2601.701 17873236 17941808 18013536 18088592 18166944 18248800 18334024 
2605.077 18422444 18513716 18607328 18702652 18798794 18895372 18991940 
2608.452 19088492 19185482 19282802 19380322 19477030 19571126 19660318 
2611.827 19742352 19815522 19878716 19931960 19975778 20010748 20037362 
2615.202 20055546 20065226 20066162 20058702 20043644 20022234 19995830 
2618.578 19965474 19931928 19895608 19856862 19816216 19774670 19733856 
2621.953 19695334 19660838 19631370 19607694 19589738 19577156 19569184 
2625.328 19565164 19564366 19566202 19570570 19577052 19586168 19598162 
2628.703 19614004 19634214 19659348 19689406 19724078 19762602 19804286 
2632.079 19848436 19894636 19942716 19992742 20044754 20098678 20154730 
2635.454 20212764 20272994 20335596 20400566 20467734 20536546 20606202 
2638.829 20675938 20744958 20813116 20880420 20947348 21014220 21081448 
2642.204 21149036 21216702 21283962 21350606 21416250 21481000 21544436 
2645.580 21606766 21668026 21728460 21788830 21850048 21913362 21979650 
2648.955 22049712 22123202 22199878 22278732 22358888 22440178 22522668 
2652.330 22607094 22694224 22784794 22879156 22977344 23079434 23185532 
2655.705 23295886 23410710 23530392 23654864 23783852 23916344 24051292 
2659.081 24187720 24324576 24461474 24597994 24734104 24869764 25005254 
2662.456 25140788 25276892 25413844 25552318 25692380 25834002 25976794 
2665.831 26120162 26263682 26407144 26550794 26694916 26840070 26986720 
2669.206 27135360 27286344 27440520 27598494 27760624 27927160 28097718 
2672.582 28271104 28445370 28618538 28788626 28954352 29115110 29270894 
2675.957 29422446 29570218 29714742 29856190 29994702 30130560 30264434 
2679.332 30397176 30530068 30664670 30802692 30945954 31096204 31255480 
2682.707 31425674 31608128 31803918 32013134 32235586 32470434 32716520 
2686.083 32972862 33238478 33512738 33794728 34083780 34379052 34679872 
2689.458 34985568 35296084 35611528 35932280 36258380 36589740 36926328 
2692.833 37267656 37613624 37964424 38320536 38682520 39050680 39425356 
2696.208 39806236 40192832 40584428 40980600 41380780 41784540 42191488 
2699.583 42600860 43011936 43423480 43834680 44244724 44652920 45058520 
2702.959 45460748 45858452 46249736 46632668 47004640 47363260 47705236 
2706.334 48027572 48327224 48600880 48846344 49061676 49246048 49399424 
2709.709 49521992 49614656 49677660 49711356 49716032 49692408 49641064 
2713.084 49562732 49458160 49327628 49171012 48987636 48777052 48539036 
2716.460 48274268 47984088 47670588 47335916 46982268 46611348 46225152 
2719.835 45825492 45415056 44996552 44573572 44150044 43729532 43315980 
2723.210 42912588 42522288 42147708 41790776 41452916 41134764 40836792 
2726.585 40558780 40300976 40063784 39847964 39655232 39486676 39343508 
2729.961 39225916 39133304 39064636 39017764 38991416 38984416 38995908 
2733.336 39025484 39072648 39136820 39216816 39311404 39418824 39537588 
2736.711 39665976 39802136 39944180 40090056 40238048 40386240 40532916 
2740.086 40676588 40815864 40949068 41074628 41191192 41297544 41393608 
2743.462 41480324 41559696 41634304 41706916 41780200 41855644 41934100 
2746.837 42015704 42100096 42186556 42274564 42363176 42451620 42539204 
2750.212 42625204 42709972 42794284 42880040 42969320 43064808 43168692 
2753.587 43282776 43407956 43545104 43694208 43855936 44030632 44218716 
2756.963 44420128 44634340 44860376 45096120 45339100 45586040 45833340 
2760.338 46076944 46312840 46537096 46745676 46935640 47104376 47249832 
2763.713 47370428 47464964 47532128 47571016 47581148 47562956 47517928 
2767.088 47448368 47357572 47249576 47127904 46996480 46858568 46717120 
2770.464 46574900 46434064 46296768 46164308 46037892 45917924 45804544 
2773.839 45697708 45597484 45503352 45415240 45332588 45254476 45179980 
2777.214 45107188 45034116 44957784 44874924 44781832 44674328 44548936 
2780.589 44402656 44233868 44042880 43831380 43602544 43360428 43109260 
2783.965 42852976 42595232 42338920 42086484 41839920 41600572 41369300 
2787.340 41146312 40930972 40722476 40519892 40322212 40129376 39941528 
2790.715 39759284 39583576 39415232 39255148 39103536 38961076 38827572 
2794.090 38702696 38585640 38474700 38367660 38261952 38154960 38044348 
2797.466 37928480 37806612 37678484 37544512 37404976 37259712 37108616 
2800.841 36951044 36786600 36614472 36434444 36246388 36050496 35847200 
2804.216 35637352 35422104 35202652 34980792 34758260 34536956 34318592 
2807.591 34105356 33898744 33700720 33512772 33336136 33171844 33020124 
2810.967 32881000 32754284 32639678 32536816 32445726 32366290 32298434 
2814.342 32241796 32195832 32159972 32133530 32116800 32109592 32112912 
2817.717 32127682 32155048 32195404 32249254 32316602 32397776 32492500 
2821.092 32601424 32724414 32861736 33013008 33177386 33353776 33540260 
2824.468 33735024 33935828 34140160 34345268 34548576 34747060 34937984 
2827.843 35118796 35286560 35438820 35572652 35685556 35774732 35838460 
2831.218 35875776 35887400 35875200 35842164 35791216 35725804 35648468 
2834.593 35560928 35465320 35363260 35256624 35147680 35037864 34928864 
2837.969 34820688 34712820 34604192 34493292 34379088 34261220 34140016 
2841.344 34016300 33890936 33765072 33639820 33516102 33395066 33277896 
2844.719 33165586 33059164 32959208 32866024 32779294 32698766 32623890 
2848.094 32554638 32490324 32430660 32375320 32324060 32276806 32233872 
2851.469 32195724 32163716 32138672 32121438 32112446 32111946 32119866 
2854.845 32136314 32161828 32196938 32242116 32297436 32361686 32432694 
2858.220 32507428 32582280 32654002 32719486 32776650 32823962 32860308 
2861.595 32885182 32898332 32899800 32890614 32871888 32845690 32814492 
2864.970 32780760 32746852 32714948 32686938 32664470 32648678 32640714 
2868.346 32641002 32649752 32667008 32692510 32725882 32767110 32815852 
2871.721 32871562 32933508 33000458 33071358 33144772 33219948 33297178 
2875.096 33377428 33462346 33553936 33653672 33762780 33881196 34008132 
2878.471 34142596 34283236 34428728 34577816 34729832 34883876 35039336 
2881.847 35195860 35353304 35511488 35669980 35828276 35985552 36140904 
2885.222 36293000 36440896 36583720 36721044 36852384 36977524 37096348 
2888.597 37208776 37314700 37414728 37509468 37600148 37687916 37773972 
2891.972 37859680 37946308 38035196 38128336 38227828 38336100 38455512 
2895.348 38587740 38733884 38893376 39063948 39241984 39421980 39597004 
2898.723 39758956 39899136 40009572 40083184 40115492 40104952 40053352 
2902.098 39965356 39847236 39706384 39549932 39383524 39212284 39039984 
2905.473 38869096 38701828 38539620 38383296 38232712 38087460 37946780 
2908.849 37809720 37676316 37546928 37422748 37304592 37193292 37088444 
2912.224 36988816 36892460 36796696 36699696 36599656 36495740 36387496 
2915.599 36275096 36158188 36036564 35909680 35776856 35638256 35494368 
2918.974 35346760 35197908 35050616 34907932 34772800 34647432 34533292 
2922.350 34430912 34339676 34258388 34185292 34118080 34054320 33991648 
2925.725 33927548 33860096 33787168 33707416 33620160 33525408 33424340 
2929.100 33319000 33212438 33108830 33012364 32927786 32859340 32810420 
2932.475 32783728 32780152 32799628 32840938 32902408 32981906 33077758 
2935.851 33188832 33314314 33453864 33606916 33772628 33949584 34136216 
2939.226 34330748 34531176 34735900 34943340 35151308 35357652 35558772 
2942.601 35750556 35927964 36084880 36215236 36312664 36370812 36384828 
2945.976 36350924 36268036 36137556 35964276 35755884 35521588 35271968 
2949.352 35017104 34764832 34520988 34288792 34069052 33860956 33662804 
2952.727 33472828 33289272 33111046 32937438 32767792 32601782 32439050 
2956.102 32279234 32121688 31965982 31811688 31658552 31506862 31357006 
2959.477 31210190 31067408 30929764 30798246 30673026 30554168 30441066 
2962.853 30333110 30229940 30131590 30038692 29952314 29873936 29804800 
2966.228 29745790 29697144 29658438 29628178 29604484 29584618 29565998 
2969.603 29545960 29522054 29492194 29454962 29409256 29354728 29291382 
2972.978 29220356 29143314 29063206 28983608 28907814 28839224 28779314 
2976.354 28727416 28680088 28631492 28573772 28497590 28394536 28257452 
2979.729 28081636 27865718 27611488 27324168 27010944 26680892 26344050 
2983.104 26009228 25685210 25378716 25094762 24836714 24606866 24406864 
2986.479 24238448 24103232 24002650 23937246 23905316 23901780 23917008 
2989.854 23937664 23947014 23926218 23858862 23732162 23540010 23284350 
2993.230 22975144 22628876 22264258 21900886 21555022 21236882 20951488 
2996.605 20698146 20472874 20270148 20084834 19913472 19754038 19605960 
2999.980 19469094 19342976 19226796 19119238 19018420 18922610 18830282 
3003.355 18739910 18650422 18561124 18471466 18381756 18292930 18206610 
3006.731 18124762 18048938 17980280 17918882 17863878 17813818 17767460 
3010.106 17723660 17682278 17643282 17607086 17573686 17542566 17512932 
3013.481 17483818 17454806 17425836 17397552 17371204 17348272 17329548 
3016.856 17315788 17306824 17302204 17301238 17303134 17307478 17313790 
3020.232 17321548 17330272 17338824 17345996 17350168 17349306 17341858 
3023.607 17326684 17303444 17272862 17236694 17197498 17158168 17121216 
3026.982 17088682 17061628 17039884 17022516 17008250 16995536 16983028 
3030.357 16969730 16954812 16937620 16917636 16894350 16867102 16835998 
3033.733 16801006 16762812 16722452 16681544 16641608 16604254 16570896 
3037.108 16542671 16520092 16503261 16491972 16485605 16483437 16484538 
3040.483 16488083 16493453 16500128 16507907 16516753 16526906 16538989 
3043.858 16553136 16569829 16588762 16609589 16631484 16653210 16673764 
3047.234 16692219 16708231 16722074 16734092 16745076 16755372 16765324 
3050.609 16774727 16783026 16789672 16793668 16794426 16790844 16782268 
3053.984 16768597 16749794 16727135 16702238 16677586 16655549 16638199 
3057.359 16626183 16619435 16616508 16615476 16614478 16612275 16608212 
3060.735 16602498 16595647 16588142 16580328 16572343 16564254 16556611 
3064.110 16550209 16546078 16545391 16548866 16556473 16567454 16580535 
3067.485 16594201 16607180 16618678 16628833 16637957 16646978 16656961 
3070.860 16668599 16682716 16699450 16718594 16739946 16762845 16786642 
3074.236 16810648 16834276 16857456 16880054 16902412 16924940 16947954 
3077.611 16972004 16997052 17023136 17049946 17077170 17103916 17129454 
3080.986 17153272 17174884 17194222 17211598 17227904 17243554 17259278 
3084.361 17275172 17291272 17307098 17322582 17337928 17353720 17370790 
3087.737 17390172 17412520 17438044 17466294 17496754 17528318 17560264 
3091.112 17591834 17622888 17652842 17681622 17709024 17735118 17760212 
3094.487 17785202 17811230 17839470 17871026 17906554 17945678 17987428 
3097.862 18030254 18072668 18113396 18151466 18187120 18220742 18253500 
3101.238 18286708 18321340 18358148 18397382 18438554 18480698 18522950 
3104.613 18564030 18603454 18641082 18677332 18712926 18748732 18785544 
3107.988 18823776 18863638 18904822 18947358 18990796 19034864 19079282 
3111.363 19123566 19167404 19210346 19252392 19293646 19334348 19374916 
3114.739 19415558 19456168 19496540 19536152 19575076 19613552 19652518 
3118.114 19692596 19734758 19779178 19825162 19871466 19916698 19959574 
3121.489 19999508 20037294 20073938 20111174 20150356 20192180 20236544 
3124.864 20282750 20329796 20376466 20422202 20466934 20510770 20554264 
3128.240 20598246 20643170 20689318 20736998 20786108 20836304 20886956 
3131.615 20937648 20987858 21036964 21084928 21131816 21177980 21223834 
3134.990 21269938 21316778 21364318 21412666 21461504 21510802 21560104 
3138.365 21609240 21658136 21706758 21755526 21804822 21855238 21907056 
3141.740 21960550 22015238 22070630 22125922 22180560 22234054 22286474 
3145.116 22338274 22390112 22442724 22496636 22552400 22610096 22669646 
3148.491 22731056 22793908 22857780 22922012 22985798 23048336 23108962 
3151.866 23167288 23223806 23279316 23335288 23393016 23453970 23519058 
3155.241 23588496 23662176 23739440 23819412 23900904 23982622 24063410 
3158.617 24142286 24218340 24291358 24361548 24429682 24496914 24564650 
3161.992 24634256 24706816 24783072 24863028 24946470 25032562 25120496 
3165.367 25208624 25295926 25380928 25462714 25540650 25614840 25685948 
3168.742 25754994 25823628 25892872 25963252 26034488 26105736 26175234 
3172.118 26241576 26303672 26360950 26413730 26462712 26508706 26552168 
3175.493 26592958 26631076 26666060 26698158 26728426 26758378 26789918 
3178.868 26824492 26862982 26905424 26950900 26998638 27047686 27097728 
3182.243 27148940 27201674 27255824 27310972 27366124 27420368 27473134 
3185.619 27524638 27575686 27628118 27683666 27743246 27806932 27873666 
3188.994 27942212 28010736 28078276 28144488 28209576 28274426 28339748 
3192.369 28405928 28473388 28541676 28610398 28679168 28747488 28814826 
3195.744 28881008 28945746 29009148 29072028 29134918 29199198 29265544 
3199.120 29334628 29406562 29480918 29557132 29634386 29712328 29790322 
3202.495 29868114 29945036 30020512 30093910 30165080 30233954 30301346 
3205.870 30368216 30435168 30502804 30571196 30639494 30707696 30775554 
3209.245 30843884 30913682 30986340 31062570 31141874 31223184 31304724 
3212.621 31384428 31461298 31535078 31606950 31678476 31751510 31826838 
3215.996 31904750 31984742 32065608 32146092 32225344 32303038 32379392 
3219.371 32454510 32529354 32604996 32681938 32760750 32841794 32925036 
3222.746 33009540 33094670 33179138 33262514 33344402 33425342 33506472 
3226.122 33588512 33672504 33758624 33846520 33935720 34025116 34114284 
3229.497 34202532 34290048 34376900 34463664 34550336 34637596 34725668 
3232.872 34814728 34904628 34995264 35086388 35177752 35269060 35360852 
3236.247 35453308 35546976 35642604 35739908 35838744 35938292 36037644 
3239.623 36136368 36234468 36332444 36431272 36531672 36634044 36738352 
3242.998 36844376 36951260 37059176 37167988 37278596 37391904 37508564 
3246.373 37628872 37752644 37879164 38007748 38137704 38268244 38398824 
3249.748 38528684 38657240 38783552 38907220 39028204 39146868 39264256 
3253.124 39381636 39500392 39621360 39744868 39870956 39998928 40128504 
3256.499 40259388 40391112 40523388 40655956 40787472 40917136 41043636 
3259.874 41165836 41283224 41395760 41504020 41608816 41711292 41812376 
3263.249 41912604 42012056 42110616 42207772 42302688 42394920 42483956 
3266.625 42569392 42651740 42731436 42809532 42886844 42964088 43041428 
3270.000 43118044 43192808 43263996 43330116 43390160 43444356 43493976 
3273.375 43541116 43588292 43637236 43689044 43743056 43798064 43852420 
3276.750 43904764 43954256 44001372 44047168 44092644 44138380 44184232 
3280.125 44229536 44273524 44315504 44355608 44394472 44433084 44472212 
3283.501 44511928 44551540 44590020 44626152 44659052 44688980 44716488 
3286.876 44742896 44769380 44796748 44825400 44855600 44886752 44918576 
3290.251 44950580 44982328 45013388 45043412 45072012 45099248 45125532 
3293.626 45151340 45177592 45204688 45232964 45262160 45292024 45321960 
3297.002 45351676 45380996 45409724 45437864 45465128 45491028 45515496 
3300.377 45538492 45560828 45583352 45607492 45634432 45664724 45699032 
3303.752 45736800 45777960 45821700 45867656 45915496 45964812 46014984 
3307.127 46065784 46116884 46168696 46221908 46277420 46335880 46397560 
3310.503 46461864 46527692 46593864 46660044 46726672 46795496 46868940 
3313.878 46949188 47037356 47133660 47236680 47344448 47454764 47566208 
3317.253 47678056 47790228 47903168 48017100 48131728 48246940 48362296 
3320.628 48477904 48593580 48709732 48826544 48943684 49060820 49177432 
3324.004 49292772 49406364 49518244 49627956 49735540 49840552 49942500 
3327.379 50040760 50134764 50224024 50308316 50386788 50458760 50523260 
3330.754 50579652 50627716 50667888 50700992 50728176 50750036 50766276 
3334.129 50775956 50777892 50770628 50754240 50729556 50698348 50662788 
3337.505 50624140 50582744 50537628 50487340 50429652 50363124 50287260 
3340.880 50201932 50108248 50007000 49899088 49785480 49666660 49542752 
3344.255 49413900 49279632 49139140 48991900 48837224 48675036 48506172 
3347.630 48332372 48155384 47976948 47798104 47619340 47440200 47260140 
3351.006 47079044 46896952 46714532 46532192 46350184 46168068 45985144 
3354.381 45800788 45614964 45428628 45243552 45061568 44884332 44712376 
3357.756 44545336 44382068 44221172 44061472 43902604 43744484 43587632 
3361.131 43432488 43279340 43128288 42979308 42832536 42688076 42546260 
3364.507 42407268 42271060 42137776 42007420 41880420 41757436 41639372 
3367.882 41526736 41419708 41317148 41217716 41119212 41019820 40918264 
3371.257 40813972 40707008 40598396 40488648 40378348 40267892 40157648 
3374.632 40047868 39939024 39831148 39724244 39617876 39510848 39402640 
3378.008 39292144 39179684 39065904 38952196 38840112 38730664 38623920 
3381.383 38519160 38414644 38308272 38198628 38084676 37966596 37845144 
3384.758 37722104 37599244 37478116 37359512 37243540 37129908 37017536 
3388.133 36905440 36792512 36678172 36562092 36444424 36325636 36206516 
3391.509 36087504 35969572 35853644 35740088 35629548 35521912 35416280 
3394.884 35311464 35205920 35098460 34988516 34876476 34763964 34652956 
3398.259 34545312 34442320 34344012 34249316 34156504 34063676 33969144 
3401.634 33872056 33772020 33668460 33561488 33451036 33336640 33218372 
3405.010 33096746 32972898 32848048 32723200 32599140 32475934 32353438 
3408.385 32231376 32110236 31990308 31872514 31757642 31645722 31536184 
3411.760 31427704 31318900 31208658 31096632 30983030 30869142 30755884 
3415.135 30643940 30533266 30423190 30312716 30200316 30085246 29967116 
3418.510 29846004 29722618 29597922 29473222 29350368 29230454 29115146 
3421.886 29004968 28899564 28798186 28699414 28601304 28502614 28402246 
3425.261 28300100 28196600 28093018 27989882 27888152 27788070 27689386 
3428.636 27591504 27493820 27395486 27296188 27195430 27093248 26990210 
3432.011 26887022 26784596 26683710 26585632 26490392 26398624 26309972 
3435.387 26223590 26138952 26054998 25970708 25885380 25798592 25709746 
3438.762 25618916 25526278 25432394 25337372 25242124 25147072 25052884 
3442.137 24960122 24868920 24779038 24689420 24598312 24503750 24403640 
3445.512 24297242 24185022 24069328 23953910 23843250 23740700 23647866 
3448.888 23564146 23486846 23412214 23336582 23257642 23174068 23086284 
3452.263 22995300 22902136 22807212 22710736 22612120 22511816 22410138 
3455.638 22308764 22209226 22112708 22019768 21929740 21841616 21753262 
3459.013 21663186 21570064 21473306 21372950 21269348 21163472 21056648 
3462.389 20951000 20848400 20750726 20659294 20573996 20493820 20416436 
3465.764 20339172 20259422 20175242 20086118 19992014 19893942 19792910 
3469.139 19690516 19588040 19487252 19389260 19294996 19204978 19118824 
3472.514 19035106 18952480 18869454 18785440 18700750 18616700 18534740 
3475.890 18456428 18382310 18311834 18243718 18176342 18107764 18036264 
3479.265 17960698 17879828 17793694 17702124 17606430 17508758 17412278 
3482.640 17320306 17235832 17159924 17092162 17029786 16969076 16906098 
3486.015 16838100 16763741 16683474 16599296 16513448 16428135 16344799 
3489.391 16264092 16186083 16110701 16037878 15967645 15899897 15834291 
3492.766 15770411 15707333 15644262 15580618 15515986 15450369 15384041 
3496.141 15317414 15251311 15186523 15124078 15064557 15008406 14955246 
3499.516 14904081 14853127 14800569 14744143 14683269 14617812 14549076 
3502.892 14479527 14412319 14350430 14295570 14248968 14209868 14176216 
3506.267 14145168 14113744 14079073 14039509 13995090 13947221 13898398 
3509.642 13851325 13808123 13769884 13735821 13704530 13673891 13642502 
3513.017 13609475 13575560 13541342 13508117 13476945 13447313 13419187 
3516.393 13391712 13364103 13336290 13308273 13280122 13251972 13223620 
3519.768 13194143 13162515 13127713 13088373 13043847 12993828 12938457 
3523.143 12878518 12815072 12749452 12682888 12616264 12549548 12482400 
3526.518 12413932 12343362 12270315 12194860 12117749 12040073 11962752 
3529.894 11886192 11810601 11735975 11662111 11589144 11517347 11446616 
3533.269 11376542 11306106 11233845 11158639 11079842 10997865 10914341 
3536.644 10831410 10750737 10673373 10599452 10528259 10458843 10390591 
3540.019 10323776 10258734 10196214 10136109 10077743 10019893 9961101 
3543.395 9900047 9836154 9769118 9699146 9626576 9551682 9474902 9397495 
3547.252 9321725 9250301 9185793 9129618 9081436 9038367 8996655 8951566 
3551.109 8900055 8840942 8775649 8707560 8640935 8579221 8524240 8476023 
3554.967 8433082 8393995 8356906 8321137 8285844 8250586 8214725 8177178 
3558.824 8136730 8093012 8046464 7998232 7950715 7906037 7866257 7832012 
3562.682 7802763 7776282 7749128 7716816 7674725 7618948 7547163 7459951 
3566.539 7361063 7258020 7159649 7074030 7006713 6958833 6928430 6910116 
3570.396 6898232 6887190 6872816 6852451 6825085 6791091 6751985 6709516 
3574.254 6665572 6622271 6581194 6543250 6508471 6476318 6445344 6414002 
3578.111 6381016 6345644 6308225 6270035 6232891 6198775 6169804 6147119 
3581.969 6131426 6122453 6118622 6117143 6114018 6104542 6083608 6047051 
3585.826 5992457 5920638 5836506 5747623 5663356 5592767 5541082 5509470 
3589.684 5494940 5491920 5493330 5492759 5484504 5465513 5433705 5390325 
3593.541 5337994 5281074 5223993 5171414 5126384 5090612 5063860 5045154 
3597.398 5031847 5021255 5010763 4998060 4981067 4958779 4931030 4898591 
3601.256 4862971 4826718 4792579 4763534 4741659 4728193 4722700 4723236 
3605.113 4725949 4725748 4717441 4696607 4661239 4612879 4556322 4498634 
3608.971 4447481 4407982 4381205 4363801 4349979 4333045 4308113 4273546 
3612.828 4231553 4188227 4150223 4123563 4111220 4112524 4123529 4137779 
3616.686 4148718 4149253 4134702 4102757 4054895 3995802 3933139 3875300 
3620.543 3828231 3795373 3776288 3768166 3767431 3771308 3779330 3792967 
3624.400 3814994 3846951 3887168 3929495 3963232 3973933 3947416 3875467 
3628.258 3761148 3621566 3482963 3372454 3305073 3281436 3290050 3314923 
3632.115 3341200 3357895 3359865 3347377 3325473 3299965 3276595 3258267 
3635.973 3245448 3236101 3228390 3220245 3211199 3201686 3192440 3184162 
3639.830 3177386 3172013 3168441 3167006 3168675 3174883 3187166 3205658 
3643.688 3229759 3257466 3285609 3309647 3325941 3330449 3320498 3294857 
3647.545 3253326 3197447 3129292 3052673 2973065 2897474 2834403 2791682 
3651.402 2773541 2780311 2807123 2845409 2883999 2912084 2920857 2905279 
3655.260 2866354 2810991 2751500 2700052 2665680 2651544 2654711 2669247 
3659.117 2688483 2706654 2720357 2728093 2729860 2726859 2720324 2712122 
3662.975 2704020 2697919 2696318 2701119 2713956 2735628 2765272 2800953 
3666.832 2838705 2873025 2897474 2906247 2896006 2868556 2833202 2805989 
3670.689 2803454 2838705 2915920 3030184 3169009 3315390 3452102 3560928 
3674.547 3627045 3642682 3610239 3540951 3449530 3347911 3241442 3130994 
3678.404 3016738 2900776 2788648 2688783 2607875 2550012 2513918 2494856 
3682.262 2486891 2485758 2490623 2503620 2527449 2563077 2607708 2653778 
3686.119 2691884 2711188 2703887 2667946 2608175 2536114 2464298 2403522 
3689.977 2358878 2329762 2312307 2302946 2298949 2299649 2304912 2314072 
3693.834 2325631 2337191 2345752 2349850 2349417 2346585 2345685 2350183 
3697.691 2362809 2383232 2408753 2433975 2453335 2461532 2456334 2438640 
3701.549 2412651 2384797 2361343 2346951 2343720 2351182 2367040 2388529 
3705.406 2413184 2439040 2464764 2489690 2512818 2532981 2549145 2559411 
3709.264 2562144 2555678 2538647 2511019 2474261 2432276 2390628 2355680 
3713.121 2333526 2326830 2336025 2358145 2388629 2421847 2452602 2477660 
3716.979 2495322 2506186 2511918 2514518 2515384 2514718 2511818 2506220 
3720.836 2497855 2487824 2478093 2471029 2467597 2467630 2469196 2469363 
3724.693 2465397 2455867 2441672 2425779 2413117 2408819 2416349 2436774 
3728.551 2468330 2506686 2546512 2582109 2609609 2627576 2637076 2641777 
3732.408 2645777 2650844 2656178 2656578 2646677 2622342 2584476 2539313 
3736.266 2496755 2466797 2455534 2462532 2483758 2514185 2549979 2590775 
3740.123 2638710 2695885 2761670 2830467 2890303 2924627 2917521 2859917 
3743.980 2759903 2642577 2545412 2497255 2507119 2564410 2648311 2735895 
3747.838 2806956 2848043 2853713 2826298 2774108 2708221 2638677 2571876 
3751.695 2512418 2464698 2433076 2421547 2431443 2459999 2501087 2546379 
3755.553 2588175 2619942 2638543 2643477 2636043 2618075 2591242 2557178 
3759.410 2518817 2481126 2451269 2436474 2441606 2466664 2506353 2551512 
3763.268 2591375 2617909 2627076 2621175 2607475 2595309 2592242 2600675 
3767.125 2617175 2634276 2643944 2640010 2620542 2588842 2552945 2521350 
3770.982 2500921 2495189 2503087 2520783 2543080 2565143 2583742 2597509 
3774.840 2607275 2614842 2622342 2630509 2638776 2644310 2643910 2634409 
3778.697 2615275 2588275 2559078 2534214 2518917 2515718 2523449 2537913 
3782.555 2553645 2566043 2572443 2572776 2569377 2565377 2563644 2565877 
3786.412 2571910 2580476 2589909 2598542 2605342 2609475 2610609 2608809 
3790.270 2605009 2600742 2598309 2600442 2609009 2624609 2645277 2666980 
3794.127 2684783 2694518 2693751 2683949 2670413 2660845 2662379 2679081 
3797.984 2710021 2749299 2786580 2809290 2806956 2773541 2711955 2635110 
3801.842 2563810 2519084 2512485 2544513 2604442 2675814 2739163 2777510 
3805.699 2779911 2744331 2679682 2603809 2537247 2494522 2480826 2491956 
3809.557 2519517 2554511 2591109 2627476 2665379 2707121 2753501 2801020 
3813.414 2843007 2870423 2874826 2852379 2807089 2752534 2706287 2683749 
3817.271 2692351 2728460 2780211 2830701 2863286 2864653 2828533 2759236 
3821.129 2672580 2590942 2533848 2512118 2524849 2562844 2612942 2662246 
3824.986 2701286 2725325 2734628 2733361 2728426 2725826 2729260 2739296 
3828.844 2754068 2770440 2785246 2796484 2803854 2808456 2812558 2818795 
3832.701 2829767 2846643 2869456 2896040 2922658 2943541 2952548 2944475 
3836.559 2916721 2871124 2813826 2754934 2704620 2670247 2654078 2653911 
3840.416 2664246 2678448 2690917 2697852 2697785 2691250 2680415 2668880 
3844.273 2660212 2658212 2666046 2685383 2716456 2757769 2807856 2864320 
3848.131 2926228 2993316 3066020 3143410 3222448 3295325 3349748 3369816 
3851.988 3338929 3247651 3100525 2921891 2747799 2612342 2533947 2511818 
3855.846 2532848 2579576 2637843 2696652 2749866 2794817 2830668 2857649 
3859.703 2876394 2888301 2894939 2898541 2901443 2903912 2905213 2902477 
3863.561 2892871 2875927 2855614 2839038 2835303 2850845 2886433 2935101 
3867.418 2984174 3019040 3026213 2998988 2941306 2867822 2800152 2754835 
3871.275 2739930 2751300 2777243 2803921 2820729 2823530 2815393 2805522 
3875.133 2803654 2817527 2849211 2894972 2946610 2995151 3031385 3048636 
3878.990 3044231 3020041 2983107 2943674 2913051 2899942 2907815 2933800 
3882.848 2969362 3003692 3024278 3021976 2993816 2945209 2889402 2843074 
3886.705 2820696 2828333 2862752 2913852 2968595 3014335 3040995 3044231 
3890.563 3025346 2991781 2953315 2920123 2899275 2893571 2902110 2922425 
3894.420 2951047 2984909 3021242 3057411 3090714 3118279 3137869 3147782 
3898.277 3148382 3141307 3129926 3117812 3107767 3100291 3094051 3085742 
3902.135 3071727 3049536 3019173 2983374 2946977 2915653 2894005 2884265 
3905.992 2885533 2895673 2911050 2929030 2947311 2965125 2982707 2999922 
3909.850 3017071 3033887 3049536 3063918 3076932 3089045 3101159 3113340 
3913.707 3125287 3135700 3142508 3144110 3139338 3128491 3113006 3095319 
3917.564 3077700 3061983 3049103 3039693 3034021 3032753 3036924 3046500 
3921.422 3060748 3077933 3094452 3106699 3111738 3108367 3097822 3083339 
3925.279 3069424 3060515 3059013 3065453 3078334 3094752 3111638 3125988 
3929.137 3135533 3138670 3134632 3123352 3105498 3083072 3058879 3036490 
3932.994 3019607 3010865 3011533 3020841 3036924 3056510 3076966 3095786 
3936.852 3111872 3125121 3136234 3146146 3155458 3164002 3171412 3176285 
3940.709 3177820 3175317 3168708 3159697 3150218 3142942 3140239 3143376 
3944.566 3152054 3164736 3178388 3190237 3197413 3198615 3193842 3184996 
3948.424 3174049 3163769 3155592 3150452 3147915 3147214 3147581 3148783 
3952.281 3150919 3154357 3159730 3166739 3174716 3182593 3189202 3193274 
3956.139 3194309 3192373 3188234 3183261 3179022 3177186 3179055 3184896 
3959.996 3194309 3205992 3217942 3228056 3234799 3237236 3235767 3231828 
3963.854 3226888 3222314 3219043 3216740 3214937 3213035 3210298 3207060 
3967.711 3204089 3202053 3201519 3202754 3205257 3208529 3211733 3214937 
3971.568 3218543 3223016 3229091 3236969 3246049 3255463 3263943 3270853 
3975.426 3275927 3279466 3282638 3286377 3291352 3298096 3306108 3314255 
3979.283 3321868 3327577 3330716 3330782 3328145 3322936 3316292 3308880 
3983.141 3301735 3295658 3291385 3289315 3289448 3291452 3294723 3298496 
3986.998 3301668 3303671 3304005 3302536 3299565 3296193 3293054 3290884 
3990.855 3289849 3289716 3289782 3289282 3288146 3286377 3284908 3284908 
3994.713 3287412 3292887 3301134 3311083 3321166 3330115 3336993 3341300 
3998.570 3343303 3343938 3343938 3344005 3344672 
##END=
