
##TITLE=mdmaHCL00386_4
##JCAMP-DX=5.01  $$ Nicolet v. 1
##DATATYPE=INFRARED SPECTRUM
##ORIGIN=UniL
##OWNER=Nicolet
##LONGDATE=2011/08/23
##TIME=16:58:01
##SPECTROMETER/DATA SYSTEM=Nicolet iS5
##DATA PROCESSING=
Ratio against background
%Transmittance->Absorbance
Truncated
ElementMultiply or ElementDivide
##COMMENTS=
Number of sample scans: 32
Collection length: 51.23 sec
Sample gain: 2.0
Background collected on: Mar Aout 23 16:56:16 2011 (GMT+02:00);
Number of background scans: 32
Background gain: 2.0
Sample spacing:  1.000
Number of scan points: 12415
Resolution points: 8192
Number of FFT points: 65536
Apodization: N-B fort;
Phase correction: Mertz;
Laser frequency: 15798.0 cm-1
Number of rejected sample scans: 0
Number of rejected background scans: 0
Bench serial number: ASB1000141;
##RESOLUTION=4.000
##XUNITS=1/CM
##YUNITS=ABSORBANCE
##FIRSTX=649.893372
##LASTX=4000.122314
##FIRSTY=0.078639
##MAXX=4000.122314
##MINX=649.893372
##MAXY=0.210190
##MINY=0.000777
##XFACTOR=1.000000
##YFACTOR=1.000000E-009
##NPOINTS=6950
##DELTAX=0.482117
##ZPD=6100
##XYDATA=(X++(Y..Y))
649.893 78639352 78635896 78901056 79416640 80099288 80830216 81479680 
653.268 81953400 82207896 82250336 82129664 81918792 81702936 81558704 
656.643 81551872 81726336 82095992 82640448 83303936 84006960 84656192 
660.018 85171776 85511024 85670728 85685912 85608784 85496088 85389640 
663.393 85309552 85259872 85232408 85215680 85194832 85152792 85066528 
666.767 84906352 84649992 84298992 83891064 83481760 83108144 82768200 
670.142 82431928 82054536 81596488 81034984 80367568 79614600 78807408 
673.517 77980408 77155296 76338472 75524840 74707168 73884640 73064600 
676.892 72258472 71477784 70730592 70022560 69362440 68765736 68251352 
680.267 67836248 67523688 67297544 67121392 66947132 66731288 66444924 
683.642 66082320 65658772 65201944 64739868 64290880 63865544 63468836 
687.016 63107596 62794744 62546404 62375036 62283508 62261748 62289400 
690.391 62342944 62407360 62478060 62561780 62667304 62797808 62942640 
693.766 63079552 63178792 63215008 63177072 63071160 62917708 62741720 
697.141 62565840 62401812 62251884 62111752 61977248 61847332 61725208 
700.516 61615220 61520036 61438920 61368312 61306416 61254680 61219996 
703.890 61212672 61242432 61311832 61414796 61534392 61647488 61726200 
707.265 61744724 61683312 61529236 61279860 60942320 60536432 60092796 
710.640 59650144 59254428 58948284 58764940 58723596 58822796 59039108 
714.015 59326208 59624528 59864128 59975992 59910228 59640072 59173580 
717.390 58551080 57843076 57135960 56510752 56035204 55747292 55652184 
720.765 55724768 55916096 56165092 56397968 56540796 56525620 56293468 
724.139 55811232 55079388 54139484 53066688 51959304 50918544 50017448 
727.514 49293812 48743944 48332148 48005220 47711116 47415252 47101312 
730.889 46771508 46437748 46116184 45819784 45558180 45337404 45160384 
734.264 45025072 44924928 44847700 44778564 44703452 44615244 44515232 
737.639 44413960 44323940 44255252 44208552 44175572 44140468 44087472 
741.013 44007312 43900072 43774096 43641780 43515292 43402388 43306756 
744.388 43230364 43175092 43143696 43137364 43153504 43183696 43214000 
747.763 43230364 43223260 43191784 43143660 43091588 43047976 43017940 
751.138 42999208 42983664 42962844 42932672 42896096 42860256 42833264 
754.513 42819256 42816296 42818892 42821268 42821380 42821420 42825732 
757.888 42837252 42853856 42869908 42878796 42878500 42875464 42883732 
761.262 42920928 43000488 43127084 43295372 43494560 43714000 43950372 
764.637 44210164 44507524 44858868 45277020 45768832 46335068 46971416 
768.012 47670512 48420040 49204596 50005552 50811860 51633032 52515652 
771.387 53543940 54830228 56484148 58556616 60995808 63607872 66086836 
774.762 68036752 69067816 68922016 67523264 65022992 61736172 58087384 
778.136 54490184 51250548 48560084 46467804 44921292 43808692 43010220 
781.511 42429664 41999572 41685760 41471580 41347212 41303884 41333620 
784.886 41430532 41594336 41828536 42139896 42534820 43019952 43602984 
788.261 44294036 45106600 46057128 47159740 48427152 49868388 51492404 
791.636 53313004 55351840 57636556 60195928 63046412 66180096 69550272 
795.010 73071224 76614200 80008528 83068376 85592928 87385360 88292272 
798.385 88212160 87126512 85104656 82304560 78948456 75274424 71529704 
801.760 67923800 64603312 61659976 59119628 56957392 55114260 53521344 
805.135 52119056 50867920 49758724 48806560 48041044 47488324 47157372 
808.510 47028200 47052940 47157116 47253708 47265052 47128676 46808524 
811.885 46297580 45609848 44774120 43824340 42798784 41734200 40664764 
815.259 39623576 38638296 37729336 36910168 36185412 35553700 35010388 
818.634 34551088 34173636 33878900 33669068 33546380 33511412 33562488 
822.009 33697536 33915084 34216120 34604696 35086788 35667892 36350636 
825.384 37131680 37999500 38930524 39888060 40823364 41671756 42364672 
828.759 42836924 43036304 42938996 42555068 41930704 41136036 40257676 
832.133 39385700 38593680 37937808 37449004 37130848 36962728 36902452 
835.508 36896320 36880916 36796012 36597060 36258380 35781428 35191332 
838.883 34532504 33855116 33205178 32619142 32117050 31705208 31379872 
842.258 31131942 30950900 30825530 30745822 30701260 30681666 30678822 
845.633 30687890 30708658 30744610 30801340 30883408 30992248 31125606 
849.008 31278658 31446978 31627834 31822172 32033216 32265280 32521426 
852.382 32802950 33109118 33439834 33795512 34178624 34593208 35043036 
855.757 35530940 36058632 36627160 37238740 37898000 38612404 39392956 
859.132 40251608 41202632 42260248 43437980 44748296 46197916 47783868 
862.507 49486156 51263968 53054820 54770236 56312292 57579996 58478512 
865.882 58939592 58924752 58433516 57503240 56208272 54652376 52946444 
869.256 51206964 49536772 48011324 46684096 45581732 44709256 44057184 
872.631 43606024 43332016 43205984 43196872 43272456 43398432 43544444 
876.006 43686588 43809828 43909860 43991360 44065800 44146264 44246340 
879.381 44378032 44550700 44772940 45052016 45392988 45798432 46266952 
882.756 46792468 47364776 47970176 48594284 49221664 49838136 50432336 
886.131 50995636 51525792 52027948 52516440 53012176 53539668 54122216 
889.505 54774704 55500988 56292304 57129728 57987556 58838088 59656224 
892.880 60419512 61107928 61705004 62195332 62565804 62806344 62909284 
896.255 62869452 62683224 62347840 61863188 61233616 60471568 59598828 
899.630 58645540 57649800 56649164 55678360 54766100 53931900 53188084 
903.005 52541868 51996424 51551832 51206480 50955584 50791896 50706688 
906.379 50692280 50743108 50857636 51038004 51287720 51609892 52004756 
909.754 52470224 53002744 53599792 54261032 54988036 55782784 56644936 
913.129 57570384 58551192 59578460 60646640 61756988 62919580 64150668 
916.504 65471536 66903300 68461936 70159032 71997968 73973296 76066592 
919.879 78242896 80449064 82607544 84628608 86422872 87913240 89060240 
923.254 89873000 90417784 90805920 91186712 91730776 92591616 93899600 
926.628 95737040 98122336 101001944 104240648 107639936 110920032 113753720 
930.003 115814928 116781792 116408568 114566632 111260400 106645112 
932.896 100998976 94708208 88180048 81797568 75893640 70690904 66318416 
936.271 62821968 60181388 58340276 57226184 56769112 56898876 57539252 
939.646 58604088 59974700 61500376 63015192 64334756 65294428 65777496 
943.020 65723024 65143504 64114452 62765644 61246820 59702452 58259184 
946.395 56999928 55967316 55169448 54589848 54199880 53967280 53865616 
949.770 53872816 53970808 54145676 54383368 54671164 54999204 55359632 
953.145 55748308 56163280 56602996 57065184 57546740 58043524 58553204 
956.520 59075548 59613160 60169704 60748184 61348660 61967692 62599712 
959.894 63238696 63881280 64527116 65178924 65839760 66511116 67191160 
963.269 67875608 68559192 69238032 69911776 70582288 71253240 71927032 
966.644 72604152 73282984 73962184 74642632 75328648 76027272 76747064 
970.019 77494872 78274640 79087288 79932728 80811824 81727896 82686464 
973.394 83693192 84752120 85863736 87025248 88232664 89483184 90776800 
976.768 92115408 93501008 94932400 96403736 97904760 99421576 100940440 
980.143 102449960 103939200 105398328 106815168 108175184 109463280 
983.036 110667256 111780848 112805256 113747696 114617496 115420920 
985.929 116158936 116827192 117419904 117932960 118367512 118730224 
988.821 119032360 119286560 119504960 119701120 119890512 120090992 
991.714 120324960 120613256 120972072 121409760 121924568 122507112 
994.607 123143936 123823768 124538528 125284088 126057368 126852840 
997.500 127661376 128471776 129273328 130060464 130833792 131599176 
1000.392 132363064 133129136 133895056 134653680 135397472 136121104 
1003.285 136824912 137514736 138198880 138885440 139580240 140288608 
1006.178 141017024 141777024 142584640 143457328 144410448 145452224 
1009.070 146581984 147791840 149070128 150407328 151796224 153232512 
1011.963 154711008 156223184 157755824 159295808 160833136 162366416 
1014.856 163902928 165455536 167034464 168640896 170262368 171876080 
1017.748 173452784 174964128 176390864 177722544 178957680 180102224 
1020.641 181168592 182178016 183160384 184157616 185218496 186387920 
1023.534 187702256 189178656 190812928 192582928 194455888 196396960 
1026.427 198369584 200337696 202261504 204090096 205767584 207235360 
1029.320 208439584 209343616 209928384 210190400 210135984 209775728 
1032.213 209122144 208190880 207006704 205604272 204022160 202297888 
1035.106 200455696 198499136 196411504 194162784 191721408 189062048 
1037.999 186174832 183064912 179751120 176262384 172636864 168926064 
1040.892 165190000 161498000 157923344 154526944 151354304 148428528 
1043.785 145749472 143302240 141064752 139017744 137148224 135450000 
1046.678 133921696 132562024 131368328 130336088 129460064 128734944 
1049.571 128155216 127711472 127388936 127165168 127011152 126896768 
1052.464 126796304 126690552 126570048 126431136 126270904 126082656 
1055.357 125854032 125567064 125203448 124745720 124179752 123495032 
1058.250 122682256 121732880 120641504 119408592 118044432 116570432 
1061.144 115019368 113428432 111833600 110267464 108753688 107309184 
1064.037 105947344 104677760 103507696 102440184 101471808 100591272 
1066.930 99780608 99020136 98290248 97577184 96873152 96175512 95483456 
1070.305 94796408 94111728 93426440 92738776 92049504 91362224 90681704 
1073.680 90012520 89357104 88716704 88092464 87487560 86907456 86359248 
1077.055 85847824 85374072 84932296 84512592 84103504 83696648 83290096 
1080.431 82889008 82503160 82142592 81815448 81526168 81276232 81069480 
1083.806 80913888 80823712 80820680 80929936 81176880 81586648 82179784 
1087.181 82971184 83968800 85168992 86552152 88075904 89678984 91276480 
1090.556 92769752 94066088 95082920 95765416 96094776 96087200 95791152 
1093.932 95276024 94630096 93943984 93300272 92771960 92408840 92235936 
1097.307 92253432 92438440 92749896 93131488 93523320 93862784 94087736 
1100.682 94146376 93996016 93609640 92981448 92127776 91086488 89907680 
1104.057 88651272 87374856 86125096 84940072 83845888 82858048 81985976 
1107.433 81232760 80595600 80065696 79628216 79263224 78946744 78654920 
1110.808 78364440 78052976 77700992 77289168 76799024 76216032 75530312 
1114.183 74739632 73850504 72876184 71835432 70747360 69631400 68504880 
1117.558 67383008 66280708 65211572 64187424 63217544 62307260 61457128 
1120.934 60664356 59923308 59226780 58565528 57928672 57301492 56664752 
1124.309 55997736 55279504 54494276 53635932 52710212 51735176 50735996 
1127.684 49743232 48786576 47888848 47067156 46330128 45678636 45107780 
1131.059 44607424 44164164 43761124 43381372 43009084 42631928 42244032 
1134.435 41846160 41446136 41056308 40692376 40370748 40105680 39908800 
1137.810 39787788 39745632 39780416 39885448 40050340 40261312 40503380 
1141.185 40763380 41029468 41293320 41549816 41795304 42027056 42243192 
1144.560 42442632 42625388 42794100 42953296 43108312 43264476 43425788 
1147.936 43594156 43770172 43953704 44144908 44344896 44555288 44777572 
1151.311 45012908 45261684 45524032 45800824 46093928 46405744 46738740 
1154.686 47093816 47469508 47861548 48264012 48669848 49071800 49462912 
1158.061 49835496 50180504 50488120 50746944 50945744 51075980 51130808 
1161.437 51106168 50999548 50808248 50528732 50157744 49692444 49132420 
1164.812 48480496 47742704 46927076 46042392 45097888 44102256 43064876 
1168.187 41996544 40909164 39815352 38728560 37659768 36618540 35612140 
1171.562 34645672 33723604 32850120 32029648 31266588 30565118 29928068 
1174.938 29357318 28853352 28415936 28044416 27738654 27498478 27323956 
1178.313 27215642 27173842 27199522 27294918 27463286 27709412 28038020 
1181.688 28453754 28959666 29557414 30247560 31030788 31908390 32882538 
1185.063 33954924 35125836 36391568 37743032 39166120 40639108 42134124 
1188.438 43618440 45050436 46383916 47571680 48565528 49327964 49835832 
1191.814 50084488 50088316 49878236 49496816 48987820 48393336 47748692 
1195.189 47076312 46389336 45690932 44977704 44243332 43482072 42692096 
1198.564 41877064 41046260 40212168 39389800 38592160 37829092 37106488 
1201.939 36426952 35790676 35197224 34646176 34137112 33668388 33236616 
1205.315 32835040 32454114 32083194 31711124 31329154 30931864 30517804 
1208.690 30088866 29649996 29208056 28771702 28349934 27953378 27592246 
1212.065 27276076 27013624 26811522 26674092 26604618 26604758 26676136 
1215.440 26820334 27038590 27331296 27697686 28135756 28642924 29216776 
1218.816 29856226 30561598 31334210 32175280 33085372 34063712 35109492 
1222.191 36222220 37403460 38656300 39985304 41394740 42887096 44461636 
1225.566 46114528 47837576 49617556 51435556 53265096 55068820 56803668 
1228.941 58418732 59860364 61081076 62039204 62704280 63061392 63110664 
1232.317 62871368 62380584 61697708 60898856 60067872 59297876 58676220 
1235.692 58277788 58168596 58398040 59002140 60007456 61429492 63272960 
1239.067 65528908 68172296 71157288 74413184 77853624 81371080 84841776 
1242.442 88141696 91138320 93704312 95733776 97141680 97880640 97944200 
1245.818 97366224 96214968 94579952 92573328 90312944 87914536 85492664 
1249.193 83137832 80911328 78836008 76891680 75019592 73131488 71136792 
1252.568 68954864 66535904 63872948 61001264 57992968 54936668 51931816 
1255.943 49068056 46410796 44002800 41858124 39967176 38303168 36829916 
1259.319 35509972 34306688 33191156 32142416 31146358 30195696 29287554 
1262.694 28420960 27595882 26812298 26070128 25369688 24712042 24099308 
1266.069 23533574 23016890 22550238 22132548 21761830 21435606 21151262 
1269.444 20907468 20703288 20538040 20410254 20317470 20256192 20222136 
1272.820 20212000 20223074 20253728 20303270 20370734 20455162 20555304 
1276.195 20669996 20797892 20937230 21085136 21236116 21383044 21516512 
1279.570 21627278 21708604 21756538 21771376 21755770 21713236 21646156 
1282.945 21555022 21438772 21295934 21127224 20936014 20728692 20514452 
1286.321 20303756 20106072 19930296 19783790 19671862 19598440 19565682 
1289.696 19572894 19617678 19694746 19798356 19922352 20061896 20214118 
1293.071 20377056 20549086 20728170 20911362 21095916 21280134 21464776 
1296.446 21652946 21849908 22061774 22293938 22550342 22833718 23145830 
1299.822 23488174 23862116 24267844 24702956 25161820 25635718 26113228 
1303.197 26581510 27029986 27449062 27832014 28175350 28477600 28740408 
1306.572 28968414 29169856 29354870 29534858 29720348 29918164 30130630 
1309.947 30356348 30590750 30828694 31065060 31296250 31519118 31729910 
1313.323 31924080 32096248 32240938 32353974 32432906 32477326 32487716 
1316.698 32464684 32409024 32321494 32204576 32063428 31905606 31741318 
1320.073 31580262 31430482 31296500 31179394 31077766 30989792 30914858 
1323.448 30854804 30813648 30797428 30813898 30871882 30980966 31151412 
1326.823 31392906 31711124 32105382 32565460 33071608 33594816 34102380 
1330.199 34564400 34956120 35263812 35485168 35627392 35704692 35735232 
1333.574 35739084 35734080 35736600 35759912 35812948 35900896 36025440 
1336.949 36185592 36379784 36607040 36868036 37164920 37499968 37873740 
1340.324 38284092 38725880 39190596 39667028 40141152 40595740 41008020 
1343.700 41353556 41606480 41743392 41748792 41616288 41349216 40957916 
1347.075 40457152 39863616 39192988 38461812 37687700 36888924 36086928 
1350.450 35304496 34562460 33880724 33273924 32751106 32316138 31968586 
1353.825 31705350 31521328 31410180 31363842 31372178 31424180 31508394 
1357.201 31614542 31734686 31862780 31994264 32124362 32248218 32361080 
1360.576 32460616 32549210 32636214 32737062 32872602 33063598 33325582 
1363.951 33667852 34091916 34594216 35167224 35801256 36481868 37186940 
1367.326 37886796 38542588 39108396 39540788 39800680 39858896 39700608 
1370.702 39323596 38739720 37971980 37057044 36043616 34986468 33948008 
1374.077 32985662 32142594 31443522 30891198 30473516 30170656 29965874 
1377.452 29850582 29827052 29907622 30112554 30468612 31002994 31741566 
1380.827 32700800 33878040 35239516 36709324 38178548 39503116 40528336 
1384.203 41119540 41165180 40602508 39428256 37713936 35605524 33297572 
1387.578 31010432 28924530 27149504 25723246 24622998 23794842 23173892 
1390.953 22704068 22339668 22046228 21800432 21585700 21391676 21214650 
1394.328 21056162 20921758 20817706 20748084 20712670 20707596 20725946 
1397.704 20759832 20802342 20848020 20894082 20940672 20989250 21041624 
1401.079 21098352 21158080 21218094 21275158 21327844 21377056 21427216 
1404.454 21485214 21557666 21649184 21760508 21889458 22031900 22185198 
1407.829 22348702 22524274 22715276 22923934 23150968 23394766 23652588 
1411.205 23922260 24203590 24498072 24807734 25134012 25476348 25832068 
1414.580 26198638 26574394 26959572 27356278 27766734 28192356 28633190 
1417.955 29088256 29558408 30045688 30554702 31088232 31643226 32211070 
1421.330 32779154 33335708 33872740 34391388 34903048 35427712 35988072 
1424.706 36602432 37281376 38025540 38831268 39694036 40611932 41582452 
1428.081 42597204 43638924 44676824 45671096 46583756 47385024 48062992 
1431.456 48623892 49090684 49495476 49871472 50251732 50666472 51146128 
1434.831 51727488 52453844 53369576 54511184 55886892 57473284 59223624 
1438.207 61083024 62995576 64900540 66731640 68400800 69802304 70836088 
1441.582 71410840 71467752 70988496 69989512 68515160 66625088 64393668 
1444.957 61897424 59208020 56399364 53542068 50712124 48001444 45505380 
1448.332 43309724 41471212 40002052 38875984 38044096 37458176 37082704 
1451.708 36899456 36902736 37088480 37445464 37956616 38598604 39350836 
1455.083 40201300 41141428 42161912 43242144 44347352 45433564 46461608 
1458.458 47409672 48269784 49043164 49734312 50350288 50898840 51385536 
1461.833 51813048 52174948 52454744 52630392 52679800 52594896 52389132 
1465.208 52097876 51765336 51426080 51098344 50781652 50464788 50132608 
1468.584 49770316 49362856 48889356 48319852 47615900 46739108 45671644 
1471.959 44437008 43110540 41795884 40590104 39549680 38681976 37964352 
1475.334 37367924 36877704 36500028 36257336 36174072 36267964 36542380 
1478.709 36990112 37600544 38368420 39297260 40398424 41685104 43165176 
1482.085 44837704 46693984 48722372 50914636 53271200 55797964 58497392 
1485.460 61359764 64344676 67367992 70308680 72999568 75244912 76853200 
1488.835 77647232 77508576 76411480 74440832 71782848 68670648 65340608 
1492.210 61969952 58658964 55453360 52353656 49346932 46435684 43646176 
1495.586 41035916 38682484 36657080 35002344 33720344 32783906 32148984 
1498.961 31771046 31615432 31654492 31866166 32231018 32727488 33331882 
1502.336 34019560 34758188 35508680 36222040 36824216 37216680 37277368 
1505.711 36877884 35939336 34484360 32647860 30612472 28529186 26478418 
1509.087 24481244 22533660 20633894 18790628 17030856 15389911 13897474 
1512.462 12573355 11421102 10430196 9582200 8855821 8229684 7682145 7193907 
1516.319 6751513 6348569 5988526 5679705 5429008 5235362 5087192 4962868 
1520.177 4839048 4698817 4542393 4388033 4263306 4187490 4161095 4168756 
1524.034 4186688 4194449 4180699 4147112 4105065 4069945 4051650 4050246 
1527.892 4058674 4068641 4076735 4086502 4105801 4141024 4192141 4250424 
1531.749 4299512 4321331 4305436 4255644 4191304 4137144 4112825 4124031 
1535.606 4164072 4219542 4278063 4331405 4375582 4409254 4430844 4435129 
1539.464 4415446 4368420 4300885 4228575 4170529 4138883 4133397 4143667 
1543.321 4153970 4152063 4134267 4107741 4086067 4082688 4103527 4144737 
1547.179 4194717 4240085 4271504 4286729 4291548 4295898 4308682 4332676 
1551.036 4363031 4390142 4404903 4402359 4384150 4357910 4334283 4323038 
1554.894 4329297 4352489 4387698 4426961 4459499 4469675 4439782 4354464 
1558.751 4214624 4045330 3889140 3781970 3737285 3749016 3799384 3868012 
1562.608 3935547 3988545 4021418 4036701 4043724 4054159 4076935 4113862 
1566.466 4160058 4206627 4245372 4271136 4283818 4287499 4289206 4296735 
1570.323 4315575 4350079 4402995 4475735 4568108 4676745 4794890 4911359 
1574.181 5013679 5091483 5141405 5171347 5199581 5247938 5330782 5451152 
1578.038 5603977 5781804 5980766 6201700 6449581 6730111 7046516 7398203 
1581.896 7779251 8181162 8594834 9009781 9414424 9795383 10135736 10418318 
1585.753 10629671 10762692 10820200 10815750 10773426 10722989 10697212 
1589.128 10729374 10846766 11070563 11413006 11874376 12440288 13078437 
1592.503 13741805 14368136 14888890 15243590 15383835 15285632 14953016 
1595.879 14417663 13732469 12958120 12158467 11385862 10677889 10059973 
1599.254 9544196 9133070 8822005 8602303 8463488 8395921 8393320 8453082 
1603.111 8574760 8758237 9001628 9298909 9641042 10014875 10404335 10790885 
1606.969 11151295 11458999 11687979 11812371 11813494 11682975 11424027 
1610.344 11052889 10597007 10093309 9579287 9087864 8642456 8252748 7917105 
1614.201 7625422 7364298 7120576 6885945 6661164 6455937 6285398 6163049 
1618.059 6095133 6078803 6104240 6157269 6222505 6286407 6337642 6370626 
1621.916 6385622 6389623 6392986 6405898 6434683 6480286 6538810 6604743 
1625.774 6672906 6739634 6802164 6859048 6909207 6953210 6992840 7032137 
1629.631 7076085 7128727 7192695 7267487 7349909 7433761 7510955 7572821 
1633.489 7609473 7611698 7573057 7493492 7382362 7258659 7145737 7060593 
1637.346 7010753 6993143 6998227 7013649 7027691 7032844 7026176 7010451 
1641.203 6991762 6977250 6970718 6972267 6977048 6977452 6965432 6933279 
1645.061 6876216 6793582 6690202 6576317 6466968 6379300 6326917 6317806 
1648.918 6352805 6426142 6525591 6632398 6723044 6766287 6729976 6595391 
1652.776 6377283 6130888 5921881 5791374 5739598 5744064 5777338 5818809 
1656.633 5856656 5885270 5903878 5913450 5915364 5909655 5895447 5871064 
1660.490 5834592 5784591 5720562 5643753 5557896 5470109 5389051 5323805 
1664.348 5280940 5262359 5265076 5281879 5303143 5317600 5315218 5288754 
1668.205 5235630 5158941 5066341 4969303 4878787 4803936 4749967 4717809 
1672.063 4703607 4699019 4692420 4669879 4619041 4534759 4423547 4304131 
1675.920 4199200 4126439 4090549 4084294 4093592 4104028 4107574 4103259 
1679.778 4097506 4099613 4116270 4146510 4180097 4198330 4180197 4110350 
1683.635 3989114 3838527 3695177 3591196 3537677 3526654 3540584 3562398 
1687.492 3579168 3583344 3572353 3546663 3509551 3466029 3423113 3388817 
1691.350 3370150 3371051 3390686 3422178 3452503 3466263 3449631 3396664 
1695.207 3315791 3230159 3168842 3149951 3173815 3223383 3273791 3296226 
1699.065 3267381 3178888 3045599 2905213 2797551 2746665 2751133 2794016 
1702.922 2853113 2908815 2947277 2960087 2946677 2913619 2872224 2834003 
1706.780 2806922 2793850 2793450 2801853 2815460 2832168 2851746 2875360 
1710.637 2904345 2939371 2979471 3022443 3065954 3108234 3149217 3189970 
1714.494 3231661 3273490 3311417 3338128 3345407 3328145 3288046 3235801 
1718.352 3187400 3156526 3150285 3167674 3201919 3243412 3283406 3316459 
1722.209 3339631 3353488 3360867 3365408 3370283 3378164 3390586 3408419 
1726.067 3431763 3459082 3487406 3512758 3530829 3539548 3539581 3535807 
1729.924 3534571 3540884 3555282 3572019 3578300 3557220 3494320 3384509 
1733.781 3240841 3092182 2972731 2904212 2888068 2910750 2952214 2994017 
1737.639 3021375 3026313 3007696 2971864 2929630 2891837 2866254 2855481 
1741.496 2857182 2866921 2880897 2896407 2912851 2931065 2952581 2978770 
1745.354 3010165 3046133 3085308 3125888 3165371 3201786 3232429 3254795 
1749.211 3265946 3263342 3245982 3216006 3179389 3145145 3122351 3117078 
1753.069 3130327 3157561 3189803 3215872 3225853 3213269 3178421 3128024 
1756.926 3074062 3028849 2999488 2986443 2983974 2982773 2973065 2947477 
1760.783 2903578 2844141 2777076 2712022 2658745 2623542 2608308 2611042 
1764.641 2626876 2649011 2669313 2681382 2681182 2669013 2650578 2633976 
1768.498 2627342 2634243 2651811 2671380 2682215 2674281 2643777 2595575 
1772.356 2542913 2501321 2481992 2487624 2513685 2551212 2592009 2631143 
1776.213 2667346 2701686 2735595 2768940 2799552 2823831 2839105 2844808 
1780.071 2843574 2840773 2841707 2849478 2863753 2880963 2896273 2905379 
1783.928 2906380 2900376 2890670 2881864 2877995 2881730 2894605 2916621 
1787.785 2946944 2983707 3023210 3059947 3087010 3097221 3084741 3048202 
1791.643 2991814 2925227 2859717 2805722 2768406 2747299 2738329 2736028 
1795.500 2735928 2735095 2732127 2726892 2718890 2707387 2691184 2669380 
1799.358 2641677 2609575 2575809 2543513 2516351 2496988 2486724 2485625 
1803.215 2492923 2507086 2526182 2547945 2570676 2592542 2612842 2631443 
1807.073 2648411 2664046 2677715 2688383 2694751 2695551 2690917 2682249 
1810.930 2672514 2665546 2664146 2670447 2684216 2704020 2727526 2752334 
1814.787 2776843 2800319 2822663 2844642 2866488 2888201 2909582 2929497 
1818.645 2946843 2961489 2973732 2984942 2997253 3012166 3030651 3051472 
1822.502 3071660 3087077 3093818 3089746 3076432 3058913 3044598 3039426 
1826.360 3046300 3063184 3083873 3100025 3104530 3093684 3069124 3038525 
1830.217 3011099 2996052 2997887 3015536 3044665 3079535 3115609 3150285 
1834.074 3182960 3214403 3245448 3276328 3306609 3336258 3366076 3398200 
1837.932 3436171 3483765 3543724 3617122 3702930 3797847 3897264 3995936 
1841.789 4088241 4169291 4235936 4288436 4330668 4370261 4416283 4475165 
1845.647 4548587 4633508 4723135 4809363 4885020 4946647 4993602 5028025 
1849.504 5053065 5070866 5081527 5083337 5073984 5052261 5018808 4976341 
1853.362 4928550 4878184 4826417 4772478 4714359 4650622 4581569 4508544 
1857.219 4434760 4362629 4293322 4226434 4160961 4096201 4032655 3972160 
1861.076 3917425 3869951 3830404 3797345 3768668 3743167 3720742 3702663 
1864.934 3690399 3684183 3681911 3679839 3672554 3656382 3630353 3597744 
1868.791 3564202 3536542 3519706 3515096 3520942 3534003 3550705 3568611 
1872.649 3586385 3603190 3617957 3629284 3635498 3635131 3628181 3614850 
1876.506 3597042 3576429 3554347 3531430 3508282 3485068 3462656 3441815 
1880.364 3423046 3405714 3388048 3367579 3342068 3310783 3274893 3237937 
1884.221 3204189 3177253 3159196 3149417 3145312 3142875 3138871 3130594 
1888.078 3117144 3099491 3079668 3061115 3047268 3041629 3046533 3062717 
1891.936 3088578 3120782 3154657 3185297 3209363 3225486 3235400 3241743 
1895.793 3247952 3256231 3267147 3280201 3294356 3309213 3325774 3345240 
1899.651 3368280 3394827 3423247 3450967 3476617 3499831 3522211 3546229 
1903.508 3574391 3607165 3643484 3680374 3714727 3743769 3766796 3783809 
1907.365 3795340 3802694 3805668 3804498 3799719 3792198 3783407 3774684 
1911.223 3766161 3756903 3745573 3731303 3715295 3700290 3690465 3689062 
1915.080 3696581 3709914 3722981 3729364 3724017 3706840 3682011 3656582 
1918.938 3636367 3624339 3618525 3614416 3606731 3592432 3571418 3546630 
1922.795 3522211 3500432 3481460 3463792 3444921 3424549 3404512 3388917 
1926.653 3381871 3385477 3399069 3419239 3442016 3464393 3485301 3506077 
1930.510 3527489 3549269 3569112 3583211 3588222 3583812 3572654 3559959 
1934.367 3551073 3549436 3554881 3564135 3573222 3579269 3582543 3585716 
1938.225 3592164 3604125 3621098 3639909 3656415 3667709 3673824 3677366 
1942.082 3682379 3691702 3706005 3723182 3739892 3753461 3763554 3771375 
1945.940 3779296 3788321 3797947 3806437 3812220 3815061 3817869 3825490 
1949.797 3841469 3867878 3902915 3941364 3977276 4006168 4026702 4040347 
1953.655 4051183 4061818 4073123 4083792 4090381 4090047 4082220 4068340 
1957.512 4051450 4034561 4018809 4003895 3988244 3970354 3950760 3932303 
1961.369 3919230 3915285 3923844 3945745 3979249 4021518 4068741 4115367 
1965.227 4157014 4188193 4205891 4209438 4201776 4187892 4174610 4167786 
1969.084 4167886 4173038 4178357 4178892 4172603 4162768 4154505 4155241 
1972.942 4169124 4195788 4230516 4267121 4300918 4331873 4365374 4407882 
1976.799 4465424 4538308 4620649 4701430 4770904 4820855 4848564 4856337 
1980.656 4848161 4828561 4801122 4768224 4731375 4693190 4656952 4625136 
1984.514 4599819 4581502 4568544 4559135 4551936 4547281 4545842 4548621 
1988.371 4554983 4561981 4565430 4562081 4550998 4535697 4522036 4517516 
1992.229 4526891 4550529 4584884 4623528 4660535 4692788 4720523 4746282 
1996.086 4772143 4799380 4826149 4848731 4864077 4871013 4870946 4867797 
1999.944 4865384 4866791 4871449 4877313 4879960 4876978 4866523 4849167 
2003.801 4827288 4803534 4781624 4763936 4753149 4750938 4758040 4773550 
2007.658 4794153 4815394 4832180 4840824 4840589 4833587 4822899 4812781 
2011.516 4805410 4801055 4798073 4795594 4793182 4792646 4797302 4808392 
2015.373 4825914 4847357 4868098 4883847 4893866 4899597 4905360 4915883 
2019.231 4933543 4958310 4988038 5019679 5050820 5081728 5113208 5145663 
2023.088 5178422 5207997 5229795 5240426 5238883 5227548 5211116 5194484 
2026.946 5180165 5169100 5159008 5147808 5135403 5123601 5116091 5116795 
2030.803 5127490 5147373 5173459 5202263 5231606 5261219 5292511 5324778 
2034.660 5358389 5390258 5416728 5436490 5449743 5459574 5469841 5482994 
2038.518 5498195 5512222 5520477 5518765 5506685 5486820 5463499 5441657 
2042.375 5423371 5408777 5394854 5379389 5361710 5343193 5327931 5318908 
2046.233 5317399 5322094 5329205 5334103 5333700 5325885 5311160 5290196 
2050.090 5262627 5228621 5187911 5142142 5094836 5050820 5016193 4994876 
2053.948 4988172 4993468 5006003 5020148 5032350 5040864 5047065 5052429 
2057.805 5057558 5062150 5064899 5063759 5059032 5052931 5048238 5048373 
2061.662 5055144 5068050 5085013 5103217 5120785 5136275 5149921 5161489 
2065.520 5170140 5174633 5173392 5166217 5155051 5142545 5132553 5127423 
2069.377 5127088 5128261 5127021 5119209 5102982 5079146 5050786 5020886 
2073.235 4992295 4965381 4939777 4914575 4890515 4869539 4854762 4848731 
2077.092 4851780 4861464 4873057 4881703 4883311 4877246 4864848 4850038 
2080.949 4836468 4826618 4821391 4819950 4821090 4823804 4827288 4830906 
2084.807 4834559 4837574 4838847 4838311 4836033 4832883 4829935 4827858 
2088.664 4826015 4822798 4816299 4805242 4789396 4770301 4750134 4731476 
2092.522 4715498 4701832 4689473 4677114 4664052 4650756 4638632 4628853 
2096.379 4622290 4618807 4617501 4617936 4620113 4625270 4634379 4648311 
2100.237 4666664 4687396 4708263 4727322 4742999 4755963 4766750 4776565 
2104.094 4785678 4794522 4802630 4810904 4820889 4834793 4854562 4881300 
2107.951 4913838 4949864 4986463 5021221 5052965 5081963 5108346 5132218 
2111.809 5152168 5166049 5172185 5170743 5163937 5156493 5153777 5160114 
2115.666 5177248 5204175 5237575 5273393 5308845 5342321 5373552 5402940 
2119.524 5430149 5453467 5471049 5481585 5484840 5483196 5480109 5479404 
2123.381 5483699 5493363 5506718 5521014 5532860 5539874 5541485 5537458 
2127.239 5528665 5515645 5499470 5480411 5459909 5439342 5420218 5404483 
2131.096 5393680 5388245 5388480 5394687 5406328 5422633 5441925 5461184 
2134.953 5477022 5485377 5484571 5474438 5458131 5439912 5424244 5414313 
2138.811 5410958 5412602 5417802 5425250 5435181 5448837 5466888 5488095 
2142.668 5509437 5525075 5529470 5519907 5496685 5464170 5429276 5399048 
2146.526 5378248 5367681 5365635 5367648 5370768 5370902 5367044 5358020 
2150.383 5343931 5324073 5299521 5271716 5242371 5212726 5183317 5152033 
2154.240 5115857 5072877 5023735 4975972 4942558 4938771 4979927 5073414 
2158.098 5214771 5387407 5567964 5731910 5861022 5947611 5992423 6001830 
2161.955 5986141 5953287 5911267 5866294 5823308 5785565 5756185 5735401 
2165.813 5721670 5712672 5705756 5698907 5692025 5685412 5679436 5673494 
2169.670 5665438 5653387 5636167 5615154 5592599 5573032 5558701 5549506 
2173.528 5543297 5535310 5521819 5501752 5476485 5449273 5423740 5401363 
2177.385 5380731 5359496 5335747 5309684 5284931 5267457 5261822 5270241 
2181.242 5289828 5314614 5336786 5351814 5357617 5357718 5356678 5358557 
2185.100 5365266 5375799 5387205 5397136 5405187 5412266 5420889 5433336 
2188.957 5449642 5468767 5488800 5508866 5529001 5550680 5574878 5600520 
2192.815 5624721 5642746 5650097 5645767 5632373 5615624 5601963 5597365 
2196.672 5602702 5615624 5630091 5639792 5640094 5630024 5610623 5586020 
2200.530 5560111 5535545 5514336 5497189 5485276 5479639 5481451 5490779 
2204.387 5506148 5524437 5541787 5554976 5561923 5562863 5559574 5554842 
2208.244 5551284 5551183 5556419 5567796 5585853 5610489 5640664 5673730 
2212.102 5707032 5736912 5760482 5776767 5785733 5788889 5787277 5781636 
2215.959 5771596 5756923 5737987 5715727 5693570 5675173 5663356 5659865 
2219.817 5664196 5674266 5687829 5702432 5717003 5731037 5744198 5754573 
2223.674 5760180 5758065 5746280 5724859 5696289 5664531 5634589 5610455 
2227.531 5594109 5585450 5583638 5586087 5591626 5598741 5606495 5613476 
2231.389 5618443 5619820 5616564 5609045 5597634 5583872 5569475 5554439 
2235.246 5539404 5524504 5510879 5501383 5499638 5509437 5533498 5571387 
2239.104 5620290 5674569 5729123 5778312 5819010 5850141 5872004 5885304 
2242.961 5891417 5891652 5887789 5881811 5876438 5874254 5876303 5882684 
2246.819 5891652 5900754 5907874 5911737 5912812 5912341 5911939 5912308 
2250.676 5914088 5916507 5919496 5923426 5929506 5938474 5951070 5966153 
2254.533 5981472 5994237 6001964 6003006 5998201 5988426 5975794 5961719 
2258.391 5946973 5931823 5916876 5903407 5893398 5888898 5890947 5899511 
2262.248 5912913 5928330 5943109 5956076 5966959 5976164 5984864 5992625 
2266.106 5998605 6001830 6001427 5997496 5992020 5987418 5985604 5987284 
2269.963 5991281 5995245 5996522 5993431 5986242 5976466 5966825 5959704 
2273.821 5955740 5955437 5957285 5960275 5963399 5966019 5968203 5969647 
2277.678 5969916 5968471 5965112 5959905 5954128 5949626 5948114 5950936 
2281.535 5958293 5969412 5982714 5996858 6010430 6022592 6032604 6040063 
2285.393 6044162 6045102 6042784 6038349 6033242 6029244 6027363 6028203 
2289.250 6030924 6034586 6037207 6037980 6036401 6032873 6028438 6023902 
2293.108 6020442 6018729 6019199 6022592 6028976 6038584 6050478 6063549 
2296.965 6076182 6087069 6095402 6101417 6106290 6111028 6116640 6122823 
2300.823 6128502 6131997 6131761 6126755 6117345 6104576 6090160 6075510 
2304.680 6061700 6049638 6039525 6031932 6027295 6025918 6027531 6031260 
2308.537 6035225 6037308 6035729 6029748 6019636 6006601 5992255 5977608 
2312.395 5963298 5949257 5935081 5921108 5908278 5898168 5892223 5891182 
2316.252 5894675 5900754 5907337 5912442 5915297 5916272 5917011 5919395 
2320.110 5925105 5934007 5945024 5955471 5962626 5963566 5956714 5941463 
2323.967 5918891 5890711 5859779 5828984 5800978 5777539 5759677 5746615 
2327.824 5737080 5729056 5720998 5711665 5701560 5691824 5684270 5680242 
2331.682 5681249 5686889 5697028 5710557 5726706 5744701 5764176 5784591 
2335.539 5805544 5826297 5846682 5866227 5885001 5902836 5919295 5933603 
2339.397 5945091 5952851 5957386 5959233 5959938 5960779 5962357 5963768 
2343.254 5963264 5959166 5951407 5942303 5937567 5944285 5969916 6018964 
2347.112 6092143 6185701 6293567 6407412 6519099 6621901 6710559 6781970 
2350.969 6835924 6873759 6898804 6914627 6924492 6930854 6934827 6937083 
2354.826 6937857 6938295 6939305 6942604 6949641 6961560 6978967 7002605 
2358.684 7032238 7067598 7107878 7151564 7196265 7239624 7278707 7311627 
2362.541 7337676 7357929 7374881 7391867 7412055 7437132 7467705 7502729 
2366.399 7540083 7577372 7611664 7640833 7662922 7677322 7683325 7682246 
2370.256 7675905 7666732 7657964 7652231 7651692 7657458 7669667 7688519 
2374.114 7714016 7746767 7787887 7838389 7899120 7969951 8050211 8138790 
2377.971 8234580 8336843 8445346 8560093 8680888 8807094 8937495 9070169 
2381.828 9203256 9334759 9463388 9588026 9707549 9820293 9924522 10017791 
2385.686 10097955 10163616 10214226 10250118 10272373 10282585 10281838 
2389.061 10271288 10251780 10224165 10189191 10148387 10102567 10053191 
2392.436 10001007 9946761 9890861 9834222 9777692 9722254 9669635 9620851 
2396.294 9577322 9540402 9511139 9490955 9480693 9481167 9492107 9512494 
2400.151 9540876 9575155 9614516 9658489 9708328 9765594 9832087 9908420 
2404.009 9994159 10087510 10185901 10287064 10389980 10494755 10602949 
2407.384 10717080 10838816 10969455 11109380 11257885 11413516 11574818 
2410.759 11739856 11906795 12073357 12237221 12395828 12546718 12687561 
2414.134 12816608 12932278 13033194 13118220 13186628 13238035 13272913 
2417.510 13292797 13299868 13296965 13286203 13269736 13248181 13221810 
2420.885 13189805 13151449 13106268 13054569 12997277 12936614 12875173 
2424.260 12816301 12763033 12718199 12684150 12662145 12653003 12656892 
2427.635 12674119 12704483 12748326 12806132 12878006 12963445 13061671 
2431.010 13170986 13289756 13416932 13551665 13694237 13845270 14005629 
2434.386 14175668 14355430 14544381 14741915 14947427 15160721 15382324 
2437.761 15612765 15853157 16104238 16366817 16641675 16929350 17230592 
2441.136 17545224 17873236 18213796 18566002 18928806 19301924 19685176 
2444.511 20078690 20482740 20897002 21320536 21751414 22187674 22627270 
2447.887 23068078 23509056 23948484 24384994 24817102 25242968 25660602 
2451.262 26068860 26466162 26851032 27221464 27574240 27905606 28211132 
2454.637 28486692 28728654 28934376 29101860 29228684 29312508 29349980 
2458.012 29338102 29273908 29155822 28983858 28759488 28485558 28164992 
2461.388 27801458 27397886 26956858 26481270 25974260 25439420 24881200 
2464.763 24304636 23715432 23119898 22524656 21936434 21361846 20806756 
2468.138 20276538 19775398 19306324 18871322 18471362 18106624 17776744 
2471.513 17480712 17217044 16983408 16777344 16595269 16433915 16289547 
2474.889 16159499 16041316 15932720 15832745 15739763 15652506 15569936 
2478.264 15490782 15413942 15338866 15265245 15192528 15120922 15050665 
2481.639 14981482 14913614 14846990 14781611 14717578 14654960 14594304 
2485.014 14535747 14480315 14428453 14380946 14338238 14300330 14266876 
2488.390 14237429 14211204 14187856 14167213 14149480 14134795 14123226 
2491.765 14114360 14107240 14101559 14096151 14090812 14085130 14079414 
2495.140 14073117 14066306 14058161 14047620 14034067 14017025 13996528 
2498.515 13972849 13946570 13917590 13886355 13852454 13816503 13778947 
2501.891 13740916 13703469 13667599 13633920 13601988 13571560 13542025 
2505.266 13513278 13485387 13459309 13435180 13413378 13393250 13373704 
2508.641 13353544 13331882 13308137 13282376 13254944 13225772 13194279 
2512.016 13160022 13121909 13079427 13032750 12982734 12930708 12878347 
2515.392 12826471 12775624 12725705 12676303 12627112 12578471 12531030 
2518.767 12486049 12444619 12407864 12376054 12349566 12327885 12310501 
2522.142 12296594 12285653 12276825 12270008 12264930 12261930 12261283 
2525.517 12263396 12267997 12274950 12283402 12292401 12301230 12309785 
2528.893 12318546 12328158 12339782 12354203 12371588 12392079 12415330 
2532.268 12441175 12469306 12499348 12530518 12561827 12591500 12618003 
2535.643 12640176 12658120 12673062 12687834 12705370 12728401 12758972 
2539.018 12797088 12841180 12888894 12937535 12984611 13029234 13071471 
2542.394 13112005 13152303 13193527 13236190 13279849 13323340 13364854 
2545.769 13402920 13436616 13465974 13492325 13517619 13543734 13572689 
2549.144 13604893 13639664 13675669 13710890 13743618 13772722 13798272 
2552.519 13820505 13840482 13859158 13876674 13893471 13909550 13925152 
2555.895 13940445 13955500 13970384 13984346 13996664 14006075 14011276 
2559.270 14011515 14006314 13995090 13978289 13955603 13927239 13893437 
2562.645 13854917 13812808 13769029 13725322 13683500 13644896 13610295 
2566.020 13579287 13551631 13526745 13503844 13482618 13462932 13444510 
2569.396 13427765 13413309 13401998 13394958 13393523 13398068 13408730 
2572.771 13424723 13444545 13466692 13489898 13513859 13538846 13565954 
2576.146 13596073 13629578 13666335 13705418 13745259 13784659 13822557 
2579.521 13858577 13893163 13926896 13961386 13997896 14037969 14082563 
2582.896 14132536 14187205 14245304 14305398 14365260 14423178 14478774 
2586.272 14532389 14585018 14638305 14692934 14748873 14805335 14861014 
2589.647 14914711 14966048 15015266 15063151 15110630 15158010 15205122 
2593.022 15251346 15296133 15339347 15381398 15423486 15466678 15511935 
2596.397 15559633 15609296 15660785 15713722 15768144 15824461 15883261 
2599.773 15944304 16007658 16072398 16138213 16204931 16273139 16344041 
2603.148 16419085 16499612 16586112 16678136 16774623 16874232 16975380 
2606.523 17077308 17179400 17281516 17383792 17486336 17588764 17691080 
2609.898 17792348 17891810 17988014 18079232 18163800 18240194 18307100 
2613.274 18363712 18410136 18446850 18474334 18493560 18505038 18509428 
2616.649 18507182 18499230 18486160 18468976 18448440 18425210 18399664 
2620.024 18372182 18343044 18312802 18282458 18253154 18225716 18201114 
2623.399 18179590 18160830 18144590 18129978 18116608 18104518 18094016 
2626.775 18086002 18081444 18081476 18087038 18098818 18116884 18141136 
2630.150 18171298 18206748 18246656 18290476 18337756 18387842 18440456 
2633.525 18494908 18550612 18607086 18663912 18720848 18778588 18837514 
2636.900 18898764 18962932 19030434 19100680 19172980 19245846 19317964 
2640.276 19388498 19456688 19522568 19586688 19649676 19712186 19774982 
2643.651 19838656 19903482 19969428 20036426 20104058 20171806 20239460 
2647.026 20307332 20375736 20445644 20517682 20592722 20670970 20752360 
2650.401 20836268 20921966 21009246 21097728 21187686 21279646 21374342 
2653.777 21472192 21573720 21679208 21789214 21903814 22023290 22147820 
2657.152 22276988 22410522 22547586 22687486 22829492 22973220 23118186 
2660.527 23264040 23410710 23557780 23704866 23851546 23997854 24143478 
2663.902 24288554 24433186 24577484 24721546 24865448 25009326 25153464 
2667.278 25298524 25445358 25594632 25747504 25904230 26065132 26230384 
2670.653 26399362 26571294 26745408 26920404 27095260 27269090 27441084 
2674.028 27610854 27778178 27942920 28104788 28263606 28419014 28570622 
2677.403 28718636 28863336 29005606 29146610 29287944 29430920 29576780 
2680.779 29726912 29882702 30045724 30217470 30399698 30593736 30800594 
2684.154 31020504 31253520 31499166 31756892 32026046 32305610 32594674 
2687.529 32891866 33195592 33504396 33817036 34133636 34454156 34779652 
2690.904 35111176 35449284 35794020 36144864 36500860 36861076 37225272 
2694.280 37594004 37967896 38348408 38736200 39132180 39536028 39947232 
2697.655 40364496 40786780 41212356 41640028 42068484 42496820 42924548 
2701.030 43351568 43778124 44204004 44628720 45050800 45468068 45877892 
2704.405 46277120 46662512 47031852 47382512 47712448 48019616 48301896 
2707.781 48557044 48783276 48979180 49143740 49276444 49377444 49447092 
2711.156 49486156 49495664 49476724 49430648 49358552 49261080 49138136 
2714.531 48989228 48813308 48609776 48377704 48117624 47830212 47516968 
2717.906 47179684 46820588 46442136 46046776 45637744 45218256 44791824 
2721.281 44361956 43932368 43506136 43086648 42677364 42281540 41902384 
2724.657 41542484 41204012 40887612 40593632 40321772 40071704 39843640 
2728.032 39638276 39457100 39301320 39171556 39068008 38989816 38935416 
2731.407 38903088 38891312 38898632 38923996 38966440 39024832 39098136 
2734.782 39185228 39284780 39396004 39518172 39650292 39791092 39939056 
2738.158 40091980 40247608 40403584 40557616 40707952 40853064 40991780 
2741.533 41122780 41245292 41359168 41464540 41562540 41654724 41742956 
2744.908 41829196 41914796 42000956 42088488 42177868 42269448 42363504 
2748.283 42459880 42558176 42657516 42756512 42854292 42950228 43044828 
2751.659 43139196 43235192 43334908 43440544 43554008 43676624 43810192 
2755.034 43955868 44114832 44287760 44474560 44674368 44885284 45104796 
2758.409 45330088 45558068 45786136 46011480 46231124 46442360 46641672 
2761.784 46825756 46991716 47136840 47258848 47355980 47426896 47470544 
2765.160 47486180 47473760 47433772 47367804 47278132 47167940 47040416 
2768.535 46899168 46747668 46589436 46427756 46266028 46107268 45953948 
2771.910 45808224 45671204 45543644 45425724 45317400 45218256 45127852 
2775.285 45045252 44968732 44896784 44826536 44755276 44679984 44597436 
2778.661 44504548 44398728 44277012 44137244 43977868 43798320 43598952 
2782.036 43381264 43147756 42901360 42645564 42383848 42119448 41855788 
2785.411 41595648 41340984 41093348 40853248 40620008 40392896 40171024 
2788.786 39953804 39741128 39533892 39332808 39138888 38952704 38774168 
2792.162 38603096 38438896 38281420 38130292 37985580 37846880 37713432 
2795.537 37583964 37457024 37330916 37204412 37076356 36945952 36812528 
2798.912 36675108 36533004 36385260 36231408 36070872 35904136 35731384 
2802.287 35553092 35369084 35179044 34982876 34780336 34572112 34359688 
2805.663 34144820 33930056 33717228 33508156 33304118 33105866 32914418 
2809.038 32731130 32556888 32393280 32241404 32101494 31973756 31857752 
2812.413 31752686 31658340 31574380 31500806 31437464 31383894 31339590 
2815.788 31303302 31274744 31253554 31240096 31235718 31242338 31262246 
2819.164 31297282 31349204 31418800 31506576 31611760 31733438 31870198 
2822.539 32020658 32183308 32357010 32540708 32732990 32932576 33136976 
2825.914 33343114 33547528 33746196 33935112 34111020 34271152 34413052 
2829.289 34534800 34634548 34710524 34761416 34786940 34786868 34762820 
2832.665 34716944 34652024 34571144 34476936 34372380 34259932 34142096 
2836.040 34020960 33898532 33775920 33653424 33530168 33405088 33276822 
2839.415 33144772 33008934 32870386 32730882 32592102 32455652 32322206 
2842.790 32192014 32064606 31939734 31816858 31696406 31578514 31463898 
2846.166 31353944 31249282 31151376 31060788 30977942 30903116 30835204 
2849.541 30773350 30716658 30664242 30616314 30573970 30539130 30513254 
2852.916 30498076 30493952 30500456 30516418 30540268 30570734 30607140 
2856.291 30649096 30696388 30748416 30803866 30860602 30915926 30967376 
2859.667 31012354 31049080 31076308 31093284 31099052 31093604 31076308 
2863.042 31047336 31008048 30959938 30906070 30849398 30793266 30740698 
2866.417 30693614 30653078 30619796 30593772 30575498 30565330 30564086 
2869.792 30572832 30592136 30622214 30662500 30711432 30767124 30827556 
2873.167 30891270 30957732 31026838 31099728 31177756 31262706 31355366 
2876.543 31455952 31564332 31679474 31800314 31925790 32055046 32187730 
2879.918 32323632 32462578 32604638 32749676 32897334 33046864 33197700 
2883.293 33348840 33499208 33648268 33794904 33938692 34079156 34215472 
2886.668 34346884 34472488 34591380 34702732 34806720 34903732 34994836 
2890.044 35081936 35166396 35250120 35334288 35420088 35508536 35600956 
2893.419 35698900 35804204 35918640 36044088 36181452 36331184 36492464 
2896.794 36662920 36838892 37014940 37184408 37339544 37472336 37575940 
2900.169 37644844 37676284 37669812 37627680 37553904 37453300 37331384 
2903.545 37193544 37044056 36887624 36727896 36567860 36409800 36255680 
2906.920 36106300 35962444 35824748 35693752 35569920 35454100 35346368 
2910.295 35246308 35153392 35066096 34982984 34902548 34823196 34743580 
2913.670 34662504 34578356 34489636 34395480 34294960 34187976 34075072 
2917.046 33957212 33835020 33709816 33582536 33454220 33326692 33202496 
2920.421 33083946 32973826 32874138 32786012 32709230 32642786 32585066 
2923.796 32534208 32488324 32445512 32403346 32359366 32310606 32254286 
2927.171 32188910 32113622 32029826 31940054 31847376 31755324 31667072 
2930.547 31585250 31512632 31452108 31406618 31379406 31373282 31390126 
2933.922 31430482 31494216 31579904 31685856 31811010 31954144 32114122 
2937.297 32289796 32478966 32678864 32886538 33098784 33313312 33528450 
2940.672 33742868 33955280 34164284 34367072 34560236 34739344 34899136 
2944.048 35034200 35138588 35206316 35231936 35211240 35142184 35025220 
2947.423 34864632 34667780 34443576 34202676 33955100 33708636 33469356 
2950.798 33240728 33023984 32819104 32625284 32441084 32265242 32096572 
2954.173 31933886 31775930 31622310 31471912 31324242 31178824 31035128 
2957.549 30892942 30752650 30614854 30480552 30351052 30227346 30109996 
2960.924 29999140 29893850 29793304 29696718 29603632 29514076 29428722 
2964.299 29348488 29274368 29207172 29148062 29097466 29056334 29025088 
2967.674 29003232 28990056 28983078 28979288 28975074 28966784 28951624 
2971.050 28927720 28894606 28852608 28803106 28748090 28689468 28629864 
2974.425 28572002 28517934 28469674 28427540 28390292 28354036 28313470 
2977.800 28260742 28187442 28085560 27948290 27770938 27552066 27293612 
2981.175 27000788 26681244 26344578 26001454 25661516 25333788 25025120 
2984.551 24740312 24482402 24253234 24053954 23885466 23748714 23644228 
2987.926 23571528 23528186 23508566 23503040 23498632 23479534 23428440 
2991.301 23329940 23172776 22951844 22669368 22335620 21966614 21580718 
2994.676 21196870 20830950 20492950 20188258 19916802 19675502 19459358 
2998.052 19263650 19084198 18918112 18763020 18617288 18478830 18345982 
3001.427 18217008 18090632 17966086 17843372 17722554 17604394 17489438 
3004.802 17378206 17271068 17168404 17070244 16976792 16888114 16804344 
3008.177 16725447 16651522 16582325 16517786 16457111 16399505 16344214 
3011.552 16290339 16237089 16184742 16133294 16083365 16035540 15990298 
3014.928 15947742 15908213 15872093 15839892 15812743 15791371 15776528 
3018.303 15768075 15764741 15764639 15765155 15764020 15759245 15749728 
3021.678 15735023 15715063 15690017 15660269 15625577 15586662 15544111 
3025.053 15499332 15454043 15410475 15370172 15334507 15304234 15278870 
3028.429 15257592 15238957 15221250 15202376 15180759 15155059 15124318 
3031.804 15088845 15048778 15005114 14958709 14910287 14860327 14809277 
3035.179 14757889 14707295 14658970 14614865 14576247 14544005 14518172 
3038.554 14497478 14480795 14466989 14455239 14445648 14438557 14434242 
3041.930 14432700 14433317 14435132 14437324 14439413 14441401 14443832 
3045.305 14447361 14452157 14457911 14464180 14469867 14474663 14478362 
3048.680 14481138 14483330 14485008 14485830 14485146 14481960 14476170 
3052.055 14467605 14457089 14445031 14431946 14417800 14401975 14383514 
3055.431 14362006 14337554 14310740 14282969 14255782 14230137 14206684 
3058.806 14185801 14167350 14151329 14137842 14126785 14118057 14111075 
3062.181 14104913 14098581 14091325 14082563 14072706 14062781 14053746 
3065.556 14046901 14043171 14042726 14045566 14051350 14059256 14068428 
3068.932 14078319 14088313 14098170 14107789 14117578 14127881 14139313 
3072.307 14152082 14165946 14180426 14194805 14208430 14221440 14234005 
3075.682 14247016 14261225 14277216 14294577 14312931 14331115 14348170 
3079.057 14363718 14378035 14391838 14406017 14421088 14437016 14453355 
3082.433 14468839 14482371 14492888 14500048 14503782 14504912 14504604 
3085.808 14504124 14505153 14509092 14516870 14528929 14545135 14564699 
3089.183 14586355 14608936 14631245 14652870 14673947 14695025 14716721 
3092.558 14739790 14764059 14789359 14815448 14841676 14867802 14894136 
3095.934 14920917 14948833 14978292 15009504 15042089 15075671 15109291 
3099.309 15142091 15173519 15203303 15231270 15258004 15283915 15309417 
3102.684 15335125 15361384 15388469 15416792 15446936 15479348 15514406 
3106.059 15552284 15592364 15633820 15675316 15715681 15753953 15789961 
3109.435 15823843 15856868 15890032 15923956 15959153 15995558 16032618 
3112.810 16069923 16107194 16144093 16180752 16217176 16253153 16288584 
3116.185 16323537 16358079 16392624 16427860 16464164 16501643 16540021 
3119.560 16578643 16616577 16653072 16687777 16720869 16753031 16785162 
3122.936 16818018 16852152 16887736 16924356 16961840 16999810 17037886 
3126.311 17076104 17114220 17152238 17190224 17228040 17265412 17302168 
3129.686 17337928 17372308 17405278 17437216 17468606 17500754 17535148 
3133.061 17572618 17613986 17659018 17707230 17757312 17808020 17858354 
3136.437 17907900 17956346 18003728 18049872 18094776 18138096 18179900 
3139.812 18220880 18261792 18303678 18347884 18394650 18443772 18494666 
3143.187 18546048 18596884 18646998 18695700 18743542 18791010 18838482 
3146.562 18886272 18935070 18984808 19035902 19088456 19142576 19197324 
3149.938 19252564 19307224 19360990 19414206 19467638 19522290 19579062 
3153.313 19638062 19698594 19759620 19819684 19878298 19935742 19993402 
3156.688 20052700 20115372 20182254 20252686 20325596 20399282 20472422 
3160.063 20544466 20616070 20687616 20760494 20835260 20911780 20989354 
3163.438 21067604 21145452 21222618 21298890 21374448 21449008 21522536 
3166.814 21594788 21664962 21733056 21798900 21862522 21924270 21984496 
3170.189 22043228 22100542 22156186 22209678 22260978 22309844 22356342 
3173.564 22400926 22444050 22486340 22528252 22570062 22611702 22652926 
3176.939 22693106 22732000 22769290 22805256 22840248 22875034 22910486 
3180.315 22946916 22984960 23024646 23065736 23108228 23151806 23196612 
3183.690 23242716 23290258 23339098 23389554 23441484 23494470 23548160 
3187.065 23601894 23654968 23706894 23757848 23808246 23858966 23911898 
3190.440 23967846 24027620 24091324 24158190 24226782 24295842 24364282 
3193.816 24431540 24497862 24563632 24628784 24693840 24758236 24821696 
3197.191 24884184 24946188 25007958 25070540 25133908 25198196 25262702 
3200.566 25326412 25388762 25449328 25508742 25567956 25628126 25690448 
3203.941 25754852 25821166 25888616 25955724 26021998 26086910 26150494 
3207.317 26213314 26276496 26340706 26406932 26475636 26546848 26619978 
3210.692 26694210 26768104 26840740 26911380 26979810 27046734 27112998 
3214.067 27179662 27247640 27317394 27389062 27462650 27537946 27615124 
3217.442 27694012 27774576 27856144 27937478 28017802 28096058 28171744 
3220.818 28245396 28317608 28389302 28461466 28534244 28607532 28680938 
3224.193 28754214 28827076 28900058 28973798 29048682 29125172 29203026 
3227.568 29281776 29361074 29440600 29520104 29599516 29679156 29758846 
3230.943 29838692 29919050 30000134 30082546 30166430 30252000 30338438 
3234.319 30424648 30509558 30592206 30672776 30752186 30832146 30914714 
3237.694 31001322 31092822 31188614 31287774 31389344 31492364 31596616 
3241.069 31701784 31808194 31915200 32021980 32127752 32231946 32334272 
3244.444 32435800 32537640 32641250 32747708 32857232 32969500 33083622 
3247.820 33198812 33313956 33428668 33543016 33656748 33770084 33883236 
3251.195 33996484 34110516 34226264 34343980 34464236 34586932 34711528 
3254.570 34837344 34963772 35090380 35216664 35342520 35467368 35590596 
3257.945 35711164 35828888 35943328 36054924 36164780 36273724 36382592 
3261.321 36491056 36598392 36703160 36804416 36901512 36995096 37086456 
3264.696 37177192 37268308 37360268 37452508 37543896 37632992 37718780 
3268.071 37800756 37879344 37955096 38029228 38102616 38175508 38248272 
3271.446 38320356 38391296 38460508 38527236 38591000 38651480 38708708 
3274.822 38762940 38814420 38864316 38912728 38960604 39008376 39056480 
3278.197 39104772 39153248 39201620 39249420 39296496 39342784 39388892 
3281.572 39435512 39483484 39533380 39585100 39638168 39691024 39742508 
3284.947 39791456 39837284 39880616 39922532 39963796 40005432 40047252 
3288.323 40088748 40129008 40167644 40204392 40239868 40275020 40310868 
3291.698 40347876 40386564 40426528 40467592 40509708 40553072 40597924 
3295.073 40644348 40691760 40739432 40785908 40830240 40871920 40911568 
3298.448 40949796 40988648 41029284 41072552 41118592 41167476 41218480 
3301.823 41271272 41325676 41381728 41439576 41499212 41560244 41622088 
3305.199 41684304 41746600 41809056 41872284 41937052 42004424 42075568 
3308.574 42151176 42231616 42316712 42405260 42495940 42587448 42678936 
3311.949 42770188 42862448 42957360 43057160 43163312 43276632 43396860 
3315.324 43522728 43652588 43784944 43918696 44053404 44188892 44325044 
3318.700 44461416 44597180 44732172 44866144 45000008 45134944 45272420 
3322.075 45412848 45556340 45701460 45846300 45988828 46127608 46261788 
3325.450 46391660 46517844 46641044 46761656 46879828 46994672 47105376 
3328.825 47211156 47311088 47404536 47490872 47569796 47641116 47705052 
3332.201 47761932 47811648 47854112 47888516 47914048 47929844 47935948 
3335.576 47932916 47922444 47906496 47886664 47863360 47835908 47802320 
3338.951 47760528 47708268 47644368 47568612 47482076 47385616 47280420 
3342.326 47167420 47047140 46920212 46787524 46649344 46506668 46359328 
3345.702 46207240 46049388 45885148 45713976 45535988 45351972 45162700 
3349.077 44969248 44772208 44572064 44369552 44165376 43961112 43758336 
3352.452 43558588 43362004 43168252 42975172 42780644 42582660 42380380 
3355.827 42174360 41966576 41759480 41556048 41358000 41166568 40981440 
3359.203 40801848 40626668 40454860 40284760 40116108 39948212 39781072 
3362.578 39614828 39450064 39287536 39127900 38971768 38819276 38670496 
3365.953 38525640 38384456 38247188 38114120 37984780 37859064 37736308 
3369.328 37615828 37497188 37380060 37264660 37151348 37040052 36930548 
3372.704 36822196 36713868 36604772 36494444 36383280 36272036 36161432 
3376.079 36052116 35944232 35836912 35729548 35621420 35511952 35401472 
3379.454 35289972 35177644 35064048 34948616 34830236 34708872 34584240 
3382.829 34457240 34328988 34200632 34073028 33946504 33820692 33695100 
3386.205 33569292 33443664 33318322 33194266 33072290 32952950 32836792 
3389.580 32723914 32613926 32506250 32400026 32294578 32188732 32081980 
3392.955 31973328 31862672 31749658 31634248 31516090 31395398 31272144 
3396.330 31147248 31022176 30899026 30780534 30668936 30565224 30469038 
3399.706 30378592 30290688 30201878 30109464 30011744 29908190 29799796 
3403.081 29688062 29574724 29461060 29347816 29235346 29123402 29011556 
3406.456 28899104 28785474 28669858 28552186 28432704 28312126 28191828 
3409.831 28072976 27956806 27843426 27732826 27624200 27516940 27410098 
3413.207 27303456 27196558 27088876 26980022 26869186 26755630 26639144 
3416.582 26520010 26399502 26279206 26160524 26044514 25931594 25821344 
3419.957 25712982 25606298 25500874 25396666 25293854 25191944 25090726 
3423.332 24989602 24888466 24787422 24687596 24589932 24495408 24403990 
3426.708 24314730 24225590 24134510 24039596 23939870 23835828 23728486 
3430.083 23619456 23510802 23403926 23300396 23201610 23108856 23022586 
3433.458 22942970 22868886 22798274 22728160 22655998 22579066 22497158 
3436.833 22410486 22320970 22230288 22139938 22049956 21960168 21869072 
3440.208 21775800 21679730 21581346 21481488 21381652 21282952 21186226 
3443.584 21091604 20999022 20907920 20817810 20727822 20637890 20547940 
3446.959 20458634 20370734 20285772 20204676 20127900 20054574 19983340 
3450.334 19911494 19836540 19756428 19670580 19579652 19485694 19391028 
3453.709 19297420 19206018 19116606 19028078 18939360 18849452 18757900 
3457.085 18665364 18573090 18481908 18392576 18305200 18219118 18133330 
3460.460 18046900 17959180 17870092 17779956 17689628 17599874 17511724 
3463.835 17425386 17340892 17258036 17175954 17094128 17012076 16929454 
3467.210 16845952 16761951 16677035 16591413 16505016 16417777 16329661 
3470.586 16240874 16151555 16062563 15973935 15886355 15799962 15715405 
3473.961 15632411 15551254 15471828 15393722 15316213 15238889 15161132 
3477.336 15082738 15003673 14924758 14846064 14768687 14692455 14617641 
3480.711 14544141 14471991 14401359 14332759 14266465 14202679 14141127 
3484.087 14080886 14020276 13957554 13891077 13819820 13743310 13661992 
3487.462 13577167 13490719 13404732 13321632 13243399 13171668 13106951 
3490.837 13048832 12996082 12946479 12897632 12847425 12794187 12736862 
3494.212 12675621 12610601 12542455 12472341 12401658 12331806 12264998 
3497.588 12202971 12146643 12096319 12050736 12007269 11962990 11915139 
3500.963 11861811 11802361 11737813 11669905 11601089 11533985 11470804 
3504.338 11413074 11361917 11317499 11279207 11245508 11214056 11182266 
3507.713 11147453 11108292 11064989 11019649 10974995 10934286 10899595 
3511.089 10871158 10847615 10826858 10806578 10785042 10762081 10737899 
3514.464 10713344 10689300 10665800 10641997 10617278 10590828 10562547 
3517.839 10532502 10501238 10468821 10435389 10400433 10363409 10323945 
3521.214 10282144 10238583 10193737 10147912 10101041 10052513 10001753 
3524.590 9947541 9889674 9827850 9762375 9694131 9624273 9553307 9482895 
3528.447 9413443 9345592 9279072 9213815 9149042 9084616 9020268 8956064 
3532.304 8891905 8827449 8761584 8692686 8619067 8539446 8454332 8365519 
3536.162 8275948 8189704 8109486 8036237 7969479 7906814 7845643 7784446 
3540.019 7722482 7661202 7602290 7547534 7497369 7450783 7405449 7358333 
3543.877 7306708 7248990 7184879 7115120 7041667 6966913 6893654 6823840 
3547.734 6759557 6701608 6649960 6603162 6559396 6516308 6471744 6424561 
3551.592 6374862 6324194 6274237 6226740 6182878 6142414 6104811 6069193 
3555.449 6034519 6000284 5966053 5930883 5893835 5853566 5808701 5758736 
3559.306 5704279 5646539 5588605 5533632 5484874 5444710 5415185 5396096 
3563.164 5385897 5380966 5375833 5363119 5335344 5285971 5212022 5115488 
3567.021 5003724 4888840 4782528 4694296 4628251 4583143 4553877 4533520 
3570.879 4516077 4496893 4473860 4446644 4416384 4384150 4351552 4319825 
3574.736 4289909 4262738 4238981 4219274 4203416 4190200 4178658 4166481 
3578.594 4151461 4132561 4108611 4079745 4047035 4012690 3979818 3951529 
3582.451 3931066 3920367 3919197 3924078 3929662 3927923 3910504 3870552 
3586.308 3805200 3716765 3613146 3506044 3408219 3329547 3275193 3245281 
3590.166 3235834 3240841 3253126 3266413 3274926 3274759 3263642 3241409 
3594.023 3209864 3172313 3133164 3096120 3063985 3038292 3017905 3001357 
3597.881 2986210 2970162 2951814 2930297 2905980 2880296 2855181 2832902 
3601.738 2815260 2804021 2799252 2800086 2804888 2811091 2815026 2813859 
3605.595 2804221 2783479 2750300 2704920 2649544 2588775 2528382 2474661 
3609.453 2432143 2402189 2382732 2369272 2355813 2337657 2312507 2281928 
3613.310 2250952 2226340 2214184 2217914 2236464 2264974 2294852 2317303 
3617.168 2322633 2304712 2261078 2195168 2113852 2028091 1948570 1883207 
3621.025 1836055 1807307 1793799 1792035 1799189 1813995 1837552 1871660 
3624.883 1916853 1971403 2028557 2077994 2105695 2097504 2044270 1947472 
3628.740 1822579 1694861 1591590 1529573 1510820 1525549 1558835 1595681 
3632.597 1624049 1638051 1637120 1625047 1607287 1589163 1573300 1559932 
3636.455 1547396 1533430 1517669 1500080 1482492 1466833 1454399 1445523 
3640.312 1439771 1436414 1435150 1436680 1442664 1454299 1472817 1498285 
3644.170 1528243 1559965 1588497 1609150 1617630 1610746 1586868 1546265 
3648.027 1491170 1423947 1348459 1269828 1193934 1127888 1079555 1053315 
3651.885 1051554 1071915 1108056 1150511 1188917 1213604 1217359 1198088 
3655.742 1160013 1112906 1068627 1037306 1024054 1028305 1045144 1068295 
3659.599 1092377 1113670 1130313 1142438 1150611 1155594 1158319 1159182 
3663.457 1159780 1162372 1170212 1186359 1213505 1251850 1299438 1350819 
3667.314 1397886 1431427 1442431 1426008 1384091 1327687 1276308 1250355 
3671.172 1266870 1331874 1441301 1582611 1738439 1890129 2017905 2104296 
3675.029 2138525 2119912 2058185 1967775 1862476 1749251 1630601 1507561 
3678.886 1383293 1264112 1159182 1077064 1022127 993632 985828 990577 
3682.744 1001038 1013725 1028471 1047336 1072015 1101611 1131509 1154764 
3686.601 1163269 1150711 1115630 1062183 999743 938673 887639 850090 825390 
3690.941 810618 802518 799331 800128 803879 809224 813705 814502 809921 
3695.281 800427 788510 778917 777423 787381 810153 843118 880966 916227 
3699.620 941894 952952 947772 928081 899492 869478 845442 832627 833822 
3703.960 848928 875687 910881 951126 993433 1035379 1074872 1110481 1140179 
3708.299 1162139 1173535 1171973 1155461 1123337 1076864 1020400 960224 
3712.157 904141 859684 831930 822967 831797 855169 888403 926852 965704 
3716.496 1001636 1032324 1057002 1076167 1091413 1104269 1115995 1127323 
3720.354 1137854 1147156 1154730 1160710 1165926 1172206 1180578 1191575 
3724.211 1204168 1215797 1223739 1225466 1220781 1212608 1205962 1207358 
3728.069 1221645 1250288 1291528 1339186 1385919 1424014 1448116 1456926 
3731.926 1453402 1442963 1430530 1416900 1398684 1369366 1323399 1260423 
3735.783 1186658 1114268 1057301 1024286 1018009 1034217 1066202 1108288 
3739.641 1157720 1214468 1280229 1353977 1430729 1498883 1541576 1542341 
3743.498 1490405 1391437 1270293 1164531 1105664 1105166 1154797 1234471 
3747.356 1321638 1395293 1441267 1452570 1430197 1380568 1313396 1237595 
3751.213 1159647 1084670 1018607 967796 937876 931302 945912 975500 1011433 
3755.553 1046107 1073576 1091281 1099784 1100615 1095665 1085401 1069225 
3759.410 1047868 1024386 1004891 996422 1004359 1029401 1067199 1108853 
3763.268 1143601 1163701 1165561 1152438 1132173 1115596 1110514 1119516 
3767.125 1139249 1162139 1180046 1186924 1180279 1162405 1138552 1114434 
3770.982 1093805 1078359 1066999 1057998 1049595 1041490 1034350 1030431 
3774.840 1032224 1041723 1059858 1085368 1114733 1142571 1163202 1171375 
3778.697 1165096 1146458 1121875 1099851 1087826 1090982 1109119 1138286 
3782.555 1172305 1204832 1231547 1250454 1262218 1268698 1271622 1271622 
3786.412 1268066 1259991 1246866 1229653 1210414 1191409 1174764 1161508 
3790.270 1151674 1145495 1143502 1147488 1159415 1180013 1207989 1238758 
3794.127 1265607 1281525 1281990 1267003 1243177 1221712 1214302 1228689 
3797.984 1265740 1318314 1373022 1413110 1423914 1396490 1333337 1249192 
3801.842 1168186 1113969 1099950 1125795 1179781 1244340 1299471 1329149 
3805.699 1324596 1286709 1227028 1164697 1119550 1103040 1116460 1151142 
3809.557 1195064 1237030 1270392 1294452 1313329 1332739 1356736 1384689 
3813.414 1410783 1425011 1417399 1382894 1325593 1260789 1209850 1191575 
3817.271 1215399 1277072 1362585 1450443 1519764 1552217 1537520 1477605 
3821.129 1387382 1291827 1213405 1166757 1153335 1165328 1190114 1215399 
3824.986 1232677 1238658 1234936 1227161 1222509 1226363 1240519 1263115 
3828.844 1289335 1314625 1334699 1347861 1354874 1359129 1364746 1375582 
3832.701 1394396 1422185 1457557 1497753 1538152 1573732 1598341 1606955 
3836.559 1596013 1565020 1517636 1461247 1405099 1357600 1324263 1306749 
3840.416 1302428 1307081 1315257 1321970 1323632 1318813 1307979 1294087 
3844.273 1281159 1273849 1276407 1291462 1319644 1360192 1411049 1469925 
3848.131 1534993 1605392 1680126 1757401 1833560 1900845 1948138 1961152 
3851.988 1925872 1834591 1692899 1523687 1359960 1232610 1157920 1135063 
3855.846 1152671 1195131 1249258 1305253 1356536 1399614 1432690 1455197 
3859.703 1467631 1471587 1470024 1465702 1460882 1455529 1447285 1431693 
3863.561 1405664 1369698 1330578 1299471 1289036 1308112 1357201 1427538 
3867.418 1502973 1565386 1598940 1595381 1558170 1503438 1453003 1423715 
3871.275 1422318 1442231 1469725 1489374 1489973 1469060 1432724 1393564 
3875.133 1364879 1356702 1371394 1404933 1448382 1491768 1526115 1544669 
3878.990 1544270 1526048 1495658 1461414 1433588 1420590 1426474 1450144 
3882.848 1484620 1520263 1545500 1551020 1534028 1499116 1458621 1428236 
3886.705 1421088 1441533 1485617 1541743 1596379 1636488 1652818 1641676 
3890.563 1606289 1555542 1501177 1454299 1423183 1411382 1418961 1443528 
3894.420 1481927 1529772 1582545 1634958 1681357 1716783 1737674 1742797 
3898.277 1733815 1714753 1691934 1671278 1656543 1649093 1646732 1645202 
3902.135 1639348 1624980 1600669 1568112 1531867 1498185 1473515 1461347 
3905.992 1463142 1476907 1498883 1524419 1549324 1570839 1587500 1599239 
3909.850 1606988 1612309 1617032 1622453 1630468 1641876 1657242 1676101 
3913.707 1696724 1716350 1731553 1739204 1737142 1725099 1704708 1679294 
3917.564 1652685 1628240 1608551 1594849 1587633 1587300 1593087 1604460 
3921.422 1619027 1633295 1643439 1645301 1636355 1616799 1589661 1560531 
3925.279 1535691 1520396 1516938 1524785 1540446 1559799 1578222 1592688 
3929.137 1601368 1603862 1600203 1591058 1577623 1561728 1545600 1532665 
3932.994 1525849 1527245 1537254 1554179 1574564 1594583 1610879 1621688 
3936.852 1626843 1628206 1628506 1630235 1635390 1644204 1655446 1667054 
3940.709 1676168 1680725 1679394 1672243 1661133 1648627 1637951 1632131 
3944.566 1632231 1638117 1648029 1658971 1667852 1672376 1671478 1665990 
3948.424 1657242 1647596 1638683 1631732 1626643 1623218 1620690 1619293 
3952.281 1619093 1620490 1623849 1628672 1634559 1640379 1645534 1650091 
3956.139 1654581 1659703 1665990 1673706 1682421 1691003 1698221 1703177 
3959.996 1705406 1705140 1702612 1698720 1694063 1689040 1684250 1680259 
3963.854 1677631 1677299 1679494 1684450 1691502 1699119 1706604 1712092 
3967.711 1715119 1715053 1712458 1708001 1702612 1697456 1693298 1690903 
3971.568 1690803 1693065 1697888 1704940 1713855 1723868 1733948 1743063 
3975.426 1750315 1754673 1756104 1754640 1750981 1746190 1741632 1738173 
3979.283 1736676 1737208 1739537 1743329 1748153 1753775 1760429 1767914 
3983.141 1776132 1784449 1791702 1796727 1798723 1797192 1792634 1785880 
3986.998 1778394 1770909 1763989 1757568 1751413 1745192 1739437 1734879 
3990.855 1732617 1733848 1738805 1747355 1758433 1770909 1783485 1795263 
3994.713 1806043 1815425 1823544 1830265 1835290 1838251 1838983 1837453 
3998.570 1834059 1829234 1823810 1818054 1812531 
##END=
