
##TITLE=mdmaHCL00386_10
##JCAMP-DX=5.01  $$ Nicolet v. 1
##DATATYPE=INFRARED SPECTRUM
##ORIGIN=UniL
##OWNER=Nicolet
##LONGDATE=2011/08/24
##TIME=08:25:52
##SPECTROMETER/DATA SYSTEM=Nicolet iS5
##DATA PROCESSING=
Ratio against background
%Transmittance->Absorbance
Truncated
ElementMultiply or ElementDivide
##COMMENTS=
Number of sample scans: 32
Collection length: 51.17 sec
Sample gain: 2.0
Background collected on: Mer Aout 24 08:24:04 2011 (GMT+02:00);
Number of background scans: 32
Background gain: 2.0
Sample spacing:  1.000
Number of scan points: 12415
Resolution points: 8192
Number of FFT points: 65536
Apodization: N-B fort;
Phase correction: Mertz;
Laser frequency: 15798.0 cm-1
Number of rejected sample scans: 0
Number of rejected background scans: 0
Bench serial number: ASB1000141;
##RESOLUTION=4.000
##XUNITS=1/CM
##YUNITS=ABSORBANCE
##FIRSTX=649.893372
##LASTX=4000.122314
##FIRSTY=0.079407
##MAXX=4000.122314
##MINX=649.893372
##MAXY=0.222816
##MINY=0.001556
##XFACTOR=1.000000
##YFACTOR=1.000000E-009
##NPOINTS=6950
##DELTAX=0.482117
##ZPD=6100
##XYDATA=(X++(Y..Y))
649.893 79407096 79348976 79346072 79411824 79538272 79707904 79904328 
653.268 80123752 80376256 80678704 81040960 81459256 81915032 82384896 
656.643 82851600 83312688 83777408 84259160 84761216 85271320 85763088 
660.018 86208736 86592224 86916312 87200872 87471024 87746816 88034672 
663.393 88327920 88615384 88889472 89149528 89397160 89626200 89811840 
666.767 89904304 89845048 89591904 89150992 88577400 87945480 87309872 
670.142 86685024 86052664 85379320 84636704 83813816 82924464 81997096 
673.517 81065528 80151888 79260520 78383608 77511152 76642384 75788720 
676.892 74970400 74205504 73501880 72853968 72246272 71662504 71094600 
680.267 70545448 70026416 69549728 69122080 68740624 68395992 68077336 
683.642 67778192 67499144 67246128 67024840 66837096 66677972 66538304 
687.016 66410140 66289776 66179284 66084640 66010028 65954104 65908788 
690.391 65861544 65801396 65723336 65629632 65527672 65425656 65327628 
693.766 65232396 65135992 65035380 64932444 64835296 64754748 64698868 
697.141 64670064 64662336 64665220 64668216 64665332 64657644 64651028 
700.516 64651684 64660648 64673104 64679904 64671836 64644648 64600968 
703.890 64549640 64500628 64459808 64426064 64392016 64347476 64283736 
707.265 64197452 64090984 63970724 63844048 63715184 63587272 63462436 
710.640 63344344 63241340 63165000 63127524 63138708 63199720 63300028 
714.015 63414352 63507572 63535496 63452772 63224176 62829012 62270468 
717.390 61576048 60797500 60004564 59267416 58655096 58219476 57988504 
720.765 57965364 58125224 58417976 58765588 59074904 59248804 59194844 
724.139 58852960 58205760 57288788 56180852 54990744 53832308 52790428 
727.514 51913556 51207264 50646556 50191292 49803684 49461872 49157248 
730.889 48890728 48663436 48470420 48300076 48138536 47974948 47805688 
734.264 47634572 47468620 47313228 47169080 47032516 46899020 46767264 
737.639 46640416 46524448 46425028 46342848 46272812 46206320 46135716 
741.013 46058672 45979952 45908312 45850972 45809956 45779176 45747916 
744.388 45705364 45646764 45575548 45502248 45437572 45388276 45353296 
747.763 45325268 45295260 45257528 45212812 45167404 45129468 45103292 
751.138 45087556 45075760 45060724 45037972 45008940 44979760 44957528 
754.513 44946792 44946904 44953704 44962816 44972740 44986776 45010480 
757.888 45047972 45099468 45160164 45223148 45283784 45343328 45408656 
761.262 45490252 45595236 45724764 45873476 46033916 46201788 46381596 
764.637 46585488 46831184 47134992 47506140 47946532 48452344 49018680 
768.012 49640620 50314568 51035024 51795724 52597028 53458716 54437824 
771.387 55627664 57149228 59117084 61579140 64467764 67553648 70482272 
774.762 72795104 74040248 73918576 72341600 69486152 65720716 61543020 
778.136 57437392 53763904 50748508 48450380 46807820 45686184 44938052 
781.511 44440276 44100972 43868104 43713520 43621520 43584628 43601228 
784.886 43677280 43824012 44055716 44384492 44815812 45349804 45985588 
788.261 46726012 47583144 48577088 49731640 51071472 52616736 54383516 
791.636 56389328 58655476 61207372 64071900 67263536 70771696 74543688 
795.010 78483192 82444872 86232496 89631784 92408392 94333136 95226136 
798.385 94968848 93539112 91017600 87586336 83502680 79042128 74492984 
801.760 70103344 66053584 62466732 59393068 56824700 54712652 52987284 
805.135 51578584 50426676 49495292 48769596 48250124 47940980 47837356 
808.510 47913972 48124472 48399000 48654840 48815792 48817092 48618000 
811.885 48206028 47590464 46798188 45863864 44829000 43736496 42626192 
815.259 41538112 40506108 39555412 38703276 37956684 37314772 36771956 
818.634 36321456 35957908 35677420 35478188 35358408 35315816 35348844 
822.009 35457912 35647712 35927532 36311300 36814080 37447524 38217116 
825.384 39116916 40129156 41219424 42337900 43421760 44390800 45161968 
828.759 45658244 45819016 45618828 45072632 44237976 43200092 42062024 
832.133 40928680 39883228 38987132 38273020 37744332 37381796 37147160 
835.508 36993904 36867640 36716680 36501508 36197080 35799812 35325700 
838.883 34806936 34281624 33784484 33342506 32969072 32666400 32428910 
842.258 32248396 32116692 32026868 31973508 31950076 31949646 31965804 
845.633 31994086 32033396 32086120 32156404 32247934 32361544 32495286 
849.008 32645610 32809454 32986448 33178996 33391490 33627752 33889396 
852.382 34175324 34482964 34810236 35157488 35528460 35928936 36364760 
855.757 36841488 37362328 37930540 38551024 39230924 39980760 40813132 
859.132 41740216 42774176 43926100 45206196 46624408 48187072 49891916 
862.507 51719724 53628396 55549784 57385356 59024076 60351732 61261816 
865.882 61680408 61569516 60935036 59824732 58325348 56553284 54630356 
869.256 52682268 50819756 49123740 47651876 46432732 45471196 44754764 
872.631 44259732 43957484 43814008 43794800 43865284 43989604 44136436 
876.006 44280972 44406768 44508624 44591228 44666212 44747892 44850784 
879.381 44987804 45168696 45402624 45698040 46062576 46502800 47021552 
882.756 47616120 48277708 48990604 49735168 50487524 51223740 51923752 
886.131 52572420 53164232 53705404 54214968 54721036 55255500 55849172 
889.505 56521736 57278580 58109732 58993104 59898968 60796016 61658144 
892.880 62462488 63190676 63827196 64356080 64761096 65027184 65140152 
896.255 65089108 64866500 64468728 63897780 63162664 62281864 61283104 
899.630 60202056 59081128 57961008 56878216 55862472 54933056 54101988 
903.005 53375492 52756196 52244896 51840712 51540716 51338660 51225868 
906.379 51193244 51231832 51336424 51505088 51739208 52041208 52412796 
909.754 52853480 53361744 53935652 54574332 55278072 56047608 56881840 
913.129 57776496 58724124 59715912 60746052 61814516 62929696 64107268 
916.504 65369228 66740288 68243048 69897880 71718912 73710856 75864120 
919.879 78148832 80512400 82871360 85124896 87167784 88903304 90273576 
923.254 91271736 91953960 92428312 92848808 93398288 94247672 95550872 
926.628 97417592 99893192 102950456 106473608 110270032 114048320 117446912 
930.003 120087328 121577232 121598760 119964624 116643072 111786752 
932.896 105704424 98838632 91664072 84629016 78122896 72404424 67620624 
936.271 63819176 60970644 59003084 57827596 57362100 57528088 58245924 
939.646 59427944 60952536 62661364 64375140 65889508 67016684 67618536 
943.020 67617832 67020736 65907396 64422144 62735172 61012360 59400132 
946.395 57994180 56844076 55958688 55318568 54889664 54634564 54522304 
949.770 54527520 54629904 54813648 55063404 55365840 55709812 56087568 
953.145 56494864 56929928 57391824 57878660 58387084 58912872 59453172 
956.520 60007112 60576236 61163084 61769632 62395004 63034876 63682876 
959.894 64332760 64981156 65628052 66276960 66931820 67595688 68268208 
963.269 68946664 69627280 70307280 70986824 71668216 72354672 73048136 
966.644 73748160 74453016 75160480 75870512 76586256 77313312 78058848 
970.019 78827936 79623240 80445080 81293248 82169456 83078416 84027024 
973.394 85023208 86072816 87178232 88338928 89553144 90819808 92140680 
976.768 93518976 94957184 96454288 98003984 99595320 101213256 102842784 
980.143 104470272 106082608 107666304 109206072 110682952 112078776 
983.036 113378480 114574360 115667872 116667688 117585504 118430304 
985.929 119205680 119909896 120538640 121089584 121565392 121973752 
988.821 122326760 122637256 122917016 123178608 123435464 123703752 
991.714 124003376 124353848 124770360 125260648 125822992 126448376 
994.607 127124224 127839464 128586920 129362584 130163504 130984288 
997.500 131815240 132644984 133462760 134262720 135045424 135816880 
1000.392 136583840 137350608 138116272 138876208 139625200 140360608 
1003.285 141085344 141806096 142530624 143264736 144011600 144773392 
1006.178 145554768 146366800 147227456 148156688 149173216 150287664 
1009.070 151500944 152804496 154185712 155632848 157136912 158691936 
1011.963 160292304 161928480 163587808 165257552 166928816 168601952 
1014.856 170287136 172000192 173754576 175553504 177385328 179225984 
1017.748 181043488 182804528 184484256 186066496 187543280 188915200 
1020.641 190190592 191388384 192539008 193687616 194889120 196195296 
1023.534 197649920 199276144 201073904 203022720 205090272 207240704 
1026.427 209435264 211635104 213795632 215859232 217761152 219432448 
1029.320 220808624 221844624 222515584 222816256 222754480 222345248 
1032.213 221607936 220565488 219251392 217709296 215985008 214122224 
1035.106 212147200 210061904 207843232 205450768 202841280 199976560 
1037.999 196836096 193418096 189738720 185829120 181735312 177521248 
1040.892 173262176 169044976 164961232 161087296 157482176 154178448 
1043.785 151181744 148479088 146047552 143864640 141911792 140176624 
1046.678 138650320 137324144 136187024 135226848 134430208 133785160 
1049.571 133280512 132903008 132635352 132454752 132332336 132239464 
1052.464 132151720 132051304 131930424 131786424 131617336 131418240 
1055.357 131177368 130878000 130501984 130031232 129449576 128743280 
1058.250 127898392 126901256 125741944 124417520 122936760 121322344 
1061.144 119610248 117842808 116061800 114306040 112604672 110979320 
1064.037 109446824 108018792 106703568 105504176 104416712 103429744 
1066.930 102524808 101682008 100881752 100109432 99357008 98620864 97899864 
1070.305 97192824 96497400 95810608 95131088 94458728 93796080 93145568 
1073.680 92508912 91885464 91273904 90674064 90088104 89521824 88982512 
1077.055 88475024 87998800 87546160 87104368 86659136 86200088 85725544 
1080.431 85242448 84764928 84308160 83886648 83510264 83185464 82919080 
1083.806 82721216 82606664 82597320 82718088 82994808 83453408 84115160 
1087.181 84996648 86106104 87439816 88975640 90666392 92442904 94209552 
1090.556 95853784 97269672 98361760 99066872 99363760 99273128 98855112 
1093.932 98194440 97398472 96576400 95825152 95228736 94842328 94691160 
1097.307 94771640 95053800 95487496 96005240 96535592 97004248 97338064 
1100.682 97476768 97372560 96996920 96347432 95446384 94340712 93089080 
1104.057 91759056 90414160 89104288 87869216 86734944 85716744 84823608 
1107.433 84057904 83416344 82888728 82458528 82103720 81797648 81513816 
1110.808 81226768 80911848 80548096 80115384 79594984 78972664 78239400 
1114.183 77394560 76445456 75407632 74301392 73147016 71965744 70776496 
1117.558 69595576 68439584 67323384 66259092 65256736 64321540 63453956 
1120.934 62650532 61905140 61209240 60551628 59918860 59292896 58650812 
1124.309 57969000 57224108 56399364 55489464 54502168 53458492 52386744 
1127.684 51321096 50293880 49330376 48449380 47660492 46964472 46355676 
1131.059 45822512 45349840 44919200 44512444 44113588 43710148 43296616 
1134.435 42873712 42449100 42034356 41644332 41295068 41000628 40774008 
1137.810 40624628 40557836 40574348 40669708 40835372 41058384 41324220 
1141.185 41619316 41931288 42250532 42570088 42884464 43188600 43478776 
1144.560 43751852 44006868 44245936 44473240 44694196 44913800 45135016 
1147.936 45358372 45582908 45807268 46031412 46256960 46487716 46727816 
1151.311 46981124 47250276 47536820 47842016 48167080 48513580 48882128 
1154.686 49272288 49681412 50104604 50535652 50968172 51395532 51811740 
1158.061 52210336 52582292 52916952 53201120 53420644 53563584 53620260 
1161.437 53584496 53452644 53222732 52892888 52461548 51928344 51294732 
1164.812 50565024 49746984 48849976 47884116 46860228 45788268 44678292 
1168.187 43541336 42388856 41233128 40087148 38961944 37867776 36813036 
1171.562 35804240 34846532 33944780 33102646 32323740 31610728 30965168 
1174.938 30387618 29877804 29434644 29057114 28744054 28494758 28308448 
1178.313 28184438 28122394 28122640 28187018 28319340 28525046 28810542 
1181.688 29181584 29642830 30196690 30844382 31586282 32423590 33358750 
1185.063 34395120 35535684 36780900 38126996 39564740 41076668 42637520 
1188.438 44214236 45762016 47229476 48561860 49702068 50603592 51235412 
1191.814 51586460 51667920 51510164 51158540 50661412 50067084 49417060 
1195.189 48738720 48048040 47348736 46636284 45901536 45136008 44335976 
1198.564 43504156 42650204 41788188 40935340 40107136 39315540 38568732 
1201.939 37870596 37222132 36622940 36071736 35566396 35103416 34677072 
1205.315 34278788 33897600 33521864 33140406 32744638 32329880 31895444 
1208.690 31444378 30982248 30516880 30056874 29611328 29190160 28803106 
1212.065 28459096 28166866 27933626 27764792 27665020 27637654 27685360 
1215.440 27810572 28015152 28300100 28665364 29109868 29631762 30229264 
1218.816 30901230 31647432 32467936 33362828 34331248 35371744 36483092 
1222.191 37665404 38920736 40253460 41669352 43174036 44771216 46461496 
1225.566 48241276 50102484 52030564 54004348 55993704 57956428 59843444 
1228.941 61597200 63156336 64465964 65477044 66153004 66474580 66440256 
1232.317 66070864 65408400 64520620 63494532 62424920 61416784 60568316 
1235.692 59963212 59675916 59762260 60262920 61207868 62613988 64485752 
1239.067 66812664 69566448 72697096 76127744 79764720 83490584 87168504 
1242.442 90660760 93818904 96500296 98587384 99987400 100651336 100577488 
1245.818 99809704 98429792 96542176 94276072 91765312 89140784 86531040 
1249.193 84037960 81728656 79627056 77707216 75898488 74095424 72188904 
1252.568 70080608 67706888 65053896 62157020 59094572 55964980 52879304 
1255.943 49938340 47215072 44757368 42580832 40674656 39009140 37544364 
1259.319 36239184 35053272 33955032 32921676 31937916 30996410 30094300 
1262.694 29231484 28408614 27626178 26884518 26184032 25525644 24911378 
1266.069 24343430 23823718 23353540 22932176 22557986 22228336 21941034 
1269.444 21694394 21487718 21320188 21190400 21095848 21032790 20997248 
1272.820 20985424 20994502 21022810 21069204 21132546 21211518 21304772 
1276.195 21410926 21529184 21658728 21797924 21942916 22088234 22225650 
1279.570 22346436 22443806 22512896 22552716 22564164 22548876 22507314 
1282.945 22438050 22338168 22204970 22038348 21841788 21622994 21392860 
1286.321 21164308 20949052 20757608 20598072 20475792 20393898 20353478 
1289.696 20353340 20390356 20459154 20553986 20669058 20799736 20943036 
1293.071 21097308 21261272 21433376 21611330 21792628 21976270 22162986 
1296.446 22356028 22560220 22781512 23024368 23292006 23586082 23907486 
1299.822 24256878 24635202 25042390 25476944 25933986 26405982 26882544 
1303.197 27352468 27806050 28235316 28635172 29002738 29337358 29639884 
1306.572 29913016 30162026 30393800 30616526 30838762 31066840 31304582 
1309.947 31552718 31809084 32070458 32332628 32591316 32842118 33079654 
1313.323 33298466 33492442 33656212 33786276 33880584 33938944 33961156 
1316.698 33947328 33896812 33809516 33687184 33534750 33359896 33173524 
1320.073 32986696 32808702 32646536 32502926 32378606 32272846 32185770 
1323.448 32119014 32076128 32062180 32084156 32150802 32271490 32457222 
1326.823 32718126 33060308 33482924 33975128 34516108 35074536 35615524 
1330.199 36106268 36519456 36839688 37063004 37196972 37256648 37262460 
1333.574 37237584 37203328 37179360 37181960 37222568 37307876 37440300 
1336.949 37618828 37840588 38102436 38402732 38741132 39118076 39533272 
1340.324 39985232 40469812 40980600 41507196 42035232 42545272 43010660 
1343.700 43401548 43686332 43835996 43831528 43664860 43339668 42868848 
1347.075 42270764 41566404 40775716 39919552 39019900 38098712 37181852 
1350.450 36296240 35466756 34716588 34062208 33512664 33069640 32728880 
1353.825 32482826 32321386 32234694 32212496 32243364 32316386 32420374 
1357.201 32544922 32682188 32826536 32973186 33118736 33258866 33389558 
1360.576 33508048 33615148 33717372 33827320 33963308 34146144 34393756 
1363.951 34721040 35136436 35643072 36240124 36922076 37677292 38483172 
1367.326 39307272 40104372 40818884 41396272 41785340 41945812 41855392 
1370.702 41508140 40916736 40108404 39127396 38030748 36880736 35746564 
1374.077 34691108 33761096 32984410 32366042 31894944 31551540 31318150 
1377.452 31184626 31152622 31234436 31452108 31835932 32416664 33222452 
1380.827 34268608 35547120 37013132 38575140 40107824 41451164 42439416 
1384.203 42934388 42829608 42075896 40689248 38764676 36469504 34013112 
1387.578 31622060 29474074 27670954 26240698 25152164 24345112 23751094 
1390.953 23311898 22981328 22724424 22517154 22341762 22186244 22045216 
1394.328 21918834 21812348 21732430 21684466 21669872 21685546 21724628 
1397.704 21778378 21837958 21895730 21947132 21991256 22030332 22067562 
1401.079 22105666 22145308 22185304 22223558 22258572 22291392 22326274 
1404.454 22370052 22430026 22511710 22617250 22745094 22891938 23054590 
1407.829 23231670 23423754 23632296 23858512 24101832 24359830 24629484 
1411.205 24908712 25197422 25497746 25812904 26145074 26494688 26860092 
1414.580 27239208 27631050 28035968 28455982 28892444 29344236 29807958 
1417.955 30277790 30749448 31222864 31704176 32202754 32724022 33267916 
1421.330 33827248 34391784 34952100 35505264 36057768 36625500 37229212 
1424.706 37888420 38617076 39420132 40296616 41242524 42253420 43321984 
1428.081 44433596 45564324 46677088 47726648 48670740 49476428 50130488 
1431.456 50641084 51036552 51357828 51648032 51950412 52301816 52735056 
1434.831 53284532 53987312 54881016 55997924 57348792 58918908 60673312 
1438.207 62564692 64539568 66532968 68469736 70249552 71752832 72867360 
1441.582 73492024 73562704 73060248 72004000 70444200 68446848 66092580 
1444.957 63463396 60634332 57681392 54677216 51699980 48845600 46216016 
1448.332 43904580 41975772 40446824 39293776 38466084 37912352 37591876 
1451.708 37481620 37572400 37857796 38326472 38962708 39745740 40657300 
1455.083 41686528 42822184 44046988 45327256 46612600 47847972 48990568 
1458.458 50021424 50938556 51748800 52461476 53087468 53637656 54121204 
1461.833 54542624 54897148 55167792 55331140 55363208 55254896 55020148 
1465.208 54696568 54330908 53960036 53603168 53260524 52920992 52569916 
1468.584 52193368 51776236 51295812 50717040 49993136 49073508 47928956 
1471.959 46575712 45090168 43586532 42178088 40937088 39881488 38992572 
1475.334 38241252 37610844 37106304 36751620 36573736 36594176 36819348 
1478.709 37243288 37855560 38649524 39627312 40798172 42173884 43761084 
1482.085 45557556 47552940 49734164 52090476 54619796 57325384 60206468 
1485.460 63249932 66411376 69600824 72690040 75502912 77833488 79481288 
1488.835 80262328 80055896 78840576 76712040 73873048 70574920 67071312 
1492.210 63551792 60121868 56827532 53665512 50617288 47679168 44871800 
1495.586 42247172 39878036 37831372 36146236 34822660 33832728 33133506 
1498.961 32683186 32450654 32412700 32551710 32852408 33297036 33865536 
1502.336 34536412 35281024 36063200 36836620 37527604 38034508 38227680 
1505.711 37964752 37150516 35793336 34020028 32013242 29930126 27859500 
1509.087 25829150 23840204 21894440 20002770 18194826 16509594 14979424 
1512.462 13627219 12458257 11462094 10619178 9905369 9295930 8765134 8290200 
1516.319 7855629 7455806 7097471 6794087 6557546 6389623 6278204 6196927 
1520.177 6114186 6002670 5853667 5682995 5523262 5404650 5338464 5316292 
1524.034 5316560 5316895 5301365 5266652 5220405 5176041 5143919 5126384 
1527.892 5118908 5115756 5115119 5122226 5145998 5194148 5266920 5354732 
1531.749 5438402 5495309 5509235 5478867 5421325 5363689 5331621 5337893 
1535.606 5381133 5451387 5536753 5627942 5717775 5799869 5866127 5903474 
1539.464 5898101 5843559 5748764 5636737 5535109 5464036 5427699 5416494 
1543.321 5412434 5399786 5370432 5328837 5288251 5265210 5270341 5303982 
1547.179 5357483 5417466 5472123 5514772 5545948 5571287 5597835 5629050 
1551.036 5662987 5693435 5713847 5720763 5715862 5705991 5701224 5711430 
1554.894 5742586 5796008 5868410 5952985 6037913 6103568 6123360 6068958 
1558.751 5928363 5722543 5501685 5317633 5198307 5146970 5149418 5185027 
1562.608 5232478 5275104 5304183 5319042 5327193 5339571 5366205 5410320 
1566.466 5468533 5532223 5591894 5639154 5669130 5681652 5680477 5673293 
1570.323 5668862 5676684 5705118 5759509 5842148 5950600 6077627 6210271 
1574.181 6332632 6430446 6494513 6528585 6548767 6579243 6639396 6737884 
1578.038 6873792 7041801 7237165 7459513 7711891 7999346 8325629 8691807 
1581.896 9095274 9530377 9989852 10462916 10935679 11390181 11803314 
1585.271 12151277 12415057 12582871 12655493 12645907 12579631 12489595 
1588.646 12412705 12387918 12448370 12621448 12925895 13368169 13939830 
1592.021 14612911 15342676 16064867 16703686 17187812 17453048 17458256 
1595.396 17192946 16678791 15966166 15120510 14216407 13319787 12480865 
1598.772 11735771 11103228 10588994 10189158 9893674 9690302 9567296 9516965 
1602.629 9535355 9621529 9775388 9995718 10277971 10614968 10995758 11405353 
1606.487 11825548 12231495 12593376 12879985 13060066 13109477 13015714 
1609.862 12779787 12417171 11956723 11438485 10904284 10391745 9929437 
1613.237 9530343 9195100 8913853 8671322 8449974 8234951 8020508 7811906 
1617.094 7624074 7474412 7376060 7333160 7340844 7387283 7457626 7537217 
1620.952 7611732 7671420 7711757 7734726 7747509 7759248 7778475 7809746 
1624.809 7853470 7907623 7968466 8031747 8093012 8147973 8193520 8228434 
1628.667 8254943 8278717 8307593 8348732 8407035 8483625 8576078 8677846 
1632.524 8780315 8873406 8945309 8983734 8978626 8925319 8829918 8710298 
1636.382 8591421 8493897 8428825 8395651 8385922 8387577 8389266 8383963 
1640.239 8370620 8354272 8343328 8346469 8368390 8408150 8459029 8511028 
1644.096 8552726 8573138 8563676 8520084 8443858 8343361 8233871 8135583 
1647.954 8067088 8042312 8067189 8139701 8249978 8380044 8505587 8591658 
1651.811 8598857 8498053 8293509 8036034 7795949 7624815 7532396 7500538 
1655.669 7503639 7519990 7537184 7549355 7555693 7558255 7559031 7558424 
1659.526 7555153 7545848 7526631 7492751 7440367 7367871 7276989 7174942 
1663.384 7072751 6983647 6918600 6882983 6876351 6892004 6919543 6945668 
1667.241 6957621 6945331 6903316 6832389 6739432 6636603 6536456 6450960 
1671.098 6388413 6352032 6340130 6345274 6355697 6355159 6327287 6261463 
1674.956 6159016 6035527 5914424 5817767 5755849 5726236 5717842 5717910 
1678.813 5718044 5717171 5721267 5739867 5779789 5839596 5907370 5960107 
1682.671 5969983 5911972 5777909 5586591 5380697 5205013 5083672 5016830 
1686.528 4989580 4983849 4983849 4979089 4964376 4938202 4902110 4860190 
1690.385 4819314 4788257 4775393 4786817 4823267 4878720 4939743 4988407 
1694.243 5006138 4980597 4914643 4829231 4756734 4722398 4734591 4781791 
1698.100 4839852 4877112 4862871 4779748 4634948 4464286 4313869 4218304 
1701.958 4184981 4201642 4246643 4298375 4339437 4357375 4347536 4313802 
1705.815 4266318 4217200 4176484 4149487 4136140 4133932 4138983 4148985 
1709.673 4163537 4184078 4212917 4252030 4302391 4363232 4432384 4507707 
1713.530 4587195 4668941 4750201 4826852 4890783 4931566 4938336 4904791 
1717.387 4833788 4739850 4645029 4569012 4524346 4512729 4527795 4559001 
1721.245 4595265 4628619 4653736 4669143 4676343 4678219 4678252 4679157 
1725.102 4683042 4691583 4705316 4724174 4746315 4769095 4789497 4805912 
1728.960 4819414 4834592 4857342 4892827 4941352 4996820 5045356 5066307 
1732.817 5039154 4951305 4808157 4637058 4477877 4363433 4306072 4299847 
1736.675 4327255 4368754 4405304 4423111 4415413 4383381 4335555 4284521 
1740.532 4242126 4215226 4204954 4208501 4221081 4238379 4257551 4278230 
1744.389 4301454 4329129 4362596 4402024 4446242 4492976 4539380 4582373 
1748.247 4619811 4649081 4667535 4672492 4661640 4635082 4596571 4554045 
1752.104 4517047 4494081 4489561 4502517 4526389 4551199 4566133 4562818 
1755.962 4537739 4494616 4443029 4394459 4357241 4334216 4321967 4313200 
1759.819 4299111 4272207 4229245 4171432 4104597 4037337 3978647 3935078 
1763.677 3910002 3903516 3912410 3931400 3953569 3972127 3982192 3982326 
1767.534 3976139 3970756 3974267 3991254 4020381 4053825 4080213 4087271 
1771.391 4067571 4022689 3963934 3908297 3870285 3857582 3868948 3897599 
1775.249 3934911 3975170 4015198 4054928 4095131 4135906 4174979 4208701 
1779.106 4233460 4247111 4250792 4248584 4246275 4247814 4255242 4266786 
1782.964 4279134 4288235 4291782 4289674 4284187 4278899 4277393 4282547 
1786.821 4296200 4319290 4352121 4393857 4442058 4491905 4535998 4565664 
1790.678 4572227 4550060 4499906 4429037 4349611 4275486 4216664 4176818 
1794.536 4154438 4144369 4140957 4139318 4136441 4131490 4124733 4117007 
1798.393 4109012 4100483 4090649 4078340 4062353 4042052 4017505 3990084 
1802.251 3961259 3933440 3908766 3889307 3876102 3869783 3870018 3875901 
1806.108 3886499 3900942 3918294 3937519 3957447 3976072 3991655 4002690 
1809.966 4008543 4009446 4007171 4003995 4001988 4003025 4007907 4016970 
1813.823 4029678 4045932 4065430 4088408 4114498 4143800 4175413 4208300 
1817.680 4241223 4272408 4300349 4324176 4343520 4359216 4373407 4388133 
1821.538 4405605 4426392 4448652 4468704 4481761 4483803 4473760 4454879 
1825.395 4434459 4420434 4419362 4432953 4457825 4485878 4507338 4513900 
1829.253 4501614 4473525 4437539 4405003 4385289 4383012 4398242 4427128 
1833.110 4464587 4506066 4548219 4589505 4629221 4667133 4702770 4736266 
1836.968 4767855 4798977 4833051 4873895 4926170 4993367 5077370 5177114 
1840.825 5288855 5407267 5523967 5630796 5720830 5790198 5840805 5879930 
1844.682 5918455 5966254 6028539 6104643 6189365 6274372 6351830 6416457 
1848.540 6466127 6502450 6528248 6546648 6559060 6564677 6561516 6547085 
1852.397 6520445 6482002 6433406 6376779 6313705 6245026 6171317 6093487 
1856.255 6013588 5934511 5859410 5790568 5728150 5670742 5615557 5560346 
1860.112 5503564 5446052 5389353 5335713 5286708 5243142 5205550 5174801 
1863.969 5151866 5138890 5136644 5144422 5158672 5174096 5183921 5182479 
1867.827 5168027 5142511 5111599 5082499 5061614 5051624 5052094 5059770 
1871.684 5070766 5081996 5091383 5098323 5103184 5106637 5109419 5112068 
1875.542 5114482 5116125 5115555 5110995 5100334 5081862 5055044 5021087 
1879.399 4982575 4942994 4905226 4870846 4839752 4810201 4780418 4749297 
1883.257 4717709 4688200 4663784 4646837 4638130 4636321 4638431 4640910 
1887.114 4641278 4637962 4631131 4621720 4611640 4603101 4598112 4598848 
1890.971 4606818 4622859 4646167 4674501 4704679 4732983 4756499 4774187 
1894.829 4787822 4800050 4814288 4832816 4856270 4883479 4912632 4941955 
1898.686 4971112 5000037 5029266 5058630 5087494 5114415 5138790 5160952 
1902.544 5182647 5206220 5233819 5266048 5301231 5336954 5369493 5396196 
1906.401 5415890 5429008 5436255 5439107 5438234 5433940 5426861 5417701 
1910.259 5408073 5399316 5392405 5386971 5381938 5376336 5369929 5363958 
1914.116 5360469 5361207 5366104 5372680 5376370 5371975 5356209 5329508 
1917.973 5296502 5265009 5241331 5229192 5227582 5231338 5233719 5228923 
1921.831 5213933 5188716 5156258 5120182 5083706 5048574 5015590 4985424 
1925.688 4959449 4939810 4928449 4926305 4932236 4943229 4955729 4967258 
1929.546 4976944 4985659 4995513 5007813 5023165 5040663 5058664 5076330 
1933.403 5093562 5111129 5129971 5149787 5169302 5186134 5198004 5204845 
1937.260 5207897 5210479 5215543 5224664 5237475 5251124 5262091 5267524 
1941.118 5266216 5259341 5249615 5239755 5232243 5228319 5228554 5233551 
1944.975 5244316 5262024 5287279 5319378 5356443 5395559 5433604 5469640 
1948.833 5503497 5536350 5569139 5602534 5635898 5668258 5698974 5728418 
1952.690 5757695 5786942 5815518 5840569 5856723 5859276 5844499 5812193 
1956.548 5765385 5710624 5655031 5605924 5568266 5545042 5537156 5544270 
1960.405 5564105 5595284 5634689 5678228 5723550 5767601 5809876 5851249 
1964.262 5892962 5934611 5973510 6004887 6023264 6026019 6015134 5996555 
1968.120 5979825 5973376 5981102 6002166 6030118 6057870 6080382 6096209 
1971.977 6108877 6123461 6144095 6171250 6203179 6236790 6271615 6310141 
1975.835 6357412 6418172 6492461 6574063 6650633 6708305 6737379 6733913 
1979.692 6702483 6651373 6590714 6528416 6469255 6414137 6364439 6321538 
1983.550 6288524 6267951 6261026 6265127 6275447 6285667 6291180 6291281 
1987.407 6288693 6288760 6295181 6309435 6328195 6345778 6357546 6360808 
1991.264 6357681 6353747 6354755 6365111 6384109 6407681 6430715 6448000 
1995.122 6457047 6458728 6455567 6450556 6445310 6439963 6433506 6425167 
1998.979 6413968 6400686 6385857 6370020 6353444 6336163 6319621 6305938 
2002.837 6299585 6304964 6324530 6358185 6401662 6448740 6491486 6523068 
2006.694 6539416 6540122 6526566 6502551 6472114 6438719 6405259 6375232 
2010.552 6350183 6331926 6321538 6318344 6322446 6333709 6352402 6378830 
2014.409 6413767 6455298 6499457 6540795 6573121 6592868 6599798 6598284 
2018.266 6595727 6599327 6614634 6643063 6682160 6727082 6772446 6813877 
2022.124 6849018 6876149 6894765 6903921 6903518 6894597 6879212 6861203 
2025.981 6844810 6832288 6824210 6818253 6810646 6798462 6781196 6761609 
2029.839 6745355 6737817 6743605 6763595 6795870 6836799 6882242 6929070 
2033.696 6975028 7018263 7057360 7090331 7116096 7135262 7150049 7164465 
2037.553 7181982 7204890 7232987 7262096 7287872 7306371 7315199 7315368 
2041.411 7309673 7300878 7291848 7282953 7274260 7265600 7257784 7252292 
2045.268 7251517 7256840 7267285 7280190 7291107 7294813 7288074 7268902 
2049.126 7236457 7190842 7133072 7064466 6988227 6909106 6833433 6767835 
2052.983 6718131 6686332 6670619 6664663 6660626 6651710 6634719 6610967 
2056.841 6585467 6564980 6553712 6553779 6563097 6577057 6591085 6601110 
2060.698 6606122 6606694 6604676 6602018 6600605 6601244 6604776 6611707 
2064.555 6622338 6635762 6650801 6664831 6675329 6680242 6679199 6672806 
2068.413 6663014 6651575 6639597 6627015 6613591 6598149 6580959 6562760 
2072.270 6544696 6528114 6513449 6500432 6488728 6477898 6468919 6462764 
2076.128 6460814 6463504 6469087 6474939 6477427 6473997 6463773 6448404 
2079.985 6430883 6415146 6403881 6397929 6396719 6397828 6399240 6398702 
2083.843 6394802 6387169 6375434 6359900 6341172 6320462 6299585 6280288 
2087.700 6264018 6251211 6240992 6231278 6219917 6205699 6188457 6169804 
2091.557 6152597 6139558 6132904 6133206 6140163 6152833 6169804 6189398 
2095.415 6210136 6229833 6246101 6257228 6262001 6260758 6255513 6249564 
2099.272 6245799 6246135 6250942 6258640 6267178 6274977 6281297 6286810 
2103.130 6292626 6299349 6306477 6313335 6318781 6322748 6326816 6333910 
2106.987 6347358 6369213 6399577 6436365 6475746 6514155 6549137 6580084 
2110.844 6607569 6633440 6658876 6684481 6709617 6733509 6755316 6774701 
2114.702 6791899 6807011 6820070 6831312 6840097 6847166 6853191 6859722 
2118.559 6868507 6880626 6895876 6913381 6931191 6947452 6960752 6971021 
2122.417 6978732 6985634 6993109 7002874 7015906 7032608 7052477 7074098 
2126.274 7094878 7111482 7120509 7119027 7105554 7080429 7045809 7004760 
2130.132 6960685 6916512 6874836 6837943 6808021 6787928 6779749 6785168 
2133.989 6803409 6832053 6866353 6901632 6934490 6963580 6989843 7015670 
2137.846 7042037 7068440 7091880 7108586 7115423 7112392 7102186 7089522 
2141.704 7078981 7073559 7073727 7077567 7081170 7082753 7081170 7076758 
2145.561 7071100 7064702 7056821 7045842 7031261 7012842 6992133 6972166 
2149.419 6954052 6938598 6924963 6911664 6898502 6887763 6882646 6887426 
2153.276 6903551 6928935 6958395 6984422 7002942 7014525 7026412 7049412 
2157.134 7095956 7172786 7279212 7405415 7535734 7655266 7752164 7820980 
2160.991 7861566 7877256 7872532 7852559 7824185 7794229 7770076 7757831 
2164.848 7759450 7772099 7788899 7801414 7802494 7789270 7763430 7730948 
2168.706 7698063 7668722 7643329 7619184 7592006 7558862 7520159 7479233 
2172.563 7441581 7411482 7392406 7382902 7381351 7383879 7387249 7389878 
2176.421 7389844 7385901 7377273 7362647 7342865 7320726 7300676 7288613 
2180.278 7289051 7303641 7330296 7364332 7399045 7429245 7452704 7469154 
2184.135 7480514 7488469 7493931 7496729 7495987 7491335 7483009 7472424 
2187.993 7460659 7449232 7438547 7428806 7420144 7415021 7415190 7423413 
2191.850 7440839 7466491 7496964 7527508 7552760 7568910 7574035 7567426 
2195.708 7550602 7525114 7493357 7457760 7422133 7390148 7365478 7350717 
2199.565 7345696 7348055 7352739 7354728 7350784 7339698 7323354 7305326 
2203.423 7288984 7276146 7266813 7259266 7251854 7243599 7235177 7227596 
2207.280 7222004 7219073 7217725 7216984 7217051 7218332 7223250 7233694 
2211.137 7250203 7271631 7294274 7314121 7327869 7334575 7335957 7335182 
2214.995 7335384 7338687 7344921 7352773 7360457 7366657 7371814 7376970 
2218.852 7382935 7389844 7396484 7401236 7402517 7399618 7393922 7386373 
2222.710 7378386 7370499 7361973 7351829 7340169 7327229 7314963 7304955 
2226.567 7297879 7292791 7287771 7280223 7268565 7253842 7238748 7226754 
2230.425 7220791 7222038 7228877 7239017 7249495 7258525 7265937 7272002 
2234.282 7277898 7282986 7285918 7284738 7278134 7266173 7251112 7235985 
2238.139 7223722 7216074 7213042 7213548 7215434 7217995 7220387 7223486 
2241.997 7227664 7232650 7237501 7241005 7242487 7242487 7242858 7245823 
2245.854 7253336 7265600 7281302 7298115 7313110 7324634 7332654 7338181 
2249.712 7342865 7348122 7354660 7362782 7372387 7383778 7397697 7414616 
2253.569 7434469 7455536 7475120 7490256 7497774 7496729 7487323 7471446 
2257.427 7451929 7431368 7411785 7395102 7382059 7373735 7370466 7372117 
2261.284 7377678 7385429 7393181 7399180 7402887 7405583 7409291 7416133 
2265.141 7427660 7443165 7460727 7477211 7489616 7496493 7497740 7494571 
2268.999 7488874 7481660 7473705 7464805 7454423 7442626 7430020 7417448 
2272.856 7406056 7396281 7387957 7380408 7373229 7366118 7359311 7353211 
2276.714 7348426 7345359 7343943 7344045 7345528 7348965 7354559 7362681 
2280.571 7373195 7384856 7396484 7406865 7415088 7421256 7425840 7429177 
2284.428 7431503 7432278 7430626 7426177 7419268 7411178 7403696 7398877 
2288.286 7397562 7399450 7402550 7404674 7403966 7399820 7392911 7385362 
2292.143 7379801 7377914 7380913 7388496 7399247 7411684 7424121 7435547 
2296.001 7445053 7452367 7457693 7461637 7464805 7468480 7473300 7479941 
2299.858 7488335 7497740 7507179 7515405 7521675 7525957 7528249 7529530 
2303.716 7530407 7531587 7533475 7536273 7540285 7545815 7553063 7562268 
2307.573 7573057 7584858 7596659 7608225 7618881 7628963 7638574 7648286 
2311.430 7657897 7667373 7676142 7683831 7690610 7696984 7703763 7711959 
2315.288 7722179 7734996 7750343 7768254 7788899 7812041 7837680 7865312 
2319.145 7894329 7923483 7951491 7977443 8000392 8019394 8032861 8038835 
2323.003 8034988 8019462 7991719 7953381 7907995 7861331 7819057 7786369 
2326.860 7765960 7758101 7760327 7768625 7778981 7787920 7793756 7795983 
2330.718 7795274 7792778 7789607 7787009 7786200 7788460 7795274 7807621 
2334.575 7825703 7849050 7876176 7905498 7935766 7965935 7996039 8025706 
2338.432 8054699 8082244 8106887 8127176 8142504 8152767 8158575 8161072 
2342.290 8160600 8156684 8148040 8133118 8111040 8082751 8051526 8022128 
2346.147 8001169 7994622 8006907 8040692 8095747 8170088 8259502 8359270 
2350.005 8463961 8568136 8667571 8759420 8842666 8917810 8986744 9051392 
2353.862 9113038 9172223 9228572 9281476 9330798 9377010 9421230 9464947 
2357.719 9509616 9556355 9605404 9657303 9711751 9768373 9826359 9883505 
2361.577 9937031 9984190 10021961 10049156 10066484 10076217 10081914 
2364.952 10086832 10093275 10102024 10112097 10121389 10127732 10129462 
2368.327 10125358 10114912 10098022 10074962 10046240 10012569 9975308 
2371.703 9936049 9896895 9859507 9825512 9796433 9773626 9758749 9753531 
2375.560 9759901 9778980 9811582 9856999 9913742 9979851 10052988 10131801 
2379.417 10215413 10303859 10397174 10495501 10598637 10705533 10814968 
2382.793 10925179 11034467 11140655 11241597 11335184 11419367 11492577 
2386.168 11554095 11603777 11641656 11668271 11683962 11688932 11683010 
2389.543 11666808 11640737 11606262 11565120 11518742 11468491 11414979 
2392.918 11358447 11299134 11237619 11174957 11112643 11052141 10994535 
2396.294 10940470 10890456 10844795 10804472 10771320 10747680 10736065 
2399.669 10737899 10753658 10782495 10822849 10872517 10930073 10994908 
2403.044 11066858 11146162 11232927 11326851 11427327 11533577 11645094 
2406.419 11761813 11883877 12011698 12145927 12286743 12434662 12589761 
2409.795 12752080 12921355 13096296 13274895 13454012 13630433 13800666 
2413.170 13962070 14112581 14250954 14376014 14486481 14580804 14657428 
2416.545 14715385 14754598 14776400 14782947 14776845 14760460 14735642 
2419.920 14703662 14665104 14620999 14572375 14520946 14468051 14414889 
2423.296 14361492 14308000 14253658 14198981 14145133 14094337 14049331 
2426.671 14013295 13988759 13977605 13981300 14000531 14036018 14087971 
2430.046 14156292 14240306 14338205 14448183 14568434 14697870 14836225 
2433.421 14984122 15142399 15311545 15490988 15679540 15875220 16076420 
2436.797 16282804 16494278 16712431 16939410 17177366 17428420 17694530 
2440.172 17977344 18278346 18598404 18937872 19296002 19671376 20062034 
2443.547 20465372 20879550 21303032 21734870 22174248 22620218 23071502 
2446.922 23526962 23985038 24444788 24905308 25366034 25825950 26283818 
2450.298 26737904 27186540 27628296 28061734 28486020 28899386 29299322 
2453.673 29681816 30041568 30372410 30668546 30924284 31135146 31297922 
2457.048 31409680 31468242 31471628 31418372 31307716 31139132 30913256 
2460.423 30631140 30294596 29905810 29467690 28983680 28458246 27896384 
2463.799 27303456 26685192 26047048 25394382 24733088 24068698 23407878 
2467.174 22757906 22125782 21519054 20944290 20406330 19908408 19451594 
2470.549 19035558 18658758 18318850 18013294 17739500 17494682 17275828 
2473.924 17079928 16903926 16745213 16601775 16471392 16352471 16243143 
2477.300 16140826 16043654 15949391 15856799 15765533 15675694 15588345 
2480.675 15504311 15424310 15348169 15275712 15205979 15138179 15071487 
2484.050 15005387 14939539 14873768 14808523 14744760 14684160 14628607 
2487.425 14580118 14539858 14508133 14484255 14466578 14453732 14444518 
2490.801 14438694 14436536 14438352 14444038 14452739 14462708 14472025 
2494.176 14479458 14484358 14487064 14488743 14490592 14493333 14496964 
2497.551 14501179 14505495 14509675 14513992 14518582 14523619 14528381 
2500.926 14531773 14532013 14527764 14518548 14504844 14487920 14469936 
2504.302 14452567 14437187 14424137 14413724 14405778 14400297 14397522 
2507.677 14397420 14399543 14403038 14406188 14407285 14404510 14396735 
2511.052 14383412 14364438 14340362 14311390 14277285 14237600 14191621 
2514.427 14139074 14080031 14015793 13948315 13879924 13813321 13750902 
2517.802 13693929 13643083 13597542 13556178 13517517 13480158 13443691 
2521.178 13408388 13374934 13344592 13318420 13297237 13281317 13270351 
2524.553 13264236 13262836 13265944 13273153 13283846 13296897 13310664 
2527.928 13323853 13335230 13344660 13353168 13362463 13374490 13391302 
2531.303 13413753 13441708 13474040 13508834 13544487 13579492 13612654 
2534.679 13643870 13673173 13701145 13728400 13755930 13784694 13815579 
2538.054 13849546 13887039 13928196 13972780 14020207 14069283 14118878 
2541.429 14168102 14215620 14260747 14303172 14342896 14380398 14416635 
2544.804 14452396 14488743 14526051 14564391 14603762 14644028 14684880 
2548.180 14726422 14768756 14811985 14855459 14898662 14939951 14977915 
2551.555 15011253 15038899 15060887 15078004 15091727 15103631 15114986 
2554.930 15127234 15140237 15153619 15166142 15176333 15182817 15184979 
2558.305 15182406 15175784 15165902 15153721 15139757 15124078 15106135 
2561.681 15085174 15060578 15032313 15000689 14966289 14929799 14891428 
2565.056 14851002 14808145 14762585 14714836 14666202 14618806 14574876 
2568.431 14536570 14505050 14480692 14462879 14450787 14443627 14441264 
2571.806 14443764 14451300 14463975 14481103 14501795 14524681 14548698 
2575.182 14573231 14598142 14623775 14650745 14679705 14710929 14744486 
2578.557 14780343 14818156 14857516 14898079 14939333 14980967 15022949 
2581.932 15065963 15111041 15159588 15212842 15271217 15334267 15400450 
2585.307 15467262 15532573 15594356 15651682 15704583 15753850 15800718 
2588.683 15846249 15891304 15936501 15982151 16028423 16075147 16122222 
2592.058 16169162 16215146 16259586 16302034 16342390 16381338 16419565 
2595.433 16458176 16497891 16539367 16582703 16627939 16675245 16724931 
2598.808 16777448 16833484 16893144 16956498 17023274 17093026 17165268 
2602.184 17239762 17316582 17395760 17477814 17563060 17651704 17744126 
2605.559 17840540 17940946 18045210 18152744 18262588 18373426 18484154 
2608.934 18593804 18701720 18807376 18910394 19009904 19104626 19192476 
2612.309 19271580 19340238 19397264 19442308 19476024 19499244 19513106 
2615.685 19518408 19515602 19505064 19486872 19461296 19428968 19390750 
2619.060 19347964 19302272 19255718 19210104 19167438 19129106 19095832 
2622.435 19067616 19043692 19023058 19004436 18987300 18971482 18957742 
2625.810 18947116 18940538 18939154 18942926 18952028 18966186 18985052 
2629.186 19008312 19035800 19067476 19102688 19140740 19181048 19223126 
2632.561 19266836 19312906 19361996 19414968 19472144 19533380 19598162 
2635.936 19665274 19733856 19803454 19873998 19945976 20019668 20095626 
2639.311 20173472 20252686 20332194 20411018 20488122 20562844 20635006 
2642.687 20704608 20772136 20838008 20902808 20967100 21031260 21095534 
2646.062 21160306 21225574 21291686 21358856 21427180 21496806 21568252 
2649.437 21641836 21717904 21797054 21879838 21966720 22058044 22153710 
2652.812 22253586 22357074 22463486 22572608 22684134 22798446 22916318 
2656.188 23038170 23164668 23295922 23431692 23571388 23714348 23859702 
2659.563 24006994 24155596 24305268 24455796 24606866 24758518 24910746 
2662.938 25063556 25216910 25370706 25524768 25678776 25832596 25986046 
2666.313 26139268 26292864 26447216 26603174 26760596 26919664 27079988 
2669.688 27241396 27404134 27568590 27735546 27905748 28079690 28257276 
2673.064 28437834 28620202 28802752 28983892 29161848 29335018 29502018 
2676.439 29661632 29813140 29957034 30094584 30227738 30359296 30492034 
2679.814 30628152 30769472 30917028 31071752 31234826 31407368 31591308 
2683.189 31788192 31999260 32224916 32464758 32717484 32981548 33255898 
2686.565 33539366 33831472 34131916 34440348 34756072 35078632 35407292 
2689.940 35741888 36082464 36429220 36782416 37142432 37509360 37883176 
2693.315 38264084 38652348 39048540 39453148 39866376 40287852 40716432 
2696.690 41150612 41588904 42029756 42472556 42916684 43362260 43809312 
2700.066 44257748 44707308 45157296 45607236 46055872 46502060 46943912 
2703.441 47379596 47806500 48221988 48623300 49007960 49373472 49717188 
2706.816 50036968 50330308 50595028 50829104 51031040 51199696 51334260 
2710.191 51434284 51499716 51530756 51528108 51492776 51426116 51329748 
2713.567 51204692 51051760 50870712 50661076 50422252 50153616 49855452 
2716.942 49528716 49174760 48795440 48392704 47969028 47527024 47070108 
2720.317 46601904 46126796 45649744 45175272 44707308 44249272 43804072 
2723.692 43373460 42959260 42562848 42185572 41828828 41493776 41181608 
2727.068 40893548 40630524 40393292 40182944 39999872 39844152 39715784 
2730.443 39614284 39538424 39487364 39459788 39454272 39469296 39503952 
2733.818 39556720 39626876 39713392 39815680 39932808 40064076 40207516 
2737.193 40361184 40522296 40687760 40854740 41020364 41182484 41339160 
2740.569 41489076 41630948 41763928 41887136 42000560 42104844 42200940 
2743.944 42290816 42376140 42458564 42538952 42618332 42697472 42777244 
2747.319 42858496 42942584 43030012 43120860 43214148 43308328 43401768 
2750.694 43493464 43583492 43673288 43765776 43863856 43971120 44090188 
2754.070 44223080 44371208 44535532 44716564 44914828 45130276 45362784 
2757.445 45610916 45873216 46146880 46428824 46715496 47002648 47285668 
2760.820 47559888 47820112 48061656 48280452 48472792 48636124 48768560 
2764.195 48868592 48935232 48968424 48968572 48937156 48876820 48790988 
2767.571 48683784 48559080 48420672 48271600 48114884 47952968 47787860 
2770.946 47622148 47458532 47299188 47146256 47001796 46867056 46742908 
2774.321 46629976 46527764 46435540 46351472 46273104 46197440 46121200 
2777.696 46040952 45953172 45854508 45741992 45612244 45462880 45291616 
2781.072 45097412 44880032 44641168 44383388 44110028 43825368 43533604 
2784.447 43238816 42944556 42654412 42371176 42096812 41832552 41578840 
2787.822 41335116 41100452 40873996 40654972 40443296 40239172 40043180 
2791.197 39855952 39677664 39508596 39348480 39197088 39053836 38918348 
2794.573 38789568 38666224 38546316 38427892 38308196 38185312 38057440 
2797.948 37923672 37783512 37636748 37483172 37322392 37154020 36977560 
2801.323 36792444 36598464 36395420 36183508 35963016 35734264 35498216 
2804.698 35256012 35009132 34759588 34509832 34261868 34017952 33780292 
2808.073 33550464 33330090 33120632 32923032 32738350 32566852 32408666 
2811.449 32263528 32131392 32012172 31906068 31813436 31734366 31668744 
2814.824 31616036 31575270 31545450 31525850 31516340 31517730 31530984 
2818.199 31557706 31598896 31655166 31726844 31813364 31914700 32030824 
2821.574 32161504 32307144 32467686 32642930 32831538 33032172 33242770 
2824.950 33460982 33684140 33909204 34132920 34351260 34560452 34756536 
2828.325 34935796 35095300 35232688 35346112 35434436 35496780 35532484 
2831.700 35541800 35525508 35485308 35423576 35343600 35248720 35142292 
2835.075 35027520 34907000 34782704 34656260 34528164 34398812 34268104 
2838.451 34135500 34000464 33862744 33722276 33579744 33436220 33292708 
2841.826 33150598 33010792 32873924 32740064 32609210 32481286 32356188 
2845.201 32234338 32116622 32003894 31896904 31796358 31703000 31616606 
2848.576 31537644 31465572 31400208 31341550 31289126 31242980 31203354 
2851.952 31170316 31144258 31125606 31114856 31112540 31118700 31133686 
2855.327 31157252 31189432 31229878 31277806 31332254 31391408 31453390 
2858.702 31515092 31573598 31625658 31668354 31699542 31718038 31723316 
2862.077 31715936 31696976 31667962 31630364 31585962 31536434 31483636 
2865.453 31429450 31376130 31325522 31280082 31241308 31211186 31191072 
2868.828 31182242 31185802 31202464 31232406 31274956 31328476 31390626 
2872.203 31458304 31528558 31599146 31668962 31738252 31808514 31882070 
2875.578 31961918 32050158 32148876 32259174 32381318 32514926 32658790 
2878.954 32811706 32971538 33136222 33304154 33473938 33645008 33817612 
2882.329 33992220 34169016 34347924 34527516 34706144 34881112 35050004 
2885.704 35211200 35363976 35508356 35645048 35774700 35897944 36014964 
2889.079 36125780 36230324 36329024 36422408 36511672 36598536 36684340 
2892.455 36771020 36860100 36953640 37053440 37161528 37279320 37408516 
2895.830 37549532 37701868 37863800 38032012 38201052 38364404 38514020 
2899.205 38641412 38739028 38801304 38824712 38809784 38759532 38679552 
2902.580 38575644 38454644 38321620 38180576 38034548 37885456 37735080 
2905.956 37584756 37436400 37291556 37151600 37017968 36891484 36773220 
2909.331 36663352 36561696 36467596 36379208 36294620 36211092 36126176 
2912.706 36038144 35946100 35850152 35750812 35648648 35544136 35436880 
2916.081 35325948 35210232 35088692 34960932 34827648 34690352 34551628 
2919.457 34414164 34281192 34155000 34037836 33931096 33835164 33750100 
2922.832 33674692 33607168 33545238 33485786 33425804 33362184 33292100 
2926.207 33213868 33126534 33030276 32926322 32816600 32703764 32590314 
2929.582 32479290 32373324 32275238 32187876 32114376 32057580 32020376 
2932.958 32005108 32013382 32046378 32104526 32187660 32295436 32427516 
2936.333 32582674 32759714 32956168 33169196 33395066 33629756 33869656 
2939.708 34111344 34352732 34591704 34827040 35057116 35279264 35490092 
2943.083 35685012 35857996 36002544 36111448 36177852 36196108 36162224 
2946.458 36075300 35937680 35755344 35537448 35294788 35039300 34782024 
2949.834 34531248 34292988 34069660 33861136 33665096 33478628 33298322 
2953.209 33121560 32946586 32772542 32599460 32427196 32256428 32087404 
2956.584 31920120 31754826 31591628 31430840 31273176 31119624 30970862 
2959.959 30827840 30690806 30559786 30434278 30313568 30197118 30084818 
2963.335 29976810 29873830 29776838 29686926 29604908 29531808 29467974 
2966.710 29413688 29368980 29333530 29306058 29284790 29267208 29250304 
2970.085 29230882 29205896 29172974 29130808 29079078 29018534 28950668 
2973.460 28877466 28801832 28727062 28655806 28590758 28533150 28482304 
2976.836 28434722 28384490 28322984 28239878 28125220 27970340 27769950 
2980.211 27522484 27231270 26903800 26549844 26181392 25810548 25447888 
2983.586 25102346 24780722 24487240 24224540 23993968 23796416 23632786 
2986.961 23504228 23411618 23355042 23332002 23336442 23357282 23379310 
2990.337 23383330 23348820 23257816 23097954 22864660 22562906 22206400 
2993.712 21815448 21411586 21016236 20646020 20310422 20012972 19751610 
2997.087 19521494 19316128 19130248 18959956 18803050 18658378 18524920 
3000.462 18401564 18286364 18177240 18071736 17967846 17864430 17760936 
3003.838 17657742 17555642 17455806 17359064 17266380 17178470 17095300 
3007.213 17017108 16943614 16874782 16810510 16750759 16695663 16645359 
3010.588 16599813 16559022 16522432 16489564 16459657 16432092 16406249 
3013.963 16381543 16357873 16335027 16313249 16293090 16275272 16260928 
3017.339 16250951 16246103 16246550 16251778 16260583 16270971 16280672 
3020.714 16287450 16289100 16284112 16271178 16249955 16220236 16182747 
3024.089 16138831 16090311 16039563 15989266 15942071 15899930 15864326 
3027.464 15835630 15813328 15796147 15782472 15770273 15757801 15743474 
3030.840 15725849 15704446 15678717 15648555 15614448 15576737 15535938 
3034.215 15492808 15448034 15402888 15358604 15316968 15279659 15248463 
3037.590 15224304 15207455 15197607 15193592 15193661 15196440 15200661 
3040.965 15205602 15211161 15217441 15224922 15233947 15244894 15257626 
3044.341 15271972 15287141 15302174 15316075 15327745 15336567 15342711 
3047.716 15346899 15350057 15353592 15358295 15364302 15371305 15378240 
3051.091 15384006 15387714 15389087 15388160 15385139 15379922 15372266 
3054.466 15361452 15346453 15326853 15302861 15275404 15246199 15217201 
3057.842 15190161 15166211 15145967 15129327 15115638 15104283 15094333 
3061.217 15085208 15076392 15067508 15058246 15048710 15039448 15031078 
3064.592 15024458 15020033 15018215 15018833 15021440 15025418 15030598 
3067.967 15036704 15044353 15054198 15066719 15082052 15100200 15120339 
3071.343 15141233 15162025 15181411 15199048 15214765 15228765 15241977 
3074.718 15255499 15270634 15288480 15309759 15334748 15362895 15393103 
3078.093 15423555 15452361 15477906 15499092 15515643 15528246 15538410 
3081.468 15547614 15557608 15569696 15584292 15601259 15619497 15637770 
3084.844 15654601 15668789 15679987 15688645 15695481 15701938 15709497 
3088.219 15719254 15732102 15748249 15767731 15790271 15815390 15842743 
3091.594 15871715 15901787 15932273 15962867 15993048 16022511 16051527 
3094.969 16080478 16109843 16140172 16172087 16205722 16241010 16277989 
3098.344 16315831 16353916 16391454 16427653 16461825 16493591 16523430 
3101.720 16552344 16581567 16612412 16646186 16683199 16723381 16765876 
3105.095 16809306 16852462 16894314 16934140 16971900 17007942 17042640 
3108.470 17076654 17110464 17144552 17179330 17215148 17252106 17289930 
3111.845 17328652 17367204 17405382 17442492 17477988 17511724 17543844 
3115.221 17574894 17605600 17636864 17669716 17705022 17743402 17784960 
3118.596 17828940 17874478 17919848 17963770 18005282 18044172 18081064 
3121.971 18117092 18153366 18190992 18230036 18269914 18309518 18347952 
3125.346 18384384 18418848 18452312 18485778 18520770 18558254 18598544 
3128.722 18641394 18686152 18732230 18779108 18826372 18874126 18922404 
3132.097 18971204 19020152 19068620 19115878 19161378 19204908 19246434 
3135.472 19286440 19325620 19364870 19404748 19445738 19488328 19532306 
3138.847 19577850 19624750 19672072 19719744 19767040 19813408 19858910 
3142.223 19903932 19949028 19995482 20044162 20095626 20150078 20206830 
3145.598 20265148 20324032 20382716 20440748 20498544 20556486 20615130 
3148.973 20674584 20734774 20795008 20854936 20914214 20972592 21030426 
3152.348 21088092 21145904 21204386 21263536 21323182 21383392 21444204 
3155.724 21505824 21568462 21632258 21697074 21762982 21829526 21896322 
3159.099 21963234 22030156 22097264 22164660 22232554 22301124 22370786 
3162.474 22441886 22514956 22590340 22668424 22749178 22832426 22917470 
3165.849 23003512 23089532 23174768 23258410 23339938 23418788 23494644 
3169.225 23567190 23636776 23703466 23767752 23829878 23890088 23948240 
3172.600 24004262 24057982 24109220 24158050 24204782 24249310 24291496 
3175.975 24330848 24366664 24398276 24425860 24450292 24473252 24497126 
3179.350 24524120 24555710 24592316 24633272 24676724 24720950 24764586 
3182.726 24806612 24847344 24888080 24929976 24974474 25022348 25073666 
3186.101 25127904 25183938 25240754 25297576 25353952 25409944 25466158 
3189.476 25523290 25581590 25641446 25702258 25763432 25824544 25884888 
3192.851 25944890 26005008 26066150 26128994 26193674 26259986 26327082 
3196.227 26394222 26460880 26527020 26593452 26660738 26729658 26800280 
3199.602 26872286 26944588 27016056 27085668 27152924 27217830 27280980 
3202.977 27342762 27404308 27466076 27528978 27593658 27660110 27728484 
3206.352 27798066 27868050 27937372 28005292 28071668 28136922 28201656 
3209.728 28266718 28332212 28398038 28463342 28527380 28590084 28651984 
3213.103 28714460 28778960 28846694 28917944 28991896 29067208 29142216 
3216.478 29215818 29287838 29358736 29429288 29500386 29571992 29644000 
3219.853 29715736 29786880 29857326 29927464 29998288 30070152 30143558 
3223.229 30218786 30295412 30373510 30452758 30533194 30614500 30696318 
3226.604 30778008 30858788 30938552 31017158 31095562 31174480 31255052 
3229.979 31337346 31421650 31507146 31593266 31679616 31766198 31853226 
3233.354 31941018 32029544 32118336 32206788 32294258 32380786 32466900 
3236.729 32553460 32641288 32731026 32822676 32915774 33010218 33106148 
3240.105 33204068 33305012 33409704 33517926 33628788 33740468 33850924 
3243.480 33958828 34063784 34166504 34268644 34372024 34477724 34586072 
3246.855 34696812 34809200 34922976 35037684 35154004 35272328 35392984 
3250.230 35516052 35641456 35768548 35896576 36025332 36154048 36281904 
3253.606 36408536 36533188 36655352 36775204 36893068 37010032 37126660 
3256.981 37243688 37360920 37478476 37595812 37712708 37829200 37945440 
3260.356 38061780 38178080 38293756 38407872 38519556 38627796 38732472 
3263.731 38833552 38931176 39025416 39116372 39203760 39287972 39369120 
3267.107 39448176 39526340 39604372 39682492 39760228 39836268 39909052 
3270.482 39977672 40041512 40101028 40156812 40209880 40260876 40310212 
3273.857 40358096 40404824 40450896 40497124 40544376 40592724 40641836 
3277.232 40690560 40737396 40780956 40820196 40855248 40886812 40915828 
3280.608 40943752 40971716 41000300 41030268 41061844 41095172 41130212 
3283.983 41166236 41202264 41237352 41270328 41300532 41327900 41352752 
3287.358 41375716 41397912 41419816 41441648 41463596 41485248 41506612 
3290.733 41527756 41548828 41570236 41592804 41617384 41644804 41676024 
3294.109 41711840 41752072 41795884 41841600 41886952 41929756 41968184 
3297.484 42001580 42030448 42056076 42079984 42103640 42127408 42151540 
3300.859 42175276 42198752 42222344 42247172 42274968 42307580 42346008 
3304.234 42390464 42440076 42493052 42547136 42600676 42652544 42702256 
3307.610 42750920 42800024 42851220 42906336 42966648 43032208 43102528 
3310.985 43176596 43253272 43331396 43411176 43493096 43578476 43668780 
3314.360 43764676 43866604 43974092 44085936 44201144 44318804 44438220 
3317.735 44559216 44681488 44804864 44928864 45053412 45178032 45302760 
3321.111 45428116 45554424 45682024 45810880 45940688 46070796 46200388 
3324.486 46328764 46455412 46579696 46700920 46818300 46931324 47039424 
3327.861 47142860 47242036 47337504 47429928 47519152 47603884 47682824 
3331.236 47753720 47815196 47865800 47905164 47933284 47950784 47957928 
3334.612 47955300 47943460 47923184 47895436 47861620 47822888 47779388 
3337.987 47731456 47678352 47619080 47552604 47478488 47396220 47305988 
3341.362 47207536 47101056 46986512 46863956 46733980 46597364 46454820 
3344.737 46307164 46154432 45996416 45832676 45663108 45488120 45309052 
3348.113 45127700 44945696 44764348 44583960 44403756 44222568 44039360 
3351.488 43853592 43665668 43476432 43286804 43097884 42910212 42724228 
3354.863 42540084 42358132 42178704 42002272 41828936 41658408 41490424 
3358.238 41324400 41160188 40998300 40839304 40684012 40532696 40384928 
3361.614 40239468 40095320 39951664 39808484 39667028 39528808 39395384 
3364.989 39267880 39146176 39029220 38915336 38803152 38691504 38580608 
3368.364 38471004 38362736 38256740 38152464 38049156 37946052 37842504 
3371.739 37738152 37633208 37528580 37424984 37323004 37223072 37124820 
3375.115 37028144 36931812 36835180 36737376 36637688 36535564 36431132 
3378.490 36324660 36216600 36107672 35998404 35888588 35778116 35666128 
3381.865 35551684 35434184 35312868 35187880 35059956 34930160 34800008 
3385.240 34671152 34544952 34422016 34302672 34186472 34072848 33961156 
3388.615 33850888 33742044 33634768 33529128 33425088 33322294 33220306 
3391.991 33118308 33016260 32914526 32813494 32713804 32615568 32517996 
3395.366 32419770 32319564 32216102 32109414 32000438 31891484 31784378 
3398.741 31680684 31580474 31482920 31385924 31287632 31186978 31083852 
3402.116 30979224 30874584 30771250 30669860 30570344 30471844 30373368 
3405.492 30273882 30172788 30069940 29965128 29858212 29749264 29638394 
3408.867 29526134 29413120 29300174 29187964 29076598 28965756 28854342 
3412.242 28741824 28627634 28511848 28395456 28279872 28166194 28055480 
3415.617 27948078 27843706 27741586 27640866 27540064 27438332 27334402 
3418.993 27227602 27117406 27004174 26888714 26772544 26657358 26544524 
3422.368 26435174 26329334 26227146 26127550 26030160 25934092 25838996 
3425.743 25744200 25648794 25551930 25452842 25351246 25247392 25142474 
3429.118 25037898 24934958 24834502 24736560 24640566 24545612 24450994 
3432.494 24356606 24263044 24171256 24082568 23997504 23916100 23837894 
3435.869 23762152 23687614 23613648 23539870 23465580 23390568 23314382 
3439.244 23236598 23156628 23074298 22989850 22903884 22817164 22730812 
3442.619 22645698 22562314 22480444 22399322 22317378 22232870 22143948 
3445.995 22049432 21948980 21843426 21734730 21625538 21518358 21414892 
3449.370 21316360 21222582 21132998 21046458 20961640 20877500 20792886 
3452.745 20707214 20619334 20528868 20435676 20340110 20243522 20147614 
3456.120 20053636 19963148 19876564 19793396 19712324 19631960 19550502 
3459.496 19466704 19379976 19289906 19197186 19102688 19007482 18913092 
3462.871 18820766 18731228 18644852 18561020 18478864 18396862 18314426 
3466.246 18230832 18146594 18062480 17979104 17897128 17816270 17735842 
3469.621 17655500 17574686 17493372 17412176 17331754 17251830 17172196 
3472.997 17091438 17008838 16923598 16835998 16747074 16658753 16572410 
3476.372 16489528 16410585 16334958 16261719 16190004 16118715 16046990 
3479.747 15974622 15900860 15825253 15747940 15669303 15589925 15511282 
3483.122 15434541 15360320 15289064 15219740 15151354 15082910 15013242 
3486.498 14942385 14870442 14797861 14724880 14651841 14577823 14502926 
3489.873 14427356 14351218 14275881 14202576 14132468 14066271 14004261 
3493.248 13945954 13890631 13837163 13784214 13730554 13675054 13616620 
3496.623 13555460 13492120 13428107 13365435 13305984 13251085 13200837 
3499.999 13154250 13108999 13062593 13012640 12957470 12897290 12833536 
3503.374 12769004 12707076 12651092 12603030 12564248 12533553 12508112 
3506.749 12484309 12458156 12426036 12386351 12339203 12286846 12232586 
3510.124 12180275 12132639 12090970 12054994 12023245 11994292 11966668 
3513.500 11939353 11912448 11885921 11859768 11833311 11806038 11777338 
3516.875 11746766 11714564 11681206 11647305 11613375 11579344 11545009 
3520.250 11509521 11472437 11433654 11393311 11352019 11310595 11269549 
3523.625 11228914 11188420 11146706 11102106 11052310 10995079 10928646 
3527.000 10852438 10767414 10675784 10581356 10487761 10398091 10314547 
3530.376 10237022 10164668 10095987 10029218 9963306 9897301 9830596 9762511 
3534.233 9692132 9618683 9541757 9462068 9381074 9301279 9225695 9156046 
3538.091 9093312 9037217 8986373 8938848 8893122 8847704 8802190 8756310 
3541.948 8710096 8663277 8615079 8564419 8509744 8449602 8382882 8309248 
3545.805 8229346 8145610 8061856 7982269 7910997 7850568 7801549 7761811 
3549.663 7727339 7693342 7655199 7610383 7558424 7500808 7440367 7380070 
3553.520 7322107 7267184 7215434 7166520 7120004 7076253 7035370 6997251 
3557.378 6961392 6926411 6890826 6853360 6813810 6773254 6733812 6698142 
3561.235 6668566 6646898 6633642 6628663 6630009 6634820 6639059 6637040 
3565.093 6622910 6591051 6537196 6460948 6366120 6260320 6153438 6054913 
3568.950 5970957 5904348 5853936 5815854 5786068 5760012 5734495 5707300 
3572.807 5677724 5645364 5610623 5574140 5536921 5499604 5463131 5428102 
3576.665 5394653 5362582 5331386 5300091 5268329 5235597 5201995 5168429 
3580.522 5135537 5104894 5078443 5057725 5044149 5038618 5040830 5048875 
3584.380 5059100 5066374 5064463 5047870 5012473 4958008 4887365 4808157 
3588.237 4729935 4661272 4608291 4573432 4554715 4547281 4545072 4542025 
3592.094 4533554 4516914 4491603 4459565 4423313 4385556 4348105 4311158 
3595.952 4274248 4235735 4195587 4153167 4109313 4065163 4021786 3979918 
3599.809 3940027 3901945 3866206 3833312 3804298 3781201 3765793 3759744 
3603.667 3763955 3778427 3801189 3828699 3855944 3876236 3883223 3872258 
3607.524 3841736 3794137 3736316 3677834 3626778 3588723 3563968 3548701 
3611.382 3536575 3521376 3499363 3470505 3438977 3410356 3390319 3381503 
3615.239 3382839 3389785 3395228 3392123 3373890 3336893 3280868 3209897 
3619.096 3131428 3054275 2987711 2937937 2906947 2893505 2893271 2901777 
3622.954 2915053 2931932 2953716 2983807 3024311 3075064 3130427 3179656 
3626.811 3207260 3196746 3136634 3026714 2882364 2730694 2601808 2515451 
3630.669 2475228 2471662 2489157 2511685 2526715 2528215 2516017 2495122 
3634.526 2471895 2452368 2439440 2432609 2429177 2425279 2418648 2407753 
3638.384 2393226 2376302 2358711 2341921 2326364 2313040 2302647 2296651 
3642.241 2297217 2306411 2326531 2358112 2400290 2450602 2504153 2555411 
3646.098 2597742 2624976 2631809 2614975 2573609 2509319 2426312 2331361 
3649.956 2233833 2144385 2073699 2029389 2015008 2028557 2063412 2109058 
3653.813 2153143 2184112 2192304 2173522 2130267 2071635 2010381 1958123 
3657.671 1922045 1902975 1897251 1898649 1901611 1901943 1898116 1890695 
3661.528 1882209 1875653 1873191 1876818 1887001 1903840 1927037 1956226 
3665.385 1991408 2032152 2077595 2125306 2170459 2206591 2225973 2223043 
3669.243 2197432 2157805 2121377 2108858 2138192 2217414 2342787 2500621 
3673.100 2670380 2829300 2952581 3019473 3019207 2955250 2845042 2711422 
3676.958 2573176 2439306 2311474 2188141 2069638 1959720 1865171 1792035 
3680.815 1743229 1716716 1707335 1708433 1715652 1728359 1748985 1781289 
3684.673 1826639 1882475 1941049 1992440 2024529 2028257 2000329 1944510 
3688.530 1871294 1794298 1725332 1670912 1633062 1609582 1598142 1596412 
3692.387 1602764 1615269 1631565 1647663 1659936 1665324 1662863 1654182 
3696.245 1643672 1636887 1638450 1650856 1672941 1700350 1726263 1742963 
3700.102 1744760 1728958 1696957 1655013 1611877 1576825 1557006 1555775 
3703.960 1572967 1605392 1648095 1696624 1747122 1796727 1843775 1887367 
3707.817 1926172 1958323 1981156 1991142 1984684 1959321 1915255 1855388 
3711.675 1786978 1719477 1662298 1623184 1605525 1608617 1627840 1656710 
3715.532 1688442 1716916 1738439 1751513 1757701 1759564 1760762 1763955 
3719.389 1769678 1777197 1784782 1790405 1793166 1793765 1793998 1795828 
3723.247 1800919 1808738 1817056 1822180 1820516 1809969 1791802 1770576 
3727.104 1753742 1749151 1762525 1795595 1845538 1905604 1966610 2020301 
3730.962 2060549 2085885 2099535 2107526 2115151 2122709 2125206 2113985 
3734.819 2081124 2023364 1945908 1861844 1788076 1737774 1717381 1725764 
3738.677 1757801 1807240 1869896 1944111 2028424 2119146 2208023 2280296 
3742.534 2316237 2297117 2213051 2074332 1913591 1778062 1704907 1706570 
3746.391 1771574 1873856 1985716 2081390 2143919 2165064 2146317 2096239 
3750.249 2026227 1946873 1864872 1785514 1714454 1659271 1627541 1623683 
3754.106 1647297 1692367 1749051 1807640 1858949 1896985 1919216 1925639 
3757.964 1917585 1896253 1863774 1823211 1780124 1743362 1720841 1719045 
3761.821 1738572 1774502 1817122 1855055 1879380 1885737 1876519 1859148 
3765.678 1843675 1838018 1844241 1858649 1873457 1880445 1872891 1849465 
3769.536 1813163 1771374 1732218 1701880 1683818 1677864 1681556 1691834 
3773.393 1705572 1720808 1736676 1753443 1771607 1791802 1813163 1833560 
3777.251 1849199 1855654 1849531 1829833 1800253 1767681 1740701 1726396 
3781.108 1727794 1742797 1765120 1786679 1800553 1802715 1793300 1776032 
3784.966 1756171 1739304 1727827 1722039 1720109 1719976 1719777 1719078 
3788.823 1718446 1718446 1719843 1723269 1729291 1739637 1756171 1780757 
3792.680 1813862 1853724 1895554 1933227 1960486 1973500 1972568 1963249 
3796.538 1954894 1956925 1975297 2009316 2052559 2092810 2115384 2107992 
3800.395 2064011 1987613 1893790 1807041 1750016 1735012 1761360 1817089 
3804.253 1884572 1943578 1977128 1974465 1934658 1866868 1788941 1721739 
3808.110 1678795 1664759 1675137 1701581 1735478 1772206 1810701 1853591 
3811.968 1903541 1960519 2020002 2072701 2107393 2112953 2084952 2028557 
3815.825 1960686 1904173 1878848 1894522 1947838 2024296 2103065 2163399 
3819.682 2187209 2164265 2097105 2001594 1903641 1827071 1787244 1786213 
3823.540 1815692 1861577 1909098 1947272 1969206 1974299 1967376 1956459 
3827.397 1949602 1952132 1965279 1986215 2010149 2031753 2047233 2055389 
3831.255 2058418 2060615 2067440 2083654 2111388 2149846 2194569 2239295 
3835.112 2276099 2297717 2298883 2278231 2239162 2188175 2135129 2088581 
3838.969 2054024 2032485 2021533 2017172 2015008 2011846 2005987 1996567 
3842.827 1983885 1968774 1952498 1937321 1926205 1922477 1929067 1947838 
3846.684 1978992 2022299 2076030 2139124 2211220 2291654 2379200 2469329 
3850.542 2553045 2615675 2639243 2604642 2500154 2331294 2125406 1924241 
3854.399 1767316 1676400 1650290 1674139 1727661 1793632 1859913 1919848 
3858.257 1971037 2013777 2049297 2078294 2101267 2118580 2130534 2137493 
3862.114 2139524 2135761 2124840 2106261 2081257 2055356 2036979 2035115 
3865.971 2055988 2099535 2158171 2218347 2264442 2281762 2262210 2208789 
3869.829 2135695 2064344 2013011 1990542 1994171 2013178 2033584 2044536 
3873.686 2042073 2028990 2014309 2008417 2019436 2049496 2095107 2148115 
3877.544 2198898 2238130 2258679 2257314 2235698 2201096 2163765 2135662 
3881.401 2126438 2139624 2172357 2215483 2256714 2282095 2280696 2248588 
3885.259 2191671 2124907 2067574 2037046 2041274 2077794 2135229 2198698 
3889.116 2252751 2284460 2286958 2260345 2212152 2153709 2098403 2056288 
3892.973 2033217 2030022 2044869 2074099 2114052 2160735 2210754 2260311 
3896.831 2305545 2343020 2369905 2384431 2386963 2379467 2365841 2349783 
3900.688 2334059 2319569 2305078 2287957 2265108 2235865 2201495 2165896 
3904.546 2135029 2114352 2106993 2112853 2128936 2150579 2172324 2190306 
3908.403 2201895 2206924 2206091 2201296 2194369 2187508 2182314 2180915 
3912.260 2185411 2197066 2216282 2241727 2269871 2295552 2314172 2321501 
3916.118 2316371 2300315 2277798 2254183 2234433 2221644 2216415 2218480 
3919.975 2226440 2239495 2256848 2277598 2300615 2323433 2342887 2355780 
3923.833 2360344 2356513 2346385 2334093 2323632 2318536 2319768 2326597 
3927.690 2337257 2348850 2359178 2366840 2371105 2371471 2367640 2359078 
3931.548 2345519 2327663 2306644 2284959 2265074 2249054 2238496 2233334 
3935.405 2232401 2234666 2238729 2243825 2250020 2257614 2266940 2278198 
3939.262 2290788 2303379 2314339 2321734 2323899 2320135 2310441 2296085 
3943.120 2279264 2262943 2249354 2240594 2237297 2238862 2243758 2249953 
3946.977 2255415 2258646 2259279 2257580 2254483 2251185 2248621 2247289 
3950.835 2246922 2247389 2247955 2248155 2247455 2245723 2242792 2238862 
3954.692 2234166 2229703 2226073 2224108 2224275 2226573 2230736 2236198 
3958.550 2242160 2248421 2254616 2260345 2265940 2271036 2275433 2278764 
3962.407 2281229 2282594 2283594 2284726 2286625 2289589 2293653 2298783 
3966.264 2304712 2311707 2319469 2328063 2337157 2345719 2352781 2356879 
3970.122 2357412 2354280 2348684 2342221 2337624 2336191 2339523 2347384 
3973.979 2358145 2369672 2379733 2386496 2388829 2387130 2382532 2376668 
3977.837 2371438 2368239 2367906 2370305 2374702 2380066 2385364 2389761 
3981.694 2392760 2394559 2395159 2394559 2392760 2389561 2385031 2379600 
3985.552 2374436 2370605 2369572 2372037 2377934 2386197 2394892 2402555 
3989.409 2407820 2410418 2410952 2411118 2411851 2414283 2417849 2421680 
3993.266 2424012 2423946 2420214 2413217 2403888 2393260 2382898 2373636 
3997.124 2366207 2360710 2357079 2355013 2354181 2354414 2355147 2356313 
##END=
