
##TITLE=mdmaHCL00394_6
##JCAMP-DX=5.01  $$ Nicolet v. 1
##DATATYPE=INFRARED SPECTRUM
##ORIGIN=UniL
##OWNER=Nicolet
##LONGDATE=2011/08/24
##TIME=09:13:00
##SPECTROMETER/DATA SYSTEM=Nicolet iS5
##DATA PROCESSING=
Ratio against background
%Transmittance->Absorbance
Truncated
ElementMultiply or ElementDivide
##COMMENTS=
Number of sample scans: 32
Collection length: 51.20 sec
Sample gain: 2.0
Background collected on: Mer Aout 24 09:11:24 2011 (GMT+02:00);
Number of background scans: 32
Background gain: 2.0
Sample spacing:  1.000
Number of scan points: 12415
Resolution points: 8192
Number of FFT points: 65536
Apodization: N-B fort;
Phase correction: Mertz;
Laser frequency: 15798.0 cm-1
Number of rejected sample scans: 0
Number of rejected background scans: 0
Bench serial number: ASB1000141;
##RESOLUTION=4.000
##XUNITS=1/CM
##YUNITS=ABSORBANCE
##FIRSTX=649.893372
##LASTX=4000.122314
##FIRSTY=0.071231
##MAXX=4000.122314
##MINX=649.893372
##MAXY=0.246630
##MINY=0.000722
##XFACTOR=1.000000
##YFACTOR=1.000000E-009
##NPOINTS=6950
##DELTAX=0.482117
##ZPD=6100
##XYDATA=(X++(Y..Y))
649.893 71231456 71259336 71352536 71537600 71819400 72181976 72599288 
653.268 73049824 73527184 74039144 74599080 75212248 75870000 76551560 
656.643 77236120 77916016 78604848 79335656 80146064 81062536 82091760 
660.018 83220256 84427264 85698624 87035208 88452352 89967272 91584768 
663.393 93292136 95060568 96860232 98671672 100480096 102266936 103985000 
666.767 105527464 106738096 107451576 107574944 107137920 106262896 
669.660 105084840 103689064 102107624 100339936 98383288 96261440 94030912 
673.035 91762784 89532656 87391440 85358832 83434736 81612400 79891624 
676.410 78284240 76806536 75468928 74268760 73188856 72203072 71285528 
679.785 70420192 69600560 68827968 68106088 67434632 66808844 66222504 
683.159 65669872 65150700 64669372 64231524 63840360 63494192 63185656 
686.534 62905148 62644944 62400664 62171776 61959860 61763900 61578220 
689.909 61392472 61193600 60969924 60714196 60424348 60102460 59752560 
693.284 59378404 58982704 58568672 58141776 57709964 57284060 56874476 
696.659 56489128 56131720 55801660 55495680 55210532 54944788 54699012 
700.034 54475160 54274776 54097148 53939816 53798856 53670500 53551364 
703.408 53440168 53335444 53234980 53135512 53032728 52922380 52803488 
706.783 52679204 52556972 52447564 52362180 52309888 52296212 52324168 
710.158 52397132 52523280 52719040 53008100 53416896 53966192 54656620 
713.533 55459536 56307612 57106296 57742620 58106432 58122344 57760716 
716.908 57051164 56072864 54950052 53828108 52841880 52116068 51741860 
720.282 51768288 52202112 52997992 54059208 55228928 56314936 57115516 
723.657 57440720 57169264 56269372 54814288 52960744 50918136 48904820 
727.032 47085436 45561272 44361372 43458048 42792020 42297208 41922164 
730.407 41628324 41392188 41198332 41032928 40884228 40744820 40612840 
733.782 40492436 40389764 40308028 40243940 40188032 40128536 40057168 
737.156 39973208 39883376 39797448 39723120 39660932 39604916 39545756 
740.531 39476808 39398868 39320220 39253696 39208656 39188132 39186932 
743.906 39195492 39204592 39211156 39218992 39235820 39268932 39319492 
747.281 39381892 39447016 39506564 39556864 39600524 39643832 39691352 
750.656 39742836 39792184 39829952 39849636 39850652 39839320 39825516 
754.031 39818256 39821380 39832672 39846800 39860060 39874368 39897284 
757.405 39938076 40003832 40095144 40206608 40330936 40463152 40604580 
760.780 40761888 40943280 41152540 41386612 41637660 41898520 42170052 
764.155 42465540 42807448 43225016 43744852 44384600 45154208 46056760 
767.530 47090268 48246348 49506208 50839052 52204056 53571380 54947156 
770.905 56405664 58092272 60206732 62951408 66431992 70579824 75077448 
774.279 79403192 82861984 84754016 84605504 82268160 78008680 72394328 
777.654 66189820 60135720 54779104 50461700 47272956 45119356 43796816 
781.029 43080172 42779332 42750336 42908752 43204596 43603936 44083364 
784.404 44627800 45233736 45910852 46678192 47555968 48557116 49686872 
787.779 50946228 52340352 53886472 55615648 57566980 59784272 62306956 
791.154 65168752 68405688 72058944 76175872 80806552 85983152 91698152 
794.528 97875992 104367496 110939072 117270784 123009592 127771992 131185696 
797.903 132965016 132931488 131068736 127528744 122627808 116797096 
800.796 110488856 104162304 98195320 92840280 88235552 84388512 81209072 
804.171 78540880 76216344 74098328 72102176 70215112 68482496 66984088 
807.546 65792188 64945444 64424908 64155312 64012648 63849456 63536072 
810.920 62971636 62105408 60936904 59503520 57866400 56091340 54246800 
814.295 52393508 50581588 48856316 47252196 45792764 44492472 43354860 
817.670 42375632 41545988 40857396 40303268 39879744 39585028 39416464 
821.045 39370248 39441972 39629056 39934264 40367584 40947176 41696228 
824.420 42636388 43783072 45136524 46677936 48360852 50111592 51832348 
827.794 53395992 54670264 55532728 55887832 55696628 54985512 53849112 
831.169 52426180 50884908 49396528 48097008 47085396 46407992 46057900 
834.544 45980612 46081956 46249812 46356120 46283500 45947756 45303536 
837.919 44360452 43174876 41842768 40472248 39162168 37991440 37002852 
841.294 36206948 35589844 35125764 34785648 34543912 34382352 34286212 
844.669 34243332 34243796 34279328 34344948 34439376 34563932 34719568 
848.043 34905164 35117180 35350712 35602860 35874984 36172988 36505184 
851.418 36879904 37300328 37764680 38266544 38799096 39358200 39945088 
854.793 40564928 41226020 41936504 42702956 43532248 44433560 45420096 
858.168 46511060 47730868 49103892 50655936 52410664 54388436 56608056 
861.543 59081128 61804888 64748944 67845280 70980624 73987208 76670488 
864.917 78824288 80252800 80817368 80446440 79153000 77029312 74238800 
868.292 70994632 67512152 64004012 60648508 57568832 54846244 52516064 
871.667 50578648 49011264 47778352 46841072 46158524 45692628 45408768 
875.042 45272572 45254144 45329020 45478812 45694872 45976048 46326628 
878.417 46751692 47253972 47830400 48473940 49173796 49918748 50700432 
881.792 51512736 52352016 53214980 54095948 54985216 55869032 56728032 
885.166 57541104 58288664 58955988 59540188 60052424 60521348 60986660 
888.541 61493656 62085336 62789380 63614668 64548568 65562352 66615664 
891.916 67664528 68670560 69598688 70417968 71101592 71621752 71951632 
895.291 72068488 71954016 71598544 71002864 70179208 69151032 67953672 
898.666 66635980 65254272 63869028 62542192 61323628 60250280 59342468 
902.040 58603940 58025988 57593764 57292380 57109772 57038320 57073232 
905.415 57210308 57444388 57769532 58180416 58674288 59251656 59916464 
908.790 60673120 61524084 62469488 63507648 64636184 65855264 67167760 
912.165 68578048 70090104 71705184 73421232 75236168 77151656 79177856 
915.540 81335760 83654184 86168208 88912240 91913344 95188432 98739136 
918.914 102547712 106566720 110713688 114869296 118865952 122515816 
921.807 125636784 128078760 129773872 130757224 131183192 131294712 
924.700 131406576 131868200 132985440 135009392 138089888 142248928 
927.593 147367456 153170848 159265792 165107936 170068112 173528608 
930.485 174896864 173746656 169893504 163423840 154705520 144317248 
933.378 132999896 121490528 110443984 100397840 91684856 84474032 78797272 
936.753 74584800 71715624 70051136 69467752 69848528 71073064 73005408 
940.128 75452920 78160896 80839832 83159584 84819136 85602376 85397704 
943.502 84231440 82248656 79693496 76841976 73955736 71258048 68890016 
946.877 66921076 65360404 64175516 63313940 62718444 62340724 62140772 
950.252 62086100 62151740 62314908 62555736 62859184 63213708 63613012 
953.627 64053968 64535224 65054588 65608248 66190668 66796012 67419616 
957.002 68057992 68709720 69373240 70046816 70727984 71413456 72101624 
960.377 72792920 73490416 74198904 74922248 75661824 76415704 77179640 
963.751 77948408 78718264 79488576 80261208 81038928 81823488 82614960 
967.126 83411328 84211256 85014544 85824088 86645296 87483624 88342944 
970.501 89224352 90126312 91046936 91986064 92946640 93933704 94952896 
973.876 96007968 97098792 98222696 99376168 100557064 101767272 103010600 
977.251 104291952 105613312 106972104 108361480 109770848 111189728 
980.143 112608664 114018416 115409688 116770040 118083528 119334016 
983.036 120507848 121598056 122606944 123544360 124424752 125261456 
985.929 126065032 126842320 127598304 128339992 129077344 129822344 
988.821 130588008 131383296 132213000 133077536 133976728 134911600 
991.714 135886768 136908240 137980672 139104096 140272448 141475760 
994.607 142703440 143949152 145211856 146495056 147802592 149134304 
997.500 150484448 151842608 153198336 154545536 155885024 157223808 
1000.392 158571008 159932464 161310224 162702240 164106752 165526560 
1003.285 166970464 168451616 169983424 171573856 173223424 174926944 
1006.178 176678352 178475312 180321744 182225856 184194928 186229728 
1009.070 188322000 190454624 192606624 194760832 196903792 199026736 
1011.963 201121872 203176240 205172400 207091728 208919488 210651952 
1014.856 212297168 213872048 215392896 216868752 218297520 219668160 
1017.748 220966624 222182544 223313120 224361536 225331680 226224736 
1020.641 227039248 227776192 228445808 229074880 229705472 230385136 
1023.534 231160144 232061408 233099856 234268624 235549040 236918848 
1026.427 238352864 239823168 241293440 242709792 244007280 245112368 
1029.320 245952144 246470640 246630064 246410224 245804928 244815744 
1032.213 243451328 241729728 239684816 237366624 234831248 232135328 
1035.106 229316704 226386224 223326352 220098592 216659088 212966720 
1037.999 208997664 204747248 200230240 195479248 190545312 185501760 
1040.892 180433472 175437552 170610528 166025776 161729264 157730144 
1043.785 154004336 150505072 147178576 143981232 140885184 137883760 
1046.678 134986240 132212952 129587504 127130792 124860944 122790392 
1049.571 120924320 119260528 117788008 116487152 115330600 114289872 
1052.464 113338088 112453624 111622888 110837264 110090512 109375808 
1055.357 108683168 107999496 107312400 106608952 105878088 105110552 
1058.250 104294952 103418560 102469128 101436016 100315432 99112328 97841912 
1061.626 96525128 95185216 93845024 92522200 91230856 89982600 88786816 
1065.001 87652416 86586000 85589904 84660664 83788496 82960480 82162728 
1068.376 81384352 80620416 79871472 79143224 78442824 77778832 77159336 
1071.751 76591592 76083560 75643008 75276784 74989784 74783720 74656248 
1075.127 74601480 74611160 74674464 74777496 74903544 75029984 75128296 
1078.502 75169384 75124712 74974384 74713112 74351672 73916608 73443056 
1081.877 72973104 72547008 72198800 71959416 71853680 71903024 72127800 
1085.252 72546232 73174424 74027600 75117032 76450240 78027672 79838264 
1088.628 81852296 84011984 86234552 88405200 90387960 92053560 93286064 
1092.003 94011288 94210544 93922800 93239944 92284656 91206944 90153184 
1095.378 89247384 88591952 88249920 88246392 88571304 89183904 90017984 
1098.753 90983408 91982504 92909136 93655104 94128144 94250672 93971952 
1102.129 93277112 92186656 90756304 89062352 87197872 85256112 83315816 
1105.504 81444856 79691944 78087280 76648392 75379800 74276736 73325744 
1108.879 72507664 71799112 71173288 70604072 70066400 69535408 68989896 
1112.254 68409296 67775128 67073636 66297144 65445916 64529232 63564644 
1115.630 62575212 61584484 60616236 59690020 58820368 58018116 57290148 
1119.005 56640328 56070228 55579684 55166284 54825904 54552432 54337400 
1122.380 54167824 54026336 53888272 53721452 53491024 53160600 52699592 
1125.755 52091636 51336608 50453436 49474092 48441600 47400324 46387752 
1129.131 45432972 44552936 43752912 43029536 42373808 41774068 41216908 
1132.506 40690124 40182800 39686596 39197052 38713744 38241000 37785428 
1135.881 37355760 36960276 36605676 36296240 36034980 35822880 35660408 
1139.256 35547660 35483616 35466504 35493540 35560964 35665084 35802908 
1142.632 35972196 36171516 36399600 36654484 36933256 37232568 37548484 
1146.007 37877320 38215056 38557032 38896856 39227224 39539260 39825012 
1149.382 40078936 40298940 40487228 40648824 40791040 40921652 41047532 
1152.757 41175744 41312484 41463996 41635832 41832440 42055964 42305028 
1156.133 42575644 42861496 43154344 43446516 43730376 43997744 44240692 
1159.508 44450188 44616456 44730520 44784256 44771036 44687072 44529220 
1162.883 44296164 43987764 43605364 43153176 42637668 42068632 41457472 
1166.258 40815460 40153976 39482360 38808480 38140200 37484868 36850544 
1169.634 36245776 35677820 35152600 34673124 34240212 33852856 33510088 
1173.009 33212222 32961138 32760430 32613854 32524888 32495748 32527424 
1176.384 32620606 32776400 32996848 33284906 33644292 34078264 34590984 
1179.759 35186912 35871672 36653148 37539668 38540308 39663396 40914916 
1183.135 42300020 43823460 45489444 47302736 49266348 51379012 53631356 
1186.510 56003540 58465548 60973544 63472940 65901964 68185784 70245144 
1189.885 72001376 73377680 74316680 74786192 74786240 74348960 73534560 
1193.260 72424032 71099792 69641320 68114232 66561012 65004320 63448252 
1196.635 61885196 60302508 58690708 57049388 55389140 53731728 52105384 
1200.011 50543020 49074956 47725208 46511060 45440476 44514092 43725904 
1203.386 43066084 42521520 42076372 41713516 41413512 41155016 40918048 
1206.761 40684120 40438716 40173492 39885120 39575156 39247532 38908016 
1210.136 38562396 38216464 37877032 37552388 37252460 36989212 36775492 
1213.512 36623736 36545980 36552540 36651892 36851300 37156112 37569836 
1216.887 38093972 38728560 39472380 40324572 41285484 42356744 43541116 
1220.262 44840904 46257516 47790636 49440080 51206480 53093348 55107036 
1223.637 57255972 59547752 61986232 64569176 67287168 70123016 73049472 
1227.013 76030432 79017408 81945040 84738912 87312352 89572680 91437104 
1230.388 92831992 93704056 94027496 93806936 93083328 91930296 90461776 
1233.763 88819584 87154616 85631504 84401592 83592280 83314736 83650600 
1237.138 84657280 86374048 88820560 91997568 95881760 100424512 105542752 
1240.514 111111752 116981408 122963808 128842864 134401952 139409424 
1243.407 143644544 146925792 149111504 150127744 149973424 148718224 
1246.300 146489568 143449712 139796192 135732976 131456672 127156912 
1249.193 122980032 119019024 115302168 111786496 108368376 104899608 
1252.086 101233792 97246744 92869248 88104600 83025824 77764400 72473400 
1255.461 67319248 62447340 57959004 53916368 50334472 47192240 44442516 
1258.836 42026728 39886060 37963700 36214404 34604440 33109154 31713798 
1262.212 30409792 29191366 28053924 26991834 25997934 25065626 24189122 
1265.587 23365776 22595714 21881058 21223870 20624582 20081260 19590362 
1268.962 19148428 18753990 18407856 18112636 17871302 17684902 17552158 
1272.337 17469156 17431318 17434250 17474882 17550778 17658674 17793970 
1275.713 17950062 18119304 18294106 18468078 18636206 18794020 18936974 
1279.088 19059618 19156496 19224028 19261674 19272274 19260602 19230538 
1282.463 19182642 19112140 19009768 18865924 18673872 18433922 18154404 
1285.838 17850102 17540426 17243004 16972554 16739119 16548246 16401982 
1289.214 16300693 16243109 16225360 16241321 16283562 16343903 16416434 
1292.589 16499097 16593101 16701791 16828970 16976310 17142828 17326238 
1295.964 17524144 17736394 17965118 18214348 18488200 18789696 19120312 
1299.339 19480530 19871048 20292922 20747044 21231524 21739676 22259026 
1302.715 22771212 23255056 23691428 24064146 24364000 24587966 24738348 
1306.090 24821696 24847344 24828960 24782160 24724704 24675356 24649122 
1309.465 24655820 24698468 24774058 24875062 24993216 25122180 25257366 
1312.840 25396280 25536574 25674524 25805378 25924278 26027204 26111752 
1316.216 26176924 26221516 26243056 26237424 26200044 26128220 26023546 
1319.591 25892624 25746344 25596562 25454458 25326904 25218244 25131028 
1322.966 25068928 25038108 25048462 25109998 25234152 25430392 25706232 
1326.341 26068262 26522018 27069162 27705668 28416468 29174426 29938328 
1329.717 30661220 31297922 31811402 32182914 32412272 32517462 32527034 
1333.092 32474470 32393634 32312140 32252252 32232016 32263420 32355330 
1336.467 32512892 32738026 33031706 33395928 33835128 34357284 34971456 
1339.842 35684004 36496064 37400500 38382752 39420348 40485668 41545880 
1343.218 42559816 43482876 44267360 44866840 45247084 45388316 45288196 
1346.593 44959324 44424900 43712456 42847456 41853784 40753444 39567788 
1349.968 38323140 37050660 35784200 34560452 33411562 32360830 31423572 
1353.343 30605860 29907728 29326760 28858874 28498722 28237828 28065022 
1356.719 27966278 27927476 27938432 27993206 28089694 28227892 28405786 
1360.094 28618362 28859266 29123296 29412128 29735604 30112766 30565616 
1363.469 31112150 31764414 32525316 33392314 34360260 35422104 36565700 
1366.844 37766200 38982856 40154884 41202372 42044356 42604664 42826136 
1370.219 42680216 42166000 41310300 40159356 38781884 37263288 35694724 
1373.595 34176972 32800772 31631324 30703394 30016430 29546030 29257712 
1376.970 29124110 29133854 29295742 29635592 30192216 31014204 32149802 
1380.345 33644972 35531336 37809212 40425552 43253272 46102848 48716884 
1383.720 50813760 52145060 52503464 51772764 49948488 47162880 43680396 
1387.096 39848328 36052296 32601532 29679404 27345270 25557132 24222822 
1390.471 23234502 22499460 21943752 21511984 21168516 20889564 20662874 
1393.846 20485622 20361568 20296430 20293966 20353130 20468220 20631254 
1397.221 20833174 21064684 21316152 21575948 21831928 22073802 22294916 
1400.597 22493982 22673208 22836548 22987720 23129090 23263340 23395080 
1403.972 23532596 23687578 23872234 24096436 24363826 24671954 25014030 
1407.347 25382930 25774436 26187904 26625334 27089546 27581300 28099238 
1410.722 28640766 29203628 29785992 30384882 30992282 31592410 32162398 
1414.098 32674364 33106652 33449426 33709636 33908132 34076216 34248136 
1417.473 34453188 34716192 35056936 35488112 36018236 36647060 37364100 
1420.848 38150076 38981408 39837176 40703952 41583760 42495536 43472732 
1424.223 44551320 45756312 47093928 48550076 50098988 51712260 53369464 
1427.599 55053848 56748040 58428816 60059656 61594144 62988184 64209932 
1430.974 65253308 66139348 66914044 67635064 68357792 69132840 70002160 
1434.349 71007312 72201424 73652248 75435024 77615096 80210792 83183616 
1437.724 86453680 89923824 93496856 97067552 100520896 103700672 106414632 
1441.100 108475296 109707848 109996424 109303904 107664688 105172472 
1443.993 101952144 98155320 93932792 89419384 84747928 80041680 75431440 
1447.368 71073496 67127344 63730104 60962640 58827084 57260700 56166864 
1450.743 55458484 55076040 54994500 55212036 55728268 56528188 57584120 
1454.118 58857248 60315032 61944080 63742504 65710924 67827648 70039968 
1457.494 72268568 74439016 76512040 78479744 80354808 82155880 83899992 
1460.869 85596680 87241856 88818528 90285896 91574672 92603056 93286968 
1464.244 93577336 93487408 93100416 92540968 91923872 91333432 90807960 
1467.619 90352104 89955048 89599520 89262280 88902888 88454424 87818768 
1470.995 86871832 85506096 83677728 81449824 78980528 76464024 74056912 
1474.370 71835976 69817752 67996840 66379948 65004596 63929916 63207268 
1477.745 62865780 62899248 63277484 63964076 64935716 66191712 67751384 
1481.120 69642056 71883048 74476544 77407272 80652248 84192504 88025256 
1484.496 92159200 96599160 101330272 106284224 111313528 116200896 120643256 
1487.871 124281720 126764056 127770352 127099184 124734016 120873112 
1490.764 115898000 110258888 104386840 98583232 92998520 87680760 82603136 
1494.139 77720616 73020576 68537856 64363500 60624312 57435540 54861920 
1497.514 52899884 51498036 50580396 50074892 49928860 50103708 50570348 
1500.890 51301856 52266276 53425592 54738700 56150160 57591380 58976480 
1504.265 60173432 61006068 61255824 60695524 59193400 56809100 53803956 
1507.640 50510120 47186036 43954584 40834428 37806392 34860500 32008496 
1511.015 29295318 26780366 24511850 22520818 20810094 19359776 18138892 
1514.391 17112910 16249646 15517050 14886421 14335944 13853856 13442665 
1517.766 13113302 12876334 12731949 12664909 12645191 12638573 12618652 
1521.141 12583382 12557972 12583144 12689711 12882478 13142912 13440512 
1524.516 13749876 14057271 14367417 14698076 15072105 15503452 15992567 
1527.892 16528420 17097712 17692632 18314150 18970962 19673770 20429288 
1531.267 21237786 22092416 22981152 23892468 24818048 25755134 26701294 
1534.642 27654072 28605374 29542838 30448316 31300984 32082052 32769326 
1538.017 33343080 33785376 34082168 34223324 34206764 34045184 33765720 
1541.393 33404156 32994882 32557528 32092114 31580508 31000184 30336484 
1544.768 29597814 28816312 28038090 27302608 26624416 25991288 25371372 
1548.143 24730912 24049540 23334450 22618124 21947376 21357774 20860186 
1551.518 20439218 20065366 19711318 19364280 19031644 18735724 18500476 
1554.894 18336166 18232662 18159930 18076364 17929758 17661502 17217458 
1558.269 16568143 15744986 14848293 14006520 13308478 12776136 12384646 
1561.644 12089266 11845331 11613476 11366236 11090311 10790036 10485420 
1565.019 10203676 9969679 9792740 9665875 9568854 9478899 9376774 9254430 
1568.877 9116794 8979438 8861468 8776866 8732204 8726897 8757154 8818354 
1572.734 8904316 9006702 9111448 9201632 9261641 9283980 9277989 9270407 
1576.592 9296539 9381717 9532816 9741399 9992768 10275901 10587670 10933267 
1580.449 11323212 11767635 12272530 12837289 13454900 14114565 14800329 
1583.824 15491640 16162766 16780066 17307374 17713236 17975480 18089940 
1587.199 18072150 17958938 17801082 17657500 17590834 17653808 17888702 
1590.575 18323170 18965530 19801720 20788752 21858480 22913558 23839118 
1593.950 24527066 24881658 24844256 24404410 23601368 22516212 21249688 
1597.325 19911530 18594946 17368342 16280087 15355240 14602940 14019866 
1600.700 13594329 13310015 13149708 13100941 13156572 13314526 13574877 
1604.076 13935587 14389268 14922529 15513926 16135324 16754134 17329306 
1607.451 17815512 18168428 18346050 18318988 18074706 17620888 16986544 
1610.826 16217966 15377484 14526154 13716430 12984338 12343124 11788436 
1614.201 11304031 10870105 10468109 10087408 9729913 9408160 9141157 8944801 
1618.059 8826536 8782648 8801582 8865966 8956369 9054843 9145048 9217436 
1621.916 9271016 9313465 9357847 9416930 9498270 9601575 9721509 9851202 
1625.774 9986428 10125562 10268031 10413296 10558948 10701661 10839428 
1629.149 10973806 11110264 11256185 11417496 11596052 11787858 11983085 
1632.524 12168212 12329419 12452222 12525403 12542591 12505248 12424945 
1635.899 12322772 12223077 12143849 12092810 12067224 12056902 12048011 
1639.275 12026311 11982370 11912789 11823062 11724128 11629778 11549671 
1642.650 11486113 11432940 11377528 11304031 11197328 11047179 10852302 
1646.025 10622473 10378136 10145742 9952253 9815920 9744788 9736655 9781217 
1649.883 9861134 9951473 10020740 10027590 9929743 9704567 9377891 9031330 
1653.740 8755837 8600952 8557424 8586250 8645600 8706444 8753707 8782783 
1657.597 8796442 8799553 8796612 8788463 8772843 8744882 8699920 8634378 
1661.455 8546982 8440312 8320562 8198247 8085417 7994048 7932492 7903271 
1665.312 7902494 7920615 7944708 7959152 7949939 7907523 7829482 7721841 
1669.170 7597604 7473064 7362277 7273990 7211223 7172146 7151127 7138899 
1673.027 7123540 7090836 7026985 6925535 6792606 6648513 6518830 6424831 
1676.885 6372576 6354453 6353814 6353444 6342483 6319420 6292525 6274204 
1680.742 6274405 6293231 6318075 6323689 6280759 6164998 5973879 5735569 
1684.599 5501685 5318807 5205114 5151195 5133961 5130877 5124707 5106201 
1688.457 5072743 5025344 4967761 4905259 4845582 4797035 4767621 4762395 
1692.314 4779781 4811038 4839618 4845079 4808995 4723437 4599786 4469843 
1696.172 4372838 4332944 4350146 4401388 4453607 4469809 4421137 4297739 
1700.029 4120519 3937218 3796610 3725822 3720308 3758173 3813289 3864468 
1703.886 3897632 3905723 3889608 3856478 3818303 3786282 3767832 3765426 
1707.744 3776923 3797613 3822348 3847586 3872124 3897599 3926920 3963266 
1711.601 4008309 4061952 4121790 4185282 4249889 4313835 4375950 4433321 
1715.459 4479719 4505999 4501814 4460972 4387062 4295363 4208869 4147313 
1719.316 4121254 4129717 4163270 4209036 4255042 4293489 4320729 4337696 
1723.174 4347368 4353794 4359350 4365575 4373038 4382544 4395062 4410894 
1727.031 4428668 4445439 4456754 4459365 4453272 4442393 4433422 4432284 
1730.888 4439681 4448686 4443564 4402024 4304766 4144135 3936015 3718436 
1734.746 3536909 3421477 3374725 3380068 3411859 3447526 3468568 3464860 
1738.603 3434702 3384609 3326108 3271788 3231294 3208362 3202120 3208896 
1742.461 3224418 3244847 3267748 3292286 3319096 3350149 3387214 3431462 
1746.318 3482262 3537176 3591830 3641579 3682011 3710015 3724051 3723482 
1750.176 3709313 3683715 3651236 3618692 3593668 3581975 3585917 3602922 
1754.033 3625341 3641680 3640978 3614382 3560360 3485401 3402642 3327109 
1757.890 3268249 3227455 3198581 3171278 3134198 3079835 3006795 2920123 
1761.748 2829567 2745765 2677981 2630676 2604675 2597375 2604609 2620809 
1765.605 2638776 2651511 2653878 2643777 2624842 2605009 2593409 2595709 
1769.463 2611175 2631576 2645244 2639510 2608108 2554978 2494389 2445071 
1773.320 2421080 2427278 2458466 2505020 2557444 2610342 2662379 2715456 
1777.177 2770940 2827933 2882397 2928363 2961122 2979270 2986477 2989479 
1781.035 2995852 3009798 3030884 3054175 3073862 3084574 3084774 3076765 
1784.892 3065587 3056510 3054008 3060114 3075064 3098523 3129926 3167841 
1788.750 3209530 3249154 3279433 3291719 3278999 3238772 3175851 3101092 
1792.607 3027181 2965659 2921391 2892771 2874459 2860351 2845742 2828533 
1796.465 2808557 2785713 2760570 2732794 2701686 2667113 2630409 2593309 
1800.322 2558378 2527449 2501287 2479526 2461765 2447737 2438074 2433709 
1804.179 2435241 2442872 2455834 2472895 2493389 2517417 2545346 2577309 
1808.037 2612342 2647511 2678915 2702920 2716890 2721791 2720524 2718557 
1811.894 2720324 2729260 2746232 2770140 2799019 2830668 2863853 2897674 
1815.752 2931098 2963223 2993049 3019807 3043530 3065487 3086910 3109302 
1819.609 3133497 3159196 3185330 3210732 3234132 3254595 3270653 3280601 
1823.467 3282404 3275059 3260070 3242110 3228323 3225920 3238972 3266246 
1827.324 3301167 3333120 3350482 3346275 3319731 3279233 3238071 3210832 
1831.181 3206192 3225219 3262207 3308446 3356192 3400671 3440947 3478955 
1835.039 3517267 3557453 3599848 3644019 3689797 3739324 3796777 3866674 
1838.896 3953234 4058105 4179863 4314270 4455816 4598681 4737003 4866322 
1842.754 4983647 5088935 5185598 5280604 5382710 5498967 5631635 5777942 
1846.611 5930412 6079408 6215077 6331389 6425436 6498448 6553644 6593507 
1850.469 6618570 6626644 6614230 6578469 6519200 6439190 6343391 6236925 
1854.326 6123058 6002602 5874960 5739263 5596358 5449676 5303781 5162729 
1858.183 5028528 4900836 4777436 4656483 4537605 4423145 4316579 4220679 
1862.041 4136608 4063624 3999714 3943972 3897699 3863465 3844009 3839229 
1865.898 3845046 3853436 3854740 3841168 3810950 3768902 3725621 3691902 
1869.756 3675629 3678268 3695244 3719138 3743835 3764858 3780500 3791296 
1873.613 3797446 3798549 3793836 3782773 3765793 3744571 3721544 3697383 
1877.470 3671519 3641045 3602421 3553344 3494219 3428089 3359431 3292453 
1881.328 3228724 3167407 3106198 3043063 2978803 2916988 2862519 2820162 
1885.185 2791616 2774308 2762737 2750433 2732594 2707587 2677381 2645677 
1889.043 2617609 2597875 2589009 2592842 2610475 2641643 2684649 2735795 
1892.900 2789314 2838138 2876827 2902377 2916654 2924860 2933833 2949646 
1896.758 2974599 3007429 3044465 3082505 3119113 3154690 3190971 3229258 
1900.615 3269718 3310850 3350716 3387715 3422545 3456444 3491314 3527222 
1904.472 3562264 3592833 3615652 3628916 3633694 3633326 3631622 3630954 
1908.330 3631055 3630186 3625575 3616053 3602655 3588088 3575026 3564970 
1912.187 3556318 3546663 3533936 3518002 3501000 3486337 3475482 3466965 
1916.045 3455809 3435203 3400003 3350850 3293722 3239473 3197547 3172480 
1919.902 3160598 3153889 3141374 3115743 3075230 3024945 2973332 2928529 
1923.760 2894572 2869923 2849811 2829567 2807489 2785713 2768873 2760403 
1927.617 2761670 2769773 2779410 2786213 2787781 2784446 2778677 2772541 
1931.474 2765438 2755401 2740230 2719390 2695385 2673547 2657912 2650144 
1935.332 2647677 2644110 2633043 2612009 2583409 2554511 2533681 2526049 
1939.189 2531081 2543179 2553445 2554511 2544513 2526682 2508386 2496355 
1943.047 2493023 2496288 2501521 2504187 2503687 2503687 2509652 2526049 
1946.904 2553912 2589409 2626209 2659312 2685716 2706287 2723692 2739630 
1950.761 2752867 2760703 2759136 2746832 2727259 2707354 2694218 2693784 
1954.619 2706120 2725959 2745431 2757235 2757836 2748299 2733094 2715423 
1958.476 2697718 2679015 2656378 2628576 2596375 2563177 2533781 2511518 
1962.334 2497155 2488291 2482859 2479360 2478693 2482859 2493756 2509486 
1966.191 2527149 2540813 2547412 2547612 2546712 2550678 2563977 2585342 
1970.049 2607475 2621576 2620709 2603308 2574609 2543846 2519317 2504620 
1973.906 2498921 2496922 2495622 2497455 2509585 2541580 2600308 2681915 
1977.763 2774775 2861018 2924960 2958920 2965592 2953182 2932232 2910216 
1981.621 2887567 2860150 2824631 2780144 2730193 2683349 2646644 2624742 
1985.478 2618175 2623009 2635876 2656411 2686049 2728326 2783946 2847643 
1989.336 2908648 2956351 2981939 2985142 2974533 2964157 2968261 2994450 
1993.193 3041228 3099758 3158796 3208896 3246650 3274292 3296360 3317193 
1997.051 3338362 3358730 3376127 3390686 3403610 3418271 3435837 3454340 
2000.908 3467532 3468033 3450465 3414497 3366343 3316626 3273824 3243479 
2004.765 3223817 3208128 3188468 3159830 3122184 3080503 3040694 3006094 
2008.623 2975734 2946176 2912818 2874559 2834570 2799085 2773408 2760570 
2012.480 2758369 2761970 2767139 2772641 2780044 2793216 2814659 2842440 
2016.338 2872091 2898208 2918422 2936569 2960955 3000622 3060481 3138270 
2020.195 3223149 3302235 3363772 3402742 3423080 3433934 3443819 3458314 
2024.052 3476684 3493117 3502336 3502436 3495489 3487072 3482796 3483564 
2027.910 3485869 3485335 3477886 3464827 3453137 3450365 3463558 3494119 
2031.767 3536141 3580538 3620396 3652338 3680741 3712855 3755700 3811618 
2035.625 3878275 3948887 4016636 4079645 4139552 4200672 4267824 4341177 
2039.482 4416216 4486916 4545641 4587965 4614219 4627179 4630997 4628251 
2043.340 4619845 4604976 4584281 4559369 4534659 4515240 4505765 4507472 
2047.197 4519927 4539882 4564358 4590845 4617601 4640876 4657554 4663014 
2051.054 4653971 4630963 4598748 4564827 4539112 4528933 4536065 4555518 
2054.912 4578422 4594093 4595700 4581770 4557193 4528866 4504158 4486548 
2058.769 4475668 4469106 4464085 4459867 4458461 4462444 4473592 4491302 
2062.627 4512494 4533118 4550630 4565028 4577618 4591347 4607957 4625404 
2066.484 4640675 4649651 4649885 4642383 4631231 4620481 4614051 4612712 
2070.342 4614453 4616664 4617367 4616697 4616731 4619878 4626408 4634111 
2074.199 4638431 4634312 4618572 4592251 4559101 4525652 4498031 4478948 
2078.056 4468504 4464319 4462110 4458996 4453372 4444702 4433388 4420200 
2081.914 4405773 4391615 4380201 4374678 4377758 4391313 4413605 4440585 
2085.771 4467164 4488155 4500441 4504359 4501446 4494215 4484338 4471584 
2089.629 4454578 4433053 4407882 4382477 4361391 4348239 4344356 4348172 
2093.486 4355333 4361760 4364939 4365307 4364470 4365575 4369357 4374277 
2097.344 4376888 4373942 4363466 4347034 4328359 4311292 4298743 4291816 
2101.201 4288871 4288905 4291716 4299747 4316178 4343888 4383147 4430710 
2105.058 4481526 4530373 4573968 4612946 4650421 4690344 4735294 4784706 
2108.916 4834860 4881401 4920641 4951104 4975235 4996987 5019780 5046428 
2112.773 5077068 5110325 5145059 5180534 5216683 5254444 5293886 5334136 
2116.631 5373719 5411763 5447730 5483330 5521014 5562695 5608710 5657817 
2120.488 5707133 5753700 5795638 5832678 5866026 5897530 5926919 5952817 
2124.345 5972872 5984125 5986175 5980128 5969244 5957050 5946166 5936223 
2128.203 5925273 5910326 5889166 5860585 5827103 5791642 5757930 5729828 
2132.060 5709013 5696792 5693670 5698941 5710926 5727343 5743627 5755177 
2135.918 5758736 5753197 5740706 5726504 5715828 5712135 5715492 5722442 
2139.775 5727310 5725430 5715391 5697867 5677321 5657683 5640832 5626298 
2143.633 5611093 5592028 5568132 5540948 5513933 5490511 5473029 5459205 
2147.490 5445079 5425921 5397941 5359295 5310891 5254109 5190862 5122729 
2151.347 5051691 4980095 4912331 4852149 4801457 4759681 4722164 4681937 
2155.205 4635082 4581770 4529938 4494013 4491403 4533721 4623964 4752613 
2159.062 4900903 5048540 5178791 5282080 5357316 5407569 5435752 5446354 
2162.920 5443502 5431658 5418305 5411293 5416057 5434141 5461620 5489672 
2166.777 5508195 5510745 5495309 5466754 5434309 5405691 5387272 5381268 
2170.635 5384522 5393982 5407200 5422197 5438738 5456956 5474706 5488934 
2174.492 5496853 5496685 5488430 5474975 5458030 5438100 5413675 5380831 
2178.349 5336920 5283053 5223926 5168396 5126551 5105732 5108615 5133257 
2182.207 5172420 5219433 5269134 5318137 5364629 5407301 5443234 5469170 
2186.064 5483296 5487021 5483364 5479773 5482860 5495981 5519135 5548297 
2189.922 5577697 5603038 5623042 5639087 5654125 5671111 5689373 5706864 
2193.779 5721301 5730970 5737080 5743124 5752088 5765250 5780998 5794866 
2197.636 5801750 5799131 5787311 5770387 5753566 5741747 5736308 5737046 
2201.494 5740908 5745474 5750443 5757125 5766694 5779857 5794463 5806015 
2205.351 5810984 5807223 5796075 5782408 5772234 5769917 5777237 5792851 
2209.209 5812193 5831536 5848495 5862432 5874053 5885103 5895077 5903172 
2213.066 5908378 5910528 5911468 5915297 5924870 5942404 5967531 5996656 
2216.924 6025851 6052024 6073326 6090362 6105012 6118185 6129476 6138046 
2220.781 6141944 6140768 6136298 6130854 6127494 6128603 6133442 6139928 
2224.638 6145674 6148699 6148329 6146548 6144632 6143154 6142314 6139323 
2228.496 6132467 6121311 6106962 6092042 6079542 6070941 6065531 6061028 
2232.353 6054846 6044363 6029883 6013320 5997731 5986040 5980397 5981068 
2236.211 5988358 6002435 6023936 6053468 6091505 6135559 6181802 6225429 
2240.068 6261867 6287919 6303854 6311452 6314310 6315554 6317537 6321370 
2243.926 6327657 6336566 6348804 6365414 6386395 6410471 6435760 6459099 
2247.783 6477495 6490241 6497977 6502047 6504636 6506957 6508807 6509884 
2251.640 6510085 6510119 6512204 6519066 6532352 6552500 6577628 6604407 
2255.498 6629605 6650565 6666177 6676439 6682160 6683438 6679804 6670989 
2259.355 6656689 6638420 6619176 6601883 6589739 6584491 6586039 6593137 
2263.213 6604776 6620420 6640405 6665874 6696999 6732836 6771066 6808222 
2267.070 6841006 6867497 6886955 6900016 6908264 6912573 6913819 6912472 
2270.927 6908972 6904528 6901397 6901026 6904561 6912203 6922539 6933884 
2274.785 6945331 6956408 6967654 6979977 6993480 7006982 7018768 7027052 
2278.642 7030318 7029510 7026513 7024055 7024762 7029274 7036784 7045910 
2282.500 7054733 7062883 7070797 7079991 7091106 7104578 7119262 7133779 
2286.357 7146242 7156853 7166015 7175346 7186496 7200645 7217793 7237333 
2290.215 7258626 7280998 7305023 7330970 7359142 7389170 7419976 7449940 
2294.072 7478323 7505055 7531149 7558121 7587724 7620398 7655739 7692566 
2297.929 7729093 7764206 7796793 7826378 7852694 7875367 7893586 7907219 
2301.787 7916161 7921154 7923449 7924732 7926149 7928409 7931919 7936610 
2305.644 7943257 7953246 7968163 7989526 8017977 8052438 8090818 8130215 
2309.502 8167927 8202096 8232723 8260279 8285877 8311004 8336032 8361162 
2313.359 8386463 8412035 8438623 8467475 8499303 8534479 8573070 8613862 
2317.217 8655402 8696912 8737107 8775649 8813079 8849700 8886256 8923695 
2321.074 8961849 8999836 9035829 9066516 9088372 9098759 9096695 9083466 
2324.931 9063402 9042630 9027339 9022738 9031161 9051967 9081741 9115339 
2328.789 9147925 9175709 9197198 9212461 9223123 9231449 9239504 9249590 
2332.646 9263739 9283338 9309504 9342037 9379685 9419707 9459393 9496069 
2336.504 9528548 9557473 9584537 9612145 9641889 9673870 9706533 9737807 
2340.361 9765561 9788265 9805651 9817954 9825037 9825681 9817344 9796738 
2344.219 9761088 9709514 9644464 9572105 9502503 9446424 9414898 9416964 
2348.076 9457767 9538743 9657405 9807820 9981376 10167449 10355740 10537119 
2351.933 10705465 10857943 10995283 11120020 11234355 11340795 11440764 
2355.309 11534870 11624639 11711738 11798140 11885069 11972663 12059594 
2358.684 12143577 12223247 12297343 12366815 12433572 12498359 12561485 
2362.059 12621653 12676132 12722771 12760405 12789513 12811625 12829064 
2365.434 12842853 12852920 12857937 12855856 12844866 12823672 12791287 
2368.810 12746859 12689608 12618720 12534440 12438482 12334771 12228326 
2372.185 12125211 12030807 11948379 11879246 11823471 11779857 11748196 
2375.560 11729099 11723550 11733116 11758647 11799944 11856295 11926854 
2378.935 12010948 12108721 12220657 12346771 12485844 12635673 12792550 
2382.311 12951907 13109717 13262665 13407636 13542914 13666231 13775287 
2385.686 13868258 13943251 13999641 14037866 14059358 14065930 14059358 
2389.061 14041048 14011687 13971890 13922312 13863811 13797622 13724843 
2392.436 13645887 13561237 13470827 13374832 13274519 13172420 13071778 
2395.812 12976281 12889372 12813264 12749657 12699468 12662929 12640961 
2399.187 12634241 12643417 12668661 12709498 12764944 12833433 12914084 
2402.562 13005778 13108453 13222219 13347223 13483439 13630912 13789413 
2405.937 13958785 14139280 14330431 14531773 14742360 14960699 15185563 
2409.313 15416242 15652334 15893882 16141376 16393932 16649904 16906922 
2412.688 17161236 17408900 17645974 17868298 18071874 18252704 18406956 
2416.063 18531214 18623996 18685600 18718116 18725934 18713654 18685358 
2419.438 18644266 18592420 18530590 18459400 18380200 18294312 18203810 
2422.813 18110562 18015886 17920952 17826800 17734702 17647252 17567786 
2426.189 17500272 17448772 17416558 17405486 17416764 17450704 17507516 
2429.564 17587246 17690044 17815580 17962666 18129910 18315808 18518626 
2432.939 18737870 18972728 19222884 19487494 19765202 20054122 20352750 
2436.314 20660302 20977288 21305536 21647652 22006350 22383832 22781372 
2439.690 23199618 23638944 24099554 24581620 25085040 25609144 26152500 
2443.065 26713520 27290754 27883630 28492422 29118476 29762786 30425712 
2446.440 31106456 31802848 32511782 33229962 33954348 34682132 35411248 
2449.815 36139104 36862772 37579156 38284492 38974448 39645100 40291632 
2453.191 40909092 41492356 42035668 42533396 42980408 43371596 43701868 
2456.566 43966500 44159948 44277084 44313300 44264648 44128696 43904836 
2459.941 43593420 43195956 42714580 42152636 41513868 40803304 40027592 
2463.316 39193860 38311020 37388296 36435308 35462336 34480236 33499494 
2466.692 32530640 31584642 30670180 29795504 28966856 28188962 27464910 
2470.067 26796686 26185018 25630340 25132186 24689558 24300150 23960108 
2473.442 23664836 23407878 23182666 22982968 22802778 22637776 22484282 
2476.817 22339808 22202564 22071186 21944624 21822068 21702614 21585456 
2480.193 21470000 21355618 21241928 21129102 21017592 20908094 20801506 
2483.568 20698214 20597724 20499758 20403204 20307750 20213772 20122764 
2486.943 20036772 19957806 19887144 19824642 19768984 19718428 19670962 
2490.318 19625512 19581766 19540174 19501322 19465594 19432224 19400036 
2493.694 19367676 19334072 19298738 19261848 19223508 19183750 19142092 
2497.069 19097320 19048332 18994638 18936074 18873432 18808138 18740810 
2500.444 18672350 18603350 18533218 18462098 18390052 18317434 18245310 
2503.819 18175064 18108076 18045796 17990018 17941428 17900132 17865502 
2507.195 17835638 17807604 17778574 17745954 17707956 17664748 17616712 
2510.570 17564956 17510068 17451600 17388622 17319444 17243210 17159718 
2513.945 17069970 16975862 16878952 16780616 16681442 16581429 16481131 
2517.320 16381441 16284250 16191861 16106920 16030418 15962867 15903024 
2520.696 15849823 15802298 15760070 15723754 15694691 15673907 15661987 
2524.071 15658723 15663566 15675487 15693488 15716402 15743028 15771888 
2527.446 15801337 15829582 15855355 15878486 15899690 15919935 15940936 
2530.821 15963210 15986757 16010683 16034199 16056892 16079033 16102072 
2534.197 16127242 16155956 16189041 16225981 16266121 16308228 16351232 
2537.572 16394963 16439490 16485572 16533997 16585596 16640849 16699897 
2540.947 16762570 16827834 16894418 16961048 17025996 17088682 17149412 
2544.322 17208736 17268344 17329478 17392344 17456324 17520004 17581208 
2547.698 17637968 17689766 17736534 17779264 17819412 17858078 17895780 
2551.073 17932728 17968330 18002002 18033534 18062720 18089560 18114570 
2554.448 18138132 18160346 18182250 18203846 18225130 18245794 18264418 
2557.823 18279382 18288922 18291444 18285982 18272540 18251148 18222088 
2561.198 18185358 18140654 18087452 18026040 17957210 17883006 17806018 
2564.574 17729112 17654120 17582450 17514658 17450806 17391242 17337066 
2567.949 17289238 17248760 17216322 17191260 17172264 17158306 17148170 
2571.324 17142104 17141104 17146586 17159718 17180848 17209150 17243246 
2574.699 17281894 17323962 17369068 17417728 17469882 17525592 17584002 
2578.075 17643766 17703848 17762972 17820966 17877930 17934488 17991710 
2581.450 18050424 18111876 18177308 18248004 18324932 18408754 18498744 
2584.825 18593668 18691238 18789384 18886446 18981970 19075784 19168650 
2588.200 19260948 19352364 19441962 19528980 19612340 19691554 19767386 
2591.576 19840076 19910592 19979072 20045412 20109228 20171042 20230850 
2594.951 20290214 20350528 20413034 20478362 20546482 20616938 20689456 
2598.326 20764246 20842562 20925966 21016028 21114040 21220146 21334074 
2601.701 21454542 21580196 21709998 21843044 21978884 22117660 22259654 
2605.077 22405462 22555892 22711296 22872064 23037576 23206294 23375882 
2608.452 23543892 23707700 23865826 24017604 24163340 24303200 24437358 
2611.827 24565000 24684228 24792860 24888536 24969492 25034704 25084056 
2615.202 25118144 25137698 25143632 25136928 25118916 25091254 25056114 
2618.578 25016100 24973422 24929908 24886570 24843624 24800788 24757394 
2621.953 24713304 24668516 24623804 24580148 24538530 24500386 24466418 
2625.328 24437674 24414504 24397786 24388358 24386816 24394210 24411104 
2628.703 24438058 24474586 24520334 24573556 24633272 24697558 24765042 
2632.079 24834958 24906712 24980582 25056852 25135980 25218034 25302846 
2635.454 25390518 25480668 25573228 25668160 25764874 25862766 25961352 
2638.829 26059714 26157392 26254248 26350634 26447286 26544912 26643724 
2642.204 26743436 26843278 26942086 27038660 27132540 27223828 27313334 
2645.580 27402226 27492054 27583982 27679146 27778036 27880556 27986668 
2648.955 28096306 28209188 28325600 28445828 28570340 28699628 28834370 
2652.330 28974860 29120992 29272598 29429040 29590294 29756078 29926932 
2655.705 30103214 30285714 30474546 30669790 30870920 31077446 31288702 
2659.081 31504512 31724636 31948828 32176990 32408274 32641538 32875926 
2662.456 33110190 33343688 33576380 33808584 34040524 34272624 34504844 
2665.831 34737296 34969912 35202832 35436632 35671776 35909100 36149116 
2669.206 36392432 36639488 36890580 37146152 37406460 37671364 37940160 
2672.582 38212052 38485308 38758376 39029872 39298312 39562812 39822580 
2675.957 40076280 40322792 40560744 40789036 41008020 41219096 41424408 
2679.332 41627592 41832624 42043152 42262512 42493896 42739404 43001404 
2682.707 43281680 43581332 43901096 44240836 44600264 44978288 45374628 
2686.083 45788420 46219368 46666720 47128828 47603624 48089196 48582944 
2689.458 49083748 49591368 50106872 50631808 51167936 51715992 52276216 
2692.833 52847864 53430012 54021948 54623668 55235252 55857084 56489320 
2696.208 57131620 57782928 58442536 59109264 59782108 60460640 61144088 
2699.583 61831364 62521524 63212900 63904384 64594968 65283380 65968336 
2702.959 66647880 67318816 67977928 68620736 69243040 69840712 70409864 
2706.334 70946400 71446696 71906664 72322384 72690400 73008032 73273536 
2709.709 73486568 73647336 73756880 73816528 73827720 73792304 73711880 
2713.084 73588024 73421904 73213760 72963584 72670496 72333608 71952808 
2716.460 71528304 71061664 70555272 70011384 69433544 68824784 68188656 
2719.835 67529152 66851004 66159604 65461480 64762676 64069784 63389196 
2723.210 62726632 62087248 61475832 60895920 60350552 59841616 59370196 
2726.585 58936480 58540880 58183184 57863672 57583208 57341568 57139368 
2729.961 56976204 56851100 56762504 56708736 56687820 56698316 56738640 
2733.336 56807704 56904168 57027056 57174892 57346104 57538872 57751028 
2736.711 57979792 58222168 58474268 58731824 58991132 59248044 59499300 
2740.086 59742256 59974436 60193948 60399064 60588504 60761868 60919708 
2743.462 61064032 61197416 61323512 61446096 61567988 61691712 61818676 
2746.837 61949580 62085068 62224924 62369144 62517128 62668108 62820896 
2750.212 62974928 63129516 63284768 63441344 63600392 63763568 63933024 
2753.587 64111180 64300680 64505048 64727672 64971612 65238824 65529868 
2756.963 65843352 66176312 66524780 66884400 67250424 67618768 67984592 
2760.338 68342784 68687256 69011184 69307016 69568280 69789112 69965448 
2763.713 70094664 70175696 70208304 70193184 70131816 70026216 69879472 
2767.088 69695968 69480512 69238456 68975800 68698120 68411120 68120544 
2770.464 67831208 67547960 67275024 67014748 66768960 66538768 66323972 
2773.839 66124372 65939984 65770172 65614916 65472996 65342540 65220384 
2777.214 65102196 64982772 64855412 64713480 64550184 64358772 64133920 
2780.589 63871488 63569552 63228732 62852108 62445120 62014244 61567036 
2783.965 61110748 60651936 60196192 59747616 59309496 58883620 58471160 
2787.340 58072084 57685860 57311280 56947304 56592956 56247944 55912140 
2790.715 55586348 55271036 54967088 54675072 54395460 54128184 53873192 
2794.090 53629784 53397228 53174084 52958424 52748448 52541792 52336052 
2797.466 52129368 51919868 51705616 51485316 51257744 51021648 50776180 
2800.841 50520836 50255156 49979116 49692556 49395448 49087456 48768744 
2804.216 48439784 48101412 47755236 47403760 47050280 46697528 46349372 
2807.591 46008980 45679376 45363080 45061828 44777316 44510092 44260464 
2810.967 44028356 43813200 43614452 43431716 43264588 43112664 42975724 
2814.342 42853524 42745472 42651300 42570636 42503468 42450232 42412160 
2817.717 42390608 42387248 42404528 42443876 42507304 42596732 42713156 
2821.092 42857692 43030964 43232484 43461308 43715828 43993524 44291208 
2824.468 44605292 44931764 45265912 45603004 45937520 46263556 46575568 
2827.843 46867976 47135620 47374012 47579332 47748656 47879824 47972064 
2831.218 48024796 48039196 48017064 47961220 47875236 47763560 47631208 
2834.593 47483408 47326052 47164540 47003752 46847716 46699332 46560036 
2837.969 46430632 46311808 46204220 46110032 46032000 45974608 45942968 
2841.344 45942420 45979324 46060292 46191984 46382336 46640896 46977872 
2844.719 47405276 47934912 48575904 49332860 50202228 51169352 52204320 
2848.094 53264120 54293696 55226636 55998112 56548908 56832140 56822660 
2851.469 56517432 55936036 55114748 54104244 52962728 51746228 50509560 
2854.845 49300308 48154308 47099024 46150712 45316036 44593396 43974748 
2858.220 43448160 42998624 42610656 42269560 41961248 41673508 41396852 
2861.595 41123364 40848440 40569876 40288036 40005032 39723880 39448756 
2864.970 39183092 38930596 38694872 38479224 38287244 38122512 37987060 
2868.346 37882708 37809504 37765692 37748596 37754488 37779176 37817964 
2871.721 37866440 37920164 37974732 38027276 38075740 38120556 38164004 
2875.096 38210312 38264700 38332736 38418588 38525244 38653872 38803988 
2878.471 38974304 39163108 39367852 39586152 39815496 40052992 40295632 
2881.847 40541392 40788420 41035696 41283588 41532352 41782676 42035052 
2885.222 42289832 42546368 42804012 43061292 43316312 43566828 43810380 
2888.597 44044972 44269416 44483700 44688760 44887196 45081568 45274664 
2891.972 45468144 45663108 45859520 46056720 46254380 46451504 46648344 
2895.348 46844760 47041604 47239228 47438760 47640820 47846196 48054848 
2898.723 48265936 48477976 48688456 48894696 49094284 49286316 49471116 
2902.098 49650500 49827136 50004172 50184076 50369300 50562008 50764224 
2905.473 50979056 51210696 51464012 51744472 52058168 52410140 52805920 
2908.849 53250784 53749576 54307172 54928544 55616776 56372688 57194168 
2912.224 58074392 59001264 59957088 60919672 61861048 62750600 63558772 
2915.599 64257764 64827180 65256388 65545008 65703020 65746888 65697120 
2918.974 65571756 65382972 65134996 64823328 64436592 63959360 63378544 
2922.350 62685212 61878584 60966836 59966560 58900996 57795044 56674984 
2925.725 55564360 54481884 53442452 52455792 51527884 50661300 49856196 
2929.100 49111944 48427152 47801140 47234020 46726824 46281252 45899364 
2932.475 45582796 45332588 45148692 45030768 44977040 44985568 45053412 
2935.851 45176192 45347744 45559688 45801932 46062284 46328212 46589176 
2939.226 46835684 47062060 47265532 47446592 47607208 47750396 47878972 
2942.601 47995044 48098896 48189256 48262268 48312412 48331928 48313260 
2945.976 48249568 48137244 47977060 47775728 47545320 47300408 47057848 
2949.352 46832732 46635876 46473592 46346536 46251212 46180412 46125284 
2952.727 46077056 46026808 45967096 45891888 45796516 45677868 45534372 
2956.102 45365840 45172924 44957120 44720788 44466084 44195932 43914112 
2959.477 43623864 43329344 43034440 42741852 42453924 42172024 41897172 
2962.853 41630184 41372616 41126460 40894708 40680660 40487084 40316248 
2966.228 40169096 40045252 39943056 39860312 39793708 39739168 39692584 
2969.603 39648624 39601832 39547136 39479856 39396548 39296100 39178956 
2972.978 39048504 38909432 38768372 38632360 38508156 38401320 38314528 
2976.354 38247364 38193960 38144216 38084204 37995888 37862176 37667788 
2979.729 37401544 37059176 36643600 36164888 35637964 35081792 34517076 
2983.104 33961728 33432428 32941442 32496252 32100852 31756110 31461262 
2986.479 31215210 31017798 30869496 30770432 30718258 30705670 30717618 
2989.854 30731986 30720998 30652296 30498716 30239388 29866554 29386458 
2993.230 28819428 28195646 27548008 26908878 26304234 25749580 25251746 
2996.605 24808998 24414996 24060644 23737130 23437742 23157188 22892148 
2999.980 22640150 22399182 22166892 21941416 21720866 21503664 21289180 
3003.355 21077448 20869086 20665272 20467630 20277230 20095382 19922422 
3006.731 19758580 19603396 19456378 19316716 19183818 19057194 18935866 
3010.106 18819314 18706700 18597160 18489860 18384418 18280938 18180038 
3013.481 18082754 17990156 17903342 17823002 17749476 17682760 17623166 
3016.856 17570270 17523868 17483402 17447356 17413796 17380688 17345444 
3020.232 17306030 17261208 17210114 17152584 17088474 17017762 16939962 
3023.607 16855046 16763121 16665431 16564425 16463477 16366336 16276648 
3026.982 16197089 16128756 16071400 16022889 15980534 15940592 15899176 
3030.357 15852882 15798552 15734302 15658759 15572340 15476017 15372026 
3033.733 15262705 15151080 15039276 14929628 14823539 14722446 14627304 
3037.108 14538865 14457603 14383720 14317007 14257254 14203877 14156361 
3040.483 14114360 14077463 14045327 14017710 13993824 13973190 13955090 
3043.858 13938735 13923510 13908695 13893745 13877905 13860561 13841131 
3047.234 13819376 13795433 13769644 13742523 13714618 13685824 13655939 
3050.609 13624518 13590706 13553819 13513244 13468503 13419119 13364889 
3053.984 13305813 13242340 13175767 13107326 13038965 12972150 12908110 
3057.359 12846913 12788148 12731061 12674870 12619573 12565476 12513364 
3060.735 12463850 12416796 12371725 12327647 12283335 12238516 12193565 
3064.110 12149846 12108925 12072301 12040788 12014082 11991703 11972186 
3067.485 11954714 11938604 11923415 11908703 11893990 11878395 11861028 
3070.860 11841550 11820202 11797901 11776146 11756673 11740672 11728963 
3074.236 11721610 11717797 11717048 11717968 11720112 11722427 11724264 
3077.611 11724708 11722801 11717899 11709492 11697544 11682771 11665548 
3080.986 11646931 11627532 11607827 11588124 11568454 11548514 11527929 
3084.361 11505983 11482473 11457093 11430491 11403516 11377631 11354196 
3087.737 11334606 11318995 11307568 11299406 11293353 11288490 11284273 
3091.112 11280362 11277030 11274411 11272201 11270127 11268155 11265774 
3094.487 11263462 11261898 11261626 11263564 11268359 11275874 11286042 
3097.862 11298386 11312193 11326851 11342020 11356644 11370045 11381406 
3101.238 11390317 11396746 11401373 11404945 11408584 11413176 11419129 
3104.613 11426238 11434369 11443111 11452093 11461312 11470566 11479887 
3107.988 11489175 11498089 11506561 11514795 11523062 11532454 11543819 
3111.363 11557939 11575328 11596222 11620078 11646455 11674636 11703807 
3114.739 11732945 11761269 11787926 11812201 11833889 11853196 11870358 
3118.114 11886090 11900461 11913368 11924471 11933257 11939660 11943849 
3121.489 11946880 11950048 11954679 11961866 11971743 11984516 11999231 
3124.864 12015785 12033532 12052474 12072130 12092469 12112809 12132639 
3128.240 12151516 12169302 12186000 12202051 12217625 12232824 12247513 
3131.615 12261759 12275564 12289913 12305695 12324204 12346021 12371350 
3134.990 12399135 12428048 12456485 12483764 12509476 12534372 12559098 
3138.365 12584031 12609169 12633831 12657130 12678521 12698205 12716732 
3141.740 12735532 12755834 12778183 12802958 12829917 12859098 12890566 
3145.116 12925110 12963479 13006086 13052828 13102375 13153020 13202681 
3148.491 13249820 13293684 13334650 13373499 13411464 13449740 13488805 
3151.866 13528728 13569510 13610500 13651563 13692595 13733461 13774295 
3155.241 13815613 13857482 13900621 13945578 13992900 14043000 14095945 
3158.617 14151397 14209149 14268724 14329951 14392591 14456918 14523174 
3161.992 14591015 14660855 14732284 14804889 14878500 14952331 15025864 
3165.367 15098588 15169916 15239712 15308043 15375459 15442541 15510011 
3168.742 15578076 15646083 15713001 15777387 15837314 15891545 15939320 
3172.118 15980467 16015531 16045064 16070059 16090998 16108604 16122945 
3175.493 16134499 16143302 16149629 16153790 16156439 16158054 16159328 
3178.868 16161047 16164005 16168544 16174665 16182026 16190210 16198706 
3182.243 16207717 16217656 16229833 16245242 16265020 16289409 16318375 
3185.619 16350888 16385982 16422629 16460242 16498683 16538402 16579812 
3188.994 16623463 16669460 16717596 16767357 16818192 16869514 16920876 
3192.369 16971728 17022344 17072828 17123250 17174058 17225318 17276586 
3195.744 17327582 17377550 17426180 17473262 17519002 17564474 17610502 
3199.120 17657880 17707196 17758380 17810920 17864362 17918016 17971818 
3202.495 18025902 18080372 18135332 18190854 18246656 18302502 18358528 
3205.870 18415080 18472434 18530868 18590382 18650284 18710090 18768694 
3209.245 18825680 18880838 18934724 18987508 19040126 19092438 19144272 
3212.621 19195490 19245916 19295898 19346266 19398304 19452808 19510472 
3215.996 19570986 19633730 19697310 19760312 19821730 19880692 19936992 
3219.371 19990904 20042984 20094376 20146434 20200476 20257720 20318790 
3222.746 20383896 20452590 20523554 20595396 20666522 20735990 20802724 
3226.122 20866546 20927494 20986050 21042946 21099328 21156340 21214894 
3229.497 21275854 21339434 21405008 21472018 21539074 21605338 21670152 
3232.872 21733128 21794300 21853846 21911898 21968670 22024684 22080774 
3236.247 22138126 22198102 22261746 22329448 22400926 22474686 22548842 
3239.623 22622034 22693490 22763320 22832146 22900810 22969728 23038518 
3242.998 23106516 23172636 23236564 23298998 23361302 23425746 23493736 
3246.373 23566314 23643388 23723342 23804292 23884802 23963714 24040890 
3249.748 24116856 24192520 24268652 24345918 24424250 24503540 24583198 
3253.124 24662800 24741750 24820330 24898606 24976756 25055658 25135662 
3256.499 25216840 25298982 25381350 25462574 25541704 25617862 25690834 
3259.874 25760830 25828762 25895122 25960614 26025482 26089794 26153626 
3263.249 26217608 26282092 26347854 26415208 26483664 26552134 26619344 
3266.625 26683324 26743400 26799540 26853006 26905776 26959962 27017150 
3270.000 27077978 27141708 27207282 27272548 27335566 27394710 27448778 
3273.375 27496996 27539922 27578230 27613290 27646940 27680982 27716968 
3276.750 27756102 27798702 27844698 27893488 27943980 27995326 28046820 
3280.125 28097826 28148198 28197662 28245996 28293134 28339464 28384986 
3283.501 28430336 28476078 28522286 28569384 28617478 28666178 28715628 
3286.876 28765154 28815004 28864752 28914650 28964482 29014782 29065616 
3290.251 29117592 29171132 29226982 29285250 29345866 29408690 29472620 
3293.626 29536878 29600794 29663582 29725208 29786064 29846110 29905988 
3297.002 29965944 30026338 30087306 30148672 30210546 30272604 30335170 
3300.377 30398242 30462072 30527152 30594022 30663140 30735542 30811620 
3303.752 30891732 30975914 31063780 31154616 31247288 31340550 31433582 
3307.127 31525996 31617962 31710696 31805590 31904466 32008282 32117550 
3310.503 32231268 32348372 32467150 32586780 32707088 32829144 32954346 
3313.878 33084158 33219628 33360862 33506904 33656360 33808048 33961264 
3317.253 34116108 34273304 34433496 34597552 34765188 34936336 35110172 
3320.628 35286308 35464060 35643432 35823992 36005708 36187828 36369984 
3324.004 36551424 36731640 36910424 37087504 37262604 37435424 37605388 
3327.379 37772128 37935424 38095600 38253008 38408088 38560836 38710412 
3330.754 38855584 38994384 39125288 39247024 39359032 39461204 39553852 
3334.129 39637732 39713024 39779800 39837936 39886900 39926236 39955732 
3337.505 39974876 39983888 39983376 39974040 39957184 39933900 39904768 
3340.880 39869680 39827772 39777004 39715532 39641620 39554504 39454128 
3344.255 39341296 39216816 39081420 38935380 38778624 38610700 38431948 
3347.630 38242880 38044672 37838528 37625908 37407508 37184232 36956344 
3351.006 36724612 36489580 36252116 36012624 35771464 35528312 35283004 
3354.381 35035496 34786332 34535984 34285996 34037192 33790248 33545238 
3357.756 33302330 33061170 32822426 32586780 32355546 32129820 31910278 
3361.131 31696654 31488016 31283360 31081860 30883052 30687782 30496688 
3364.507 30310868 30130842 29956822 29788156 29624524 29465316 29309780 
3367.882 29157596 29008262 28860574 28713574 28566340 28417742 28267778 
3371.257 28116878 27965818 27815976 27668446 27524318 27384262 27249016 
3374.632 27118784 26993984 26873980 26757884 26643934 26530612 26416158 
3378.008 26299834 26181534 26062104 25942604 25824296 25707532 25592030 
3381.383 25477190 25361924 25245634 25128326 25010344 24892360 24775286 
3384.758 24659188 24544244 24430208 24316936 24204396 24093074 23983288 
3388.133 23875490 23769712 23665850 23562852 23460334 23357176 23252888 
3391.509 23147438 23041242 22935144 22829946 22726520 22625174 22525878 
3394.884 22428140 22331330 22235066 22139242 22044762 21952604 21863984 
3398.259 21779146 21697562 21617424 21536846 21453498 21366442 21275402 
3401.634 21182084 21088264 20996066 20906704 20820416 20736234 20653040 
3405.010 20569618 20485378 20400356 20315004 20229288 20143380 20056620 
3408.385 19968872 19879616 19789374 19698698 19608700 19519690 19431636 
3411.760 19343980 19256098 19166954 19076546 18985362 18894888 18806302 
3415.135 18721022 18639492 18561746 18487094 18414112 18341280 18266838 
3418.510 18189574 18108214 18022552 17933280 17842506 17752720 17666956 
3421.886 17587280 17514588 17448254 17386240 17326064 17264690 17200808 
3425.261 17133384 17063420 16991988 16920394 16850086 16781442 16714498 
3428.636 16648905 16583977 16518990 16453117 16385535 16315727 16244004 
3432.011 16170779 16097428 16025674 15956713 15891649 15830236 15771683 
3435.387 15714306 15656834 15598237 15538376 15478318 15419469 15363203 
3438.762 15310034 15259583 15210303 15160686 15108537 15052757 14993246 
3442.137 14930657 14866603 14802454 14739344 14676963 14614590 14550103 
3445.512 14482028 14409202 14332725 14254446 14177619 14105495 14039954 
3448.888 13981129 13927409 13875682 13822797 13766190 13705146 13640587 
3452.263 13574809 13510031 13448236 13389867 13334650 13281045 13227548 
3455.638 13172762 13115625 13055764 12992873 12927055 12858722 12788455 
3459.013 12717107 12645566 12574719 12504941 12436027 12367532 12298741 
3462.389 12229485 12160341 12092469 12027333 11966294 11909383 11856397 
3465.764 11805766 11755821 11704828 11651560 11595270 11535482 11471790 
3469.139 11404060 11332701 11258225 11182334 11106729 11033719 10965072 
3472.514 10900954 10841194 10784058 10727506 10670112 10610792 10549714 
3475.890 10487796 10425683 10364087 10303655 10243909 10184511 10125155 
3479.265 10065263 10004703 9943269 9881403 9819615 9758919 9700535 9645480 
3483.122 9594360 9546871 9501487 9456345 9409075 9357814 9301921 9241501 
3486.980 9177671 9111820 9045032 8978457 8912669 8848888 8788058 8731968 
3490.837 8681801 8638164 8600648 8567088 8534918 8501127 8463454 8420785 
3494.695 8373323 8322150 8268418 8213442 8157899 8102566 8048388 7996646 
3498.552 7948454 7905059 7866425 7831608 7798479 7764274 7726529 7683595 
3502.409 7634898 7581689 7526328 7471884 7420852 7375757 7337474 7306067 
3506.267 7280156 7257514 7234772 7208696 7176997 7138798 7094776 7047930 
3510.124 7001662 6959473 6922909 6892307 6866084 6841713 6816873 6790317 
3513.982 6761980 6733005 6704435 6677113 6650734 6624491 6596904 6567537 
3517.839 6536355 6504939 6475410 6449581 6428630 6412186 6398366 6384479 
3521.697 6367465 6344837 6314814 6277935 6234875 6187785 6138550 6088447 
3525.554 6038282 5988291 5938205 5888058 5838622 5790903 5746045 5705488 
3529.411 5669601 5637644 5608609 5579912 5550143 5518195 5484001 5447629 
3533.269 5410656 5373216 5336082 5298816 5261185 5222384 5182412 5141740 
3537.126 5100602 5059804 5019981 4981234 4944301 4909583 4877815 4849803 
3540.984 4826048 4806516 4789999 4774790 4758877 4740252 4717374 4689607 
3544.841 4656952 4620012 4579895 4538308 4497027 4458193 4423547 4394493 
3548.698 4370830 4350882 4331806 4309953 4282011 4245974 4202211 4153435 
3552.556 4103627 4057203 4017906 3987108 3964670 3948252 3935914 3924714 
3556.413 3912844 3899270 3883223 3864435 3843341 3819875 3794972 3769871 
3560.271 3746108 3725989 3711418 3704033 3704534 3712655 3726223 3741462 
3564.128 3752658 3753060 3735781 3695511 3631322 3546496 3450165 3354890 
3567.986 3271721 3208729 3167841 3145512 3134298 3126722 3116210 3099324 
3571.843 3075531 3046667 3016003 2986176 2958987 2935168 2914552 2896607 
3575.700 2881330 2868589 2858283 2849944 2842607 2834669 2824398 2811224 
3579.558 2794850 2776576 2758136 2741563 2729026 2721891 2720991 2726359 
3583.415 2736895 2750566 2764071 2772675 2771074 2754434 2719557 2667013 
3587.273 2601375 2530915 2466031 2415350 2384298 2373836 2380366 2397824 
3591.130 2418581 2436241 2444771 2440939 2423513 2393826 2354814 2310474 
3594.988 2265307 2222976 2186343 2156872 2134829 2119779 2110256 2104796 
3598.845 2101333 2098603 2095373 2091511 2087150 2083221 2080990 2081557 
3602.702 2085785 2094408 2106927 2122609 2139491 2154608 2164831 2166596 
3606.560 2156806 2134496 2100634 2059184 2016173 1978626 1951499 1936489 
3610.417 1931663 1931962 1931097 1923276 1905671 1879048 1848500 1820450 
3614.275 1802449 1799222 1811333 1835523 1864872 1890462 1902576 1893524 
3618.132 1859780 1802882 1730621 1654248 1586070 1535824 1507428 1500180 
3621.990 1509190 1528143 1551718 1577523 1605691 1638417 1677864 1723369 
3625.847 1770044 1808239 1824110 1802749 1734513 1620357 1476907 1331376 
3629.704 1214036 1143435 1122373 1140711 1182206 1230152 1271057 1297045 
3633.562 1306450 1302694 1291827 1280428 1272785 1270293 1271921 1275444 
3637.419 1279365 1282588 1285712 1288869 1292060 1294153 1293289 1288072 
3641.277 1278933 1267701 1259194 1258596 1270725 1297909 1339319 1390706 
3645.134 1445389 1495758 1534361 1554678 1552749 1526314 1475377 1401409 
3648.991 1309275 1207059 1106195 1020766 963844 943156 960191 1009075 
3652.849 1078824 1154431 1221379 1267302 1283286 1267535 1225732 1170711 
3656.706 1117490 1079289 1063512 1069723 1092775 1124167 1155760 1181077 
3660.564 1196592 1202241 1200879 1197456 1196526 1202307 1217093 1242080 
3664.421 1277371 1323167 1380069 1448082 1526081 1610746 1695460 1773138 
3668.279 1837186 1888898 1939451 2013078 2142421 2355646 2670347 3088111 
3672.136 3598245 4183309 4821458 5488061 6141608 6722674 7157493 7371409 
3675.993 7321669 7014693 6497641 5835230 5090545 4321465 3575861 2897341 
3679.851 2322733 1872326 1548726 1335397 1205431 1129449 1083940 1056736 
3683.708 1043483 1045210 1061585 1088955 1117457 1136591 1134731 1106162 
3687.566 1051455 979286 902613 834254 782369 748612 730391 723155 723388 
3691.905 729594 740613 755516 772212 788178 800526 807398 808892 807033 
3696.245 805340 807862 817456 835017 858987 885182 907860 921042 920045 
3700.584 902713 870773 829407 786817 751002 728200 721562 730623 752496 
3704.924 783697 820510 860713 902946 946510 990345 1032755 1070487 1099718 
3709.264 1115231 1113238 1090583 1047303 986625 916160 846604 788377 750869 
3713.603 738688 750869 782701 826585 874259 917887 953118 978057 994330 
3717.943 1005023 1013725 1022725 1032091 1040428 1046107 1048133 1047801 
3721.800 1047535 1050558 1058928 1072347 1088092 1101578 1108355 1105265 
3725.658 1092842 1074971 1058795 1052518 1062582 1092078 1139249 1198520 
3729.515 1261121 1317284 1359295 1382063 1386119 1376512 1361023 1346399 
3733.373 1334467 1321173 1298806 1260457 1203736 1134598 1065272 1009972 
3737.230 978588 973773 991308 1024917 1068727 1120579 1181276 1252149 
3741.087 1331708 1412612 1479932 1513014 1492367 1407360 1269163 1111145 
3744.945 981312 915729 923698 990046 1087294 1186924 1264776 1306151 1306284 
3749.284 1270027 1207989 1132871 1054876 980183 913737 861676 830403 826054 
3753.624 849824 896770 957369 1019703 1073709 1112341 1133735 1139449 
3757.481 1133469 1119815 1099851 1074141 1043384 1010902 983304 968493 
3761.339 971748 993732 1029334 1068295 1099319 1113836 1108554 1086962 
3765.196 1058131 1033220 1020334 1021563 1032656 1045044 1050359 1042022 
3769.054 1018773 984334 946410 913338 891457 883522 888702 903444 923399 
3773.393 944584 964243 981378 996821 1012396 1029467 1048034 1066202 1079721 
3777.733 1083940 1075370 1054012 1023556 991773 967298 955742 958398 971449 
3782.073 988053 1000739 1003994 996289 979983 959892 941463 928911 923465 
3786.412 924694 930638 940002 951856 965870 981644 998182 1014090 1028471 
3790.752 1041192 1053647 1068527 1088291 1113736 1142737 1170644 1191110 
3794.609 1199151 1192738 1174565 1152604 1137621 1138983 1161076 1201909 
3798.467 1252448 1299238 1326856 1322136 1278700 1201045 1106262 1020600 
3802.324 969224 965338 1007813 1083242 1171408 1249125 1296746 1302262 
3806.181 1264079 1193569 1111743 1042753 1002333 994994 1014987 1051621 
3810.039 1095433 1140611 1186525 1236166 1292591 1355705 1420623 1476773 
3813.896 1511817 1514211 1479400 1413642 1335763 1270459 1238193 1248427 
3817.754 1295749 1363882 1430131 1472152 1472418 1422850 1330013 1215133 
3821.611 1109119 1037605 1014123 1035944 1088922 1154099 1213638 1255538 
3825.469 1274413 1272519 1258562 1243875 1238060 1245968 1266505 1294120 
3829.326 1322203 1344172 1356802 1360392 1358996 1357965 1363317 1379072 
3833.183 1406263 1442497 1482858 1520163 1546897 1556241 1543638 1508858 
3837.041 1456360 1394994 1336129 1289800 1261919 1252847 1258629 1272852 
3840.898 1289102 1302096 1309009 1308577 1301033 1288271 1273350 1260124 
3844.756 1252548 1254575 1268498 1295084 1333137 1380667 1435682 1497321 
3848.613 1565785 1641842 1725066 1811300 1890429 1946573 1959354 1908200 
3852.470 1782653 1590726 1366175 1155495 1000308 920411 910549 952122 
3856.328 1022526 1104767 1187190 1264045 1333769 1396523 1452537 1501842 
3860.185 1543937 1578255 1605092 1624248 1634958 1635257 1622419 1594384 
3864.043 1552716 1504270 1460150 1432857 1431061 1455862 1499282 1546165 
3867.900 1579452 1584274 1553381 1492134 1417731 1353578 1317251 1314692 
3871.758 1338688 1374717 1406263 1421487 1417133 1398584 1377676 1367438 
3875.615 1377410 1410085 1460849 1520362 1576825 1619725 1640179 1634293 
3879.472 1603895 1557438 1507362 1468229 1451507 1461414 1494627 1540213 
3883.330 1584041 1610513 1608351 1573932 1515009 1448681 1395592 1372889 
3887.187 1386651 1431560 1493829 1557205 1606589 1631133 1627009 1597410 
3891.045 1552550 1504569 1465137 1441866 1437610 1451174 1480298 1521659 
3894.902 1572169 1628672 1687211 1742730 1789839 1823644 1840614 1839981 
3898.760 1823777 1797093 1765785 1735112 1708100 1684583 1662397 1637619 
3902.617 1607919 1572435 1533363 1494794 1462411 1440469 1431228 1433987 
3906.474 1446021 1463774 1483423 1501975 1517769 1529939 1538783 1545001 
3910.332 1549890 1555077 1562758 1574896 1593286 1618262 1648627 1681090 
3914.189 1711161 1733416 1743895 1740601 1724600 1699618 1670746 1643306 
3918.047 1620723 1604593 1595082 1591391 1593053 1600170 1612708 1629404 
3921.904 1647929 1664493 1674604 1674638 1663728 1644137 1620723 1599838 
3925.761 1587367 1586103 1596113 1614803 1638117 1661832 1682754 1698454 
3929.619 1707701 1709564 1702811 1687610 1664692 1636222 1606556 1580117 
3933.476 1561395 1552749 1554412 1563956 1577823 1592222 1603862 1611478 
3937.334 1615003 1615768 1615269 1614604 1614171 1613107 1610280 1604128 
3941.191 1593985 1580051 1563723 1547928 1535558 1529772 1532532 1543638 
3945.049 1561162 1581813 1601368 1616466 1624880 1626577 1623218 1617763 
3948.906 1612509 1609349 1608152 1608152 1607919 1606289 1603163 1599073 
3952.763 1594583 1590194 1585804 1581015 1575129 1568146 1561129 1555410 
3956.621 1552550 1553414 1558003 1565485 1573998 1582079 1588664 1593519 
3960.478 1597111 1600104 1603296 1606988 1611211 1615967 1621122 1626876 
3964.336 1632995 1639248 1645202 1650224 1653883 1656011 1657209 1657974 
3968.193 1659437 1662464 1666622 1672742 1679960 1688541 1698055 1708234 
3972.051 1718246 1727062 1733482 1736443 1735611 1731586 1725831 1720342 
3975.908 1716583 1715419 1716716 1719577 1722837 1726330 1729889 1734380 
3979.765 1740235 1747521 1755106 1761660 1766151 1767815 1767515 1766517 
3983.623 1766584 1768646 1772273 1776232 1778294 1776930 1771108 1761726 
3987.480 1750515 1739437 1730521 1724667 1722305 1723037 1726563 1732451 
3991.338 1740235 1749284 1758466 1765918 1770276 1770343 1765785 1757102 
3995.195 1746057 1734214 1723003 1713589 1706138 1700683 1696990 1694994 
3999.052 1694662 1695394 1696691 1697589 
##END=
