
##TITLE=mdmaHCL00394_4
##JCAMP-DX=5.01  $$ Nicolet v. 1
##DATATYPE=INFRARED SPECTRUM
##ORIGIN=UniL
##OWNER=Nicolet
##LONGDATE=2011/08/24
##TIME=09:05:59
##SPECTROMETER/DATA SYSTEM=Nicolet iS5
##DATA PROCESSING=
Ratio against background
%Transmittance->Absorbance
Truncated
ElementMultiply or ElementDivide
##COMMENTS=
Number of sample scans: 32
Collection length: 51.18 sec
Sample gain: 2.0
Background collected on: Mer Aout 24 09:04:10 2011 (GMT+02:00);
Number of background scans: 32
Background gain: 2.0
Sample spacing:  1.000
Number of scan points: 12415
Resolution points: 8192
Number of FFT points: 65536
Apodization: N-B fort;
Phase correction: Mertz;
Laser frequency: 15798.0 cm-1
Number of rejected sample scans: 0
Number of rejected background scans: 0
Bench serial number: ASB1000141;
##RESOLUTION=4.000
##XUNITS=1/CM
##YUNITS=ABSORBANCE
##FIRSTX=649.893372
##LASTX=4000.122314
##FIRSTY=0.075196
##MAXX=4000.122314
##MINX=649.893372
##MAXY=0.261651
##MINY=0.001475
##XFACTOR=1.000000
##YFACTOR=1.000000E-009
##NPOINTS=6950
##DELTAX=0.482117
##ZPD=6100
##XYDATA=(X++(Y..Y))
649.893 75196016 75395416 75633552 75918544 76242928 76588512 76936152 
653.268 77278752 77626984 78007456 78449576 78971584 79575288 80245776 
656.643 80964624 81720936 82520304 83380016 84319464 85344304 86442648 
660.018 87587800 88755400 89934992 91140032 92400192 93749536 95207160 
663.393 96770128 98413960 100107720 101826544 103549544 105255136 106897976 
666.767 108381976 109568296 110307192 110506632 110176848 109407352 
669.660 108303144 106933192 105325184 103486760 101430744 99202216 96879152 
673.035 94548640 92292816 90158360 88152408 86256624 84447464 82712952 
676.410 81059576 79506440 78072648 76767192 75585600 74512176 73529152 
679.785 72623496 71788640 71021472 70319080 69673376 69072240 68503944 
683.159 67960880 67442720 66956176 66509916 66109672 65754904 65439524 
686.534 65155284 64897120 64664988 64463264 64296408 64163344 64053736 
689.909 63948916 63824244 63658512 63438088 63160440 62831996 62465164 
693.284 62072608 61663604 61244836 60821632 60399216 59985352 59588644 
696.659 59215764 58870492 58552672 58258540 57983504 57724080 57478956 
700.034 57248680 57034652 56836332 56652484 56480072 56317424 56164452 
703.408 56023860 55899892 55796760 55715540 55653840 55604804 55560704 
706.783 55514880 55464168 55410636 55360496 55322292 55304456 55315068 
710.158 55363056 55460664 55627212 55888208 56271520 56799736 57475932 
713.533 58273128 59124900 59934492 60584008 60955776 60967136 60582408 
716.908 59829484 58789980 57595620 56401928 55355264 54589588 54202732 
720.282 54245752 54723476 55584656 56723764 57972556 59127220 59975500 
723.657 60318688 60031764 59084660 57557068 55616024 53482292 51383676 
727.032 49490688 47906388 46658344 45716260 45018496 44498748 44106252 
730.407 43804880 43570820 43386716 43233656 43092976 42951216 42803388 
733.782 42653604 42512824 42390940 42291108 42208356 42131568 42050380 
737.156 41960920 41867284 41778268 41703344 41646080 41602504 41563416 
740.531 41519224 41465308 41403852 41342480 41288944 41248392 41221208 
743.906 41204012 41194140 41192392 41203028 41232104 41282460 41350420 
747.281 41426632 41498444 41556452 41596776 41622888 41642328 41662020 
750.656 41683720 41703852 41715596 41714576 41701372 41683208 41669460 
754.031 41668036 41680984 41704692 41732448 41759808 41787532 41822480 
757.405 41873232 41946104 42041404 42154644 42280296 42416508 42567824 
760.780 42743572 42953188 43198776 43474088 43764896 44058464 44350068 
764.155 44650348 44982772 45380552 45876900 46496936 47257220 48165376 
767.530 49220328 50411236 51714648 53093984 54503780 55912708 57329696 
770.905 58837024 60590824 62801904 65680816 69334648 73686288 78398416 
774.279 82922008 86529216 88489888 88313016 85850496 81387752 75522112 
777.654 69053864 62753736 57188084 52709056 49405772 47177984 45811800 
781.029 45071936 44760712 44729784 44892780 45200608 45620852 46130664 
784.404 46714424 47367068 48095896 48917132 49848876 50902452 52082112 
787.779 53389020 54828912 56420792 58199056 60206544 62492640 65103008 
791.154 68077096 71455752 75282856 79605888 84473144 89913312 95914984 
794.528 102397904 109208328 116106040 122760888 128806400 133839440 
797.421 137464896 139376672 139380880 137457072 133766176 128645104 
800.314 122552896 115969920 109379984 103178432 97624680 92856936 88875408 
803.689 85579208 82800352 80362664 78124488 76002008 73988264 72136048 
807.063 70533128 69256336 68344448 67773928 67461688 67274640 67057468 
810.438 66676772 66031940 65075912 63813492 62287296 60561420 58702280 
813.813 56777196 54845376 52956252 51156120 49482000 47960924 46610460 
817.188 45435656 44431800 43587668 42891232 42331796 41902460 41599624 
820.563 41420948 41364560 41429040 41615160 41928988 42382352 42994084 
823.938 43786632 44779556 45985732 47402872 49010668 50761284 52580388 
827.312 54369096 55998304 57332192 58244144 58633364 58457208 57740012 
830.687 56577668 55113504 53522164 51983540 50640860 49599168 48907712 
834.062 48558564 48493132 48610592 48791212 48900108 48815272 48450900 
837.437 47763784 46767448 45523112 44131008 42701672 41334240 40106516 
840.812 39059776 38203404 37524100 36997836 36598860 36305068 36100972 
844.186 35973276 35909464 35898052 35927964 35991056 36084124 36206556 
847.561 36359500 36542920 36754000 36988636 37243468 37517924 37814960 
850.936 38140560 38501056 38900188 39338900 39815496 40327988 40876652 
854.311 41465124 42098456 42782952 43524008 44326140 45195168 46141240 
857.686 47178612 48328632 49616144 51065808 52702396 54549536 56628096 
861.060 58958264 61553752 64412920 67504328 70755784 74047080 77200024 
864.435 80009088 82257384 83739560 84310776 83896488 82510848 80251640 
867.810 77292296 73859656 70183256 66490836 62972672 59759216 56934160 
871.185 54530416 52542692 50941312 49684196 48728376 48030900 47553456 
874.560 47261800 47122252 47104376 47182900 47338468 47561260 47849820 
877.935 48207840 48640496 49150120 49734088 50384892 51091932 51844852 
881.309 52635216 53457856 54308828 55184832 56080028 56984856 57885740 
884.684 58763992 59598944 60370468 61062620 61670212 62202668 62687436 
888.059 63164964 63682952 64288108 65011404 65864212 66833460 67888504 
891.434 68985192 70075320 71117280 72074208 72915256 73614288 74144384 
894.809 74478704 74593920 74470128 74095928 73470672 72606456 71527832 
898.183 70271752 68890400 67443104 65993792 64607040 63334680 62214488 
901.558 61267004 60494952 59889120 59433716 59113668 58917048 58836188 
904.933 58866540 59002856 59238628 59566376 59978960 60473320 61050684 
908.308 61716728 62478172 63339592 64302212 65363868 66521040 67771488 
911.683 69116016 70558272 72101816 73749032 75500192 77355912 79320736 
915.058 81407616 83639968 86047776 88666592 91529992 94663008 98080728 
918.432 101782144 105748088 109929712 114242368 118563496 122719048 
921.325 126512232 129750816 132274192 134008896 134990864 135384112 
924.218 135447808 135518736 135970272 137128256 139259504 142521776 
927.110 146937264 152378624 158554640 165049552 171287296 176601360 
930.003 180335040 181857040 180710768 176697904 169908144 160732416 
932.896 149785456 137853360 125715960 114064088 103463336 94262696 86638784 
936.271 80624960 76147648 73079536 71274952 70603176 70940712 72161008 
939.646 74122456 76625624 79407256 82168616 84567624 86291464 87114128 
943.020 86916560 85722520 83678848 81035936 78078512 75077016 72263408 
946.395 69785608 67717352 66069940 64811908 63890108 63246168 62830700 
949.770 62602044 62526768 62578544 62733336 62970332 63273192 63629472 
953.145 64031652 64475952 64959644 65479704 66031360 66608676 67205976 
956.520 67819440 68447392 69090224 69748840 70422720 71109712 71805992 
959.894 72507776 73213560 73923912 74642040 75371288 76113688 76868552 
963.269 77633168 78403536 79177176 79954032 80736160 81526528 82327224 
966.644 83138312 83957792 84783496 85614800 86453280 87302992 88168768 
970.019 89053776 89958712 90882296 91822824 92780864 93759984 94765952 
973.394 95805696 96884376 98003448 99161752 100356504 101586368 102852520 
976.768 104158224 105506752 106898568 108329640 109791456 111272688 
979.661 112762248 114250560 115728808 117187752 118615264 119995112 
982.554 121310520 122546520 123694856 124756624 125740888 126661672 
985.447 127532912 128366144 129169688 129950552 130717632 131483048 
988.339 132260712 133064808 133904960 134785856 135707392 136667872 
991.232 137667616 138710432 139802240 140948448 142150000 143401728 
994.125 144694288 146016752 147362064 148728112 150116880 151530864 
997.017 152968544 154422976 155883264 157338448 158782480 160217040 
999.910 161650320 163093248 164554208 166037184 167542160 169068448 
1002.803 170619648 172204800 173836192 175526144 177281600 179102096 
1005.695 180981760 182914928 184900112 186942672 189052160 191236688 
1008.588 193496928 195823088 198195728 200591344 202990048 205376624 
1011.481 207740912 210073920 212361712 214584576 216721920 218757008 
1014.374 220685120 222514960 224265824 225957056 227601088 229198336 
1017.266 230738528 232207776 233594176 234893136 236105632 237233680 
1020.159 238276608 239231168 240097632 240886256 241625664 242361328 
1023.052 243144864 244027872 245046320 246214496 247528192 248969904 
1025.945 250516720 252141024 253811120 255484320 257098912 258581216 
1028.838 259848720 260820304 261434976 261650768 261446208 260814752 
1031.731 259758176 258286528 256420528 254198320 251676800 248919440 
1034.624 245990176 242932496 239759408 236452288 232969488 229262480 
1037.517 225286848 221016336 216446544 211594336 206495984 201207120 
1040.410 195806864 190387008 185050912 179901776 175017824 170447760 
1043.303 166200768 162250288 158545328 155026656 151646336 148372896 
1046.196 145198480 142133504 139200640 136427024 133836704 131450760 
1049.089 129282384 127336696 125609488 124086744 122745160 121553824 
1051.982 120480952 119497592 118581088 117717744 116899952 116122400 
1054.875 115379000 114659688 113950824 113238224 112506984 111744112 
1057.768 110938216 110076856 109146936 108136288 107035400 105841600 
1060.661 104561400 103210624 101810792 100385352 98957176 97544496 96162448 
1064.037 94824640 93542480 92326712 91184704 90118480 89123248 88187240 
1067.412 87295648 86433392 85589464 84759768 83946576 83157176 82400400 
1070.787 81685936 81022600 80418280 79881392 79420224 79041576 78750240 
1074.162 78546992 78428456 78387176 78413576 78495704 78619016 78766048 
1077.538 78913288 79030528 79086776 79050960 78901128 78630264 78248968 
1080.913 77784576 77274632 76763672 76295104 75906264 75630552 75495696 
1084.288 75524720 75739648 76159720 76801992 77681624 78810584 80196920 
1087.663 81841456 83733928 85844432 88113768 90456152 92751416 94856344 
1091.039 96633728 97959648 98753688 98993632 98718128 98022336 97034904 
1094.414 95913616 94813472 93866656 93182608 92829240 92834408 93188736 
1097.789 93850040 94748720 95789952 96870216 97876696 98693968 99223160 
1101.164 99380416 99110752 98397296 97261544 95762648 93982112 92019648 
1104.540 89974528 87930960 85961376 84117424 82431448 80922184 79594824 
1107.915 78444136 77455904 76608984 75878088 75233560 74646880 74090704 
1111.290 73538104 72966128 72352912 71678968 70930248 70099216 69187624 
1114.665 68206448 67175960 66121600 65068788 64042440 63062504 62143064 
1118.041 61294740 60524320 59835872 59231908 58712632 58276764 57919968 
1121.416 57635872 57414776 57242172 57098740 56957920 56785160 56543776 
1124.791 56195752 55709736 55069156 54274624 53346460 52318560 51235860 
1128.166 50144432 49083004 48082052 47159260 46320584 45563076 44877644 
1131.542 44251988 43671748 43123168 42594316 42075788 41562872 41055728 
1134.917 40559324 40081440 39631236 39217540 38846596 38522488 38247800 
1138.292 38023264 37849484 37726624 37654020 37629920 37651604 37715996 
1141.667 37819768 37960880 38137956 38350104 38595928 38872616 39175800 
1145.042 39500324 39840812 40192252 40550524 40911092 41268104 41614648 
1148.418 41942164 42242464 42510232 42743208 42943900 43118192 43274356 
1151.793 43421064 43566240 43717076 43879616 44059272 44260572 44486528 
1155.168 44737900 45012836 45306956 45614304 45928016 46241224 46547056 
1158.543 46837052 47102236 47331632 47513200 47636420 47692328 47674912 
1161.919 47581148 47409860 47161180 46835316 46433804 45959876 45419028 
1165.294 44820368 44175064 43494892 42792420 42078344 41361756 40651516 
1168.669 39955732 39282644 38640760 38037112 37477104 36963884 36498192 
1172.044 36079584 35707892 35384396 35111608 34893212 34732596 34632396 
1175.420 34593388 34615924 34700256 34847972 35061968 35346544 35706236 
1178.795 36145404 36667932 37277912 37980916 38784604 39697632 40729460 
1182.170 41888960 43182124 44613812 46188260 47909308 49781724 51809012 
1185.545 53990768 56318820 58773440 61324388 63925884 66520228 69041864 
1188.921 71411352 73545240 75361040 76779336 77741224 78214688 78200680 
1192.296 77733688 76876416 75712904 74328560 72805576 71212440 69593560 
1195.671 67973512 66357480 64738364 63103460 61442928 59755716 58052124 
1199.046 56353752 54688900 53090948 51590452 50211712 48972132 47879416 
1202.422 46934128 46130264 45457804 44903804 44452204 44085200 43782488 
1205.797 43521296 43280508 43040144 42784852 42505552 42199084 41866848 
1209.172 41513320 41144856 40768548 40391328 40022036 39671060 39349820 
1212.547 39071452 38849204 38694728 38619140 38631344 38739352 38950132 
1215.923 39269440 39701480 40248484 40910548 41686308 42574508 43574996 
1219.298 44689456 45920832 47272332 48745724 50341172 52058316 53897388 
1222.673 55861268 57955972 60189952 62571348 65104664 67788448 70613464 
1226.048 73561888 76604912 79703728 82806528 85844032 88737800 91397392 
1229.424 93727008 95641464 97065976 97946640 98258008 98005984 97233808 
1232.799 96019000 94480480 92766552 91035128 89458104 88193328 87373528 
1236.174 87113392 87497120 88582888 90410648 92999840 96351112 100440216 
1239.549 105217216 110596128 116446904 122612824 128896936 135072064 
1242.442 140909664 146165376 150605264 154036976 156310016 157345632 
1245.335 157142512 155774640 153377360 150122736 146220800 141887568 
1248.229 137331568 132753416 128308472 124095520 120145432 116413848 
1251.122 112792368 109125808 105260664 101066712 96472040 91480664 86170512 
1254.497 80680296 75171280 69817592 64770444 60134044 55971012 52294716 
1257.872 49080704 46278376 43825404 41659392 39720580 37961172 36345200 
1261.247 34845924 33447168 32138922 30914750 29769492 28697610 27692530 
1264.623 26748370 25860446 25026946 24248750 23528292 22867280 22265756 
1267.998 21721146 21229610 20787638 20393968 20049716 19757678 19520106 
1271.373 19337536 19207576 19125402 19086310 19086552 19123842 19196876 
1274.748 19303830 19440956 19601974 19779074 19963982 20150078 20331394 
1278.124 20502504 20657938 20791358 20896378 20969290 21009526 21020724 
1281.499 21008202 20976836 20927216 20854416 20748642 20599600 20400600 
1284.874 20152230 19863766 19551334 19234970 18932890 18659310 18423480 
1288.249 18229656 18079578 17973200 17909454 17885422 17895816 17934006 
1291.625 17992330 18065174 18150568 18249698 18365926 18502306 18659968 
1295.000 18837064 19030328 19236980 19456204 19690862 19945628 20225886 
1298.375 20535502 20877082 21251428 21659598 22102528 22580776 23092224 
1301.750 23629182 24178472 24720318 25232044 25692944 26085856 26400770 
1305.125 26634492 26789990 26874580 26898970 26877646 26827206 26766060 
1308.501 26713308 26684204 26689208 26731984 26810324 26917938 27047264 
1311.876 27192078 27347386 27508928 27672330 27831306 27978894 28108676 
1315.251 28215976 28298864 28357502 28392202 28401894 28383392 28332780 
1318.626 28247340 28128544 27983028 27821346 27656086 27498868 27357480 
1322.002 27236810 27140332 27071172 27035486 27041868 27100196 27220864 
1325.377 27413802 27687516 28050602 28510292 29070186 29726734 30463848 
1328.752 31252522 32048270 32801092 33463706 33997488 34383680 34622776 
1332.127 34733708 34745552 34692112 34607204 34518296 34448488 34416816 
1335.503 34437300 34520592 34673556 34899460 35199632 35575888 36032496 
1338.878 36577016 37218200 37962072 38809312 39751876 40773608 41850428 
1342.253 42952788 44046400 45088296 46033032 46831956 47438392 47818004 
1345.628 47951340 47836836 47487880 46928512 46187452 45290440 44262004 
1349.004 43124632 41899540 40613532 39298128 37987384 36718772 35525044 
1352.379 34430412 33451286 32595030 31862672 31252772 30761718 30384278 
1355.754 30111452 29931298 29828826 29789470 29802814 29863254 29969354 
1359.129 30121042 30316268 30549476 30813080 31100902 31413670 31761028 
1362.505 32161970 32639034 33210684 33889288 34678112 35575132 36575360 
1365.880 37672308 38854132 40095504 41354648 42568624 43654016 44526244 
1369.255 45105608 45331816 45174832 44633640 43736168 42531424 41091636 
1372.630 39506272 37870668 36289648 34856728 33638708 32670900 31952110 
1376.006 31456844 31149562 31002568 31004524 31165082 31511280 32083408 
1379.381 32931502 34105464 35652424 37604664 39961872 42668296 45590528 
1382.756 48530960 51221616 53368976 54715472 55047644 54247592 52315012 
1386.131 49391776 45756312 41770568 37834080 34265488 31252238 28852892 
1389.507 27022122 25662642 24661398 23920930 23364028 22932806 22590410 
1392.882 22312634 22087362 21912178 21791094 21730306 21733128 21798482 
1396.257 21920610 22091548 22302136 22543014 22804070 23072794 23336302 
1399.632 23583632 23807932 24008184 24187476 24350718 24502140 24644248 
1403.008 24779846 24913274 25052428 25209256 25396244 25623168 25893820 
1406.383 26205184 26550406 26921568 27314500 27729118 28168668 28636658 
1409.758 29135378 29664114 30220420 30801554 31405122 32027650 32660042 
1413.133 33285946 33881264 34417032 34870408 35230608 35504368 35713576 
1416.509 35891108 36073536 36292244 36573592 36936828 37392736 37946704 
1419.884 38596216 39329144 40127412 40969388 41836528 42718236 43618368 
1423.259 44556828 45566976 46683544 47930104 49311408 50812828 52408648 
1426.634 54071328 55781088 57521584 59274744 61015868 62706308 64297140 
1430.010 65741764 67006940 68085352 68997856 69790984 70523968 71254488 
1433.385 72036808 72917528 73943760 75174504 76682392 78545488 80827864 
1436.760 83542280 86643968 90046888 93650904 97358424 101063824 104650056 
1440.135 107955784 110779840 112924576 114204616 114496624 113760352 
1443.028 112031688 109410032 106027616 102045592 97624432 92907408 88035640 
1446.404 83139432 78354752 73841984 69762536 66253224 63393036 61181088 
1449.779 59551968 58406872 57657820 57245200 57144468 57354008 57873212 
1453.154 58686460 59766212 61074212 62580420 64274936 66158756 68232616 
1456.529 70469880 72806904 75152640 77424304 79580776 81616920 83549592 
1459.905 85401376 87191920 88932128 90618624 92234592 93738968 95061016 
1463.280 96116472 96817328 97110520 97006528 96589312 95987096 95320672 
1466.655 94680560 94110160 93616872 93191024 92815168 92465088 92099104 
1470.030 91649008 91015432 90071144 88704992 86868032 84618024 82110008 
1473.406 79538592 77064048 74768328 72673552 70779216 69095432 67662792 
1476.781 66542552 65787332 65427272 65456168 65843732 66553092 67559728 
1480.156 68861976 70477672 72433112 74746912 77421688 80443088 83790344 
1483.531 87447072 91412976 95699128 100311584 105234904 110397584 115644864 
1486.906 120748784 125390920 129194184 131787496 132833720 132120056 
1489.800 129628096 125565336 120332432 114402920 108231680 102138264 
1492.693 96283976 90723712 85432800 80366928 75513792 70907896 66638844 
1496.068 62830432 59593508 56987768 55004580 53589148 52663340 52153388 
1499.443 52005912 52181676 52650740 53386136 54356516 55524484 56850268 
1502.818 58279380 59744352 61159384 62392060 63263880 63552060 63021928 
1506.194 61532788 59135912 56088928 52726636 49314896 45985400 42764448 
1509.569 39637880 36599292 33662372 30873054 28290906 25963708 23921910 
1512.944 22167624 20680490 19428934 18378472 17496062 16748555 16105957 
1516.319 15545279 15054095 14634638 14298755 14057545 13911706 13845749 
1519.695 13828167 13823036 13802137 13761846 13727647 13741463 13836308 
1523.070 14018873 14271635 14564836 14872980 15182509 15497856 15836695 
1526.445 16221097 16664330 17166164 17715444 18298356 18907556 19544576 
1529.820 20218250 20940116 21716998 22549854 23432496 24353872 25302810 
1533.196 26270688 27252932 28244440 29240344 30230898 31203566 32141168 
1536.571 33024628 33836952 34558120 35169632 35653648 35993720 36175188 
1539.946 36189700 36045168 35766496 35391836 34959460 34493544 33997200 
1543.321 33454578 32842976 32147232 31374812 30557154 29740856 28966750 
1546.697 28250522 27581546 26928476 26257310 25547186 24804260 24059908 
1550.072 23360392 22741846 22215922 21768834 21372880 21002744 20646716 
1553.447 20312158 20020154 19792146 19635808 19538890 19470030 19387424 
1556.822 19239266 18966948 18515792 17855110 17014626 16093990 15223446 
1560.198 14495115 13934116 13517550 13201349 12940778 12696090 12439231 
1563.573 12156729 11852515 11545996 11264176 11030729 10854308 10727269 
1566.948 10628889 10536237 10430468 10303927 10162090 10020436 9898047 
1570.323 9808498 9757936 9745873 9769525 9825037 9907709 10010297 10119965 
1574.181 10220060 10294765 10334837 10346849 10354416 10390456 10479412 
1577.556 10629739 10834604 11081847 11362053 11673513 12022053 12418126 
1580.931 12871692 13387817 13964876 14594990 15266446 15963107 16664261 
1584.306 17344410 17969780 18504276 18916068 19182536 19298980 19280864 
1587.682 19165362 19004228 18857966 18791426 18859038 19104834 19557504 
1591.057 20225470 21093762 22117312 23225518 24317392 25274046 25983724 
1594.432 26347466 26304586 25844516 25008728 23881964 22569676 21186988 
1597.807 19830956 18572502 17460844 16520264 15758455 15170156 14742635 
1601.183 14458665 14301220 14257802 14321218 14489120 14760939 15134131 
1604.558 15600882 16147772 16754065 17392000 18029046 18623410 19127998 
1607.933 19496540 19684656 19661080 19412752 18947462 18295140 17503860 
1611.308 16637681 15760034 14925067 14170704 13510954 12942929 12450620 
1614.684 12014116 11614327 11238707 10887058 10569099 10301992 10101245 
1618.059 9974833 9920623 9928285 9981783 10062415 10152796 10237124 10306403 
1621.916 10360084 10406168 10457485 10526969 10621352 10739631 10876084 
1625.292 11023354 11176622 11333313 11491965 11650743 11806106 11954339 
1628.667 12093661 12226724 12360543 12503781 12663680 12842375 13035892 
1632.042 13233765 13422091 13586227 13711403 13786506 13805078 13769405 
1635.417 13691740 13593201 13497999 13423732 13377053 13354740 13346164 
1638.792 13337417 13314833 13269600 13199403 13110536 13014519 12924973 
1642.168 12850872 12793471 12745324 12692542 12619197 12510125 12355804 
1645.543 12156354 11922699 11675930 11442363 11248296 11111352 11039056 
1648.918 11029268 11072228 11151635 11243366 11317261 11333143 11249010 
1652.293 11041163 10731480 10395987 10122271 9959813 9902183 9913878 9955541 
1656.151 9999854 10032439 10048918 10051869 10045799 10034610 10019079 
1659.526 9996701 9963203 9914454 9847237 9760817 9657168 9541621 9423160 
1663.384 9312788 9221599 9158077 9124847 9118892 9131141 9149245 9157604 
1667.241 9142342 9094192 9010627 8897924 8769056 8640631 8526504 8435818 
1671.098 8371802 8332925 8314281 8306816 8298576 8274496 8219722 8125690 
1674.956 7996443 7850703 7713949 7608697 7543488 7512270 7499830 7489784 
1678.813 7471581 7443536 7413605 7393619 7393383 7411920 7436188 7440503 
1682.671 7394563 7273485 7074569 6826869 6583011 6391540 6271246 6213464 
1686.528 6194305 6190810 6185466 6168494 6137071 6091572 6035527 5973611 
1690.385 5912913 5861828 5828581 5819010 5832879 5862567 5892391 5902467 
1694.243 5873448 5795437 5677187 5547358 5444374 5393143 5396498 5434443 
1698.100 5475747 5484437 5430954 5304317 5122562 4931667 4780049 4696171 
1701.958 4677817 4704813 4751675 4796968 4825847 4829700 4807956 4767286 
1705.815 4719216 4676008 4646670 4635082 4640106 4657320 4681200 4707627 
1709.673 4734491 4762596 4794589 4833553 4881267 4937766 5000708 5067078 
1713.530 5134363 5200620 5264405 5323470 5372344 5402436 5404483 5372311 
1717.387 5308745 5227817 5150625 5095808 5073380 5082365 5113879 5155990 
1721.245 5196965 5229728 5251359 5263332 5269033 5272655 5277049 5283422 
1725.102 5291941 5303210 5317600 5335109 5354364 5372210 5384555 5388413 
1728.960 5383884 5375598 5370097 5373921 5387742 5404550 5407972 5375229 
1732.817 5284931 5127423 4916720 4690243 4495018 4362964 4299512 4289306 
1736.675 4307578 4331003 4340842 4326853 4287332 4229679 4166113 4110183 
1740.532 4071383 4052922 4052821 4066300 4087973 4113829 4141225 4169626 
1744.389 4200170 4235100 4276591 4325682 4381941 4442627 4503287 4558900 
1748.247 4605278 4638666 4657085 4659497 4646268 4619945 4585219 4549860 
1752.104 4522371 4509247 4513197 4531612 4556624 4576748 4580632 4559570 
1755.962 4511691 4443631 4368420 4300148 4248048 4213352 4189163 4165143 
1759.819 4129851 4075832 4001353 3911841 3817167 3728529 3655446 3602922 
1763.677 3571718 3559458 3562164 3574157 3589024 3600283 3602922 3595505 
1767.534 3580939 3566507 3560360 3567108 3585783 3608502 3623771 3619728 
1771.391 3590995 3540750 3483464 3436906 3414864 3422412 3455074 3503472 
1775.249 3558255 3613747 3668077 3722045 3776890 3832076 3883992 3928191 
1779.106 3960791 3980486 3990251 3995768 4003293 4016234 4034828 4055330 
1782.964 4073558 4085699 4091017 4091084 4089679 4090381 4095967 4107574 
1786.821 4125536 4150190 4181770 4219642 4261834 4302826 4335220 4350146 
1790.678 4339671 4300516 4235535 4154706 4070548 3995267 3936182 3894356 
1794.536 3867042 3849859 3838761 3830504 3822917 3813891 3801256 3783040 
1798.393 3758039 3726290 3689964 3651603 3614282 3579937 3549403 3522412 
1802.251 3498996 3479590 3465495 3458347 3458682 3466096 3478788 3494821 
1806.108 3512357 3531297 3552042 3575360 3600984 3627379 3651436 3670449 
1809.966 3682813 3689897 3694342 3700825 3712588 3731035 3755165 3782672 
1813.823 3810916 3838560 3865337 3892550 3921738 3953736 3988545 4025364 
1817.680 4062788 4100215 4137077 4173272 4208902 4243966 4277829 4310221 
1821.538 4340441 4367617 4390041 4405103 4409923 4402593 4383883 4358379 
1825.395 4333547 4317215 4314471 4325448 4345126 4364504 4373574 4365943 
1829.253 4341277 4306607 4273512 4254406 4256882 4281543 4323239 4374611 
1833.110 4429104 4482664 4534491 4585956 4638766 4693492 4749833 4806851 
1836.968 4864111 4923356 4988005 5062385 5150659 5255182 5376001 5510645 
1840.825 5655200 5804671 5952851 6094025 6222976 6337272 6438988 6534538 
1844.682 6634080 6746600 6876486 7022102 7176593 7329858 7471716 7594805 
1848.540 7695804 7774731 7834070 7875637 7899323 7903237 7884105 7840042 
1852.397 7771897 7683628 7580879 7469120 7351661 7229112 7100704 6965466 
1856.255 6824446 6680847 6539180 6402838 6273229 6149035 6027934 5908009 
1860.112 5789930 5676247 5571219 5477928 5397370 5327529 5265612 5209775 
1863.969 5160315 5119846 5091483 5076431 5072106 5072341 5069022 5055345 
1867.827 5029434 4994976 4960388 4934649 4924227 4929824 4947753 4971649 
1871.684 4996350 5018104 5035333 5047367 5053501 5052429 5043143 5025177 
1875.542 5000004 4970409 4939810 4909917 4880395 4848329 4809933 4762562 
1879.399 4705650 4641512 4573868 4506367 4440518 4375515 4310221 4243699 
1883.257 4177354 4115066 4061450 4020114 3992023 3974267 3961928 3949790 
1887.114 3934978 3916823 3897532 3879846 3865738 3856445 3851431 3850528 
1890.971 3854774 3866073 3886131 3915486 3952064 3992424 4032320 4068808 
1894.829 4100750 4129450 4157248 4184847 4212214 4237308 4258923 4277460 
1898.686 4296267 4320260 4354631 4401556 4459130 4522706 4585721 4643053 
1902.544 4692822 4736299 4776096 4814322 4851077 4884115 4910253 4927913 
1906.401 4936425 4938738 4937766 4935588 4932270 4926103 4914508 4896681 
1910.259 4873962 4849402 4827188 4809832 4797805 4789497 4783433 4778977 
1914.116 4776967 4779178 4785142 4791909 4793115 4781389 4750737 4701464 
1917.973 4639269 4575977 4521768 4484037 4461808 4449121 4436702 4417120 
1921.831 4386996 4348406 4306942 4268526 4236672 4211345 4190334 4171365 
1925.688 4153568 4138348 4127108 4120351 4116003 4110183 4099111 4081350 
1929.546 4059543 4038474 4023759 4018341 4020549 4025163 4025498 4017505 
1933.403 4000952 3980486 3961961 3950593 3947717 3950894 3955775 3959320 
1937.260 3961092 3964102 3972695 3989248 4012924 4039577 4063089 4078207 
1941.118 4083324 4079545 4070179 4058674 4045697 4030882 4013392 3994364 
1944.975 3977310 3967780 3970622 3986940 4013592 4043055 4068005 4083424 
1948.833 4089813 4091786 4096168 4109146 4133363 4167652 4208534 4251193 
1952.690 4292485 4329531 4359350 4377624 4379297 4359483 4317383 4256781 
1956.548 4186554 4118311 4063156 4025632 4005132 3995400 3989616 3982760 
1960.405 3976106 3972929 3978380 3993728 4016234 4039076 4057136 4066534 
1964.262 4069477 4070815 4076200 4087839 4104463 4121388 4135170 4144971 
1968.120 4155140 4170596 4195386 4227003 4258856 4281777 4288470 4277260 
1971.977 4253469 4225798 4202312 4187055 4179495 4176383 4177956 4189832 
1975.835 4223055 4288737 4392585 4526121 4669980 4796432 4882674 4914308 
1979.692 4892794 4830404 4746181 4658425 4579058 4515072 4469240 4441589 
1983.550 4432986 4443430 4470579 4508175 4547851 4580598 4599987 4606650 
1987.407 4605713 4605311 4612142 4626911 4644928 4659363 4663750 4657923 
1991.264 4648210 4645129 4658391 4692018 4742430 4800318 4855165 4898993 
1995.122 4929254 4948892 4963203 4976107 4989446 5002049 5011199 5016227 
1998.979 5017299 5016797 5017031 5017869 5016193 5009221 4994205 4971615 
2002.837 4945239 4919837 4897921 4879625 4860827 4837172 4806214 4770234 
2006.694 4734323 4705852 4688468 4680396 4673865 4661205 4635216 4596437 
2010.552 4550965 4508443 4476940 4460837 4457590 4462244 4470044 4480187 
2014.409 4496156 4523644 4565764 4621084 4683913 4745444 4798944 4844107 
2018.266 4884450 4926875 4976341 5033288 5091752 5145227 5187174 5216683 
2022.124 5237240 5255719 5276982 5302036 5326589 5344535 5350774 5345407 
2025.981 5332459 5319008 5311026 5309717 5312233 5313072 5307336 5294020 
2029.839 5276076 5258267 5245624 5240560 5243209 5253773 5274701 5310992 
2033.696 5368319 5451051 5556151 5674367 5792482 5897395 5981640 6046446 
2037.553 6098662 6147590 6199582 6254572 6305670 6344400 6362858 6359429 
2041.411 6338718 6310444 6284289 6266942 6260186 6260791 6264388 6267111 
2045.268 6267615 6267884 6271414 6281700 6301265 6329943 6365985 6404991 
2049.126 6440031 6463000 6465051 6440568 6388581 6314545 6230303 6149674 
2052.983 6086699 6050243 6040802 6051117 6070571 6087909 6096679 6096477 
2056.841 6091673 6087640 6087708 6090295 6090665 6084246 6068420 6044935 
2060.698 6020005 6000419 5990945 5993532 6005424 6022223 6040936 6059752 
2064.555 6079442 6101215 6124872 6147691 6165973 6175921 6175988 6167754 
2068.413 6155420 6142582 6131661 6121848 6111162 6096847 6079442 6061432 
2072.270 6047387 6041642 6044800 6054107 6064254 6068588 6062977 6046850 
2076.128 6022558 5994305 5966187 5939918 5915432 5892290 5870392 5850577 
2079.985 5835230 5825256 5820622 5819010 5817129 5812126 5803933 5794295 
2083.843 5786740 5783785 5785967 5790769 5794564 5793187 5784692 5769313 
2087.700 5749335 5727041 5703137 5677053 5646640 5611596 5573468 5536652 
2091.557 5506920 5489303 5485242 5493363 5508765 5526719 5544304 5561218 
2095.415 5578603 5598506 5620827 5643081 5661510 5673025 5676348 5673998 
2099.272 5670003 5668291 5670876 5677355 5684808 5691052 5695215 5699915 
2103.130 5708207 5723718 5746918 5776062 5807391 5837715 5866093 5894708 
2106.987 5927322 5967497 6016276 6071747 6129342 6185231 6237160 6285499 
2110.844 6333003 6382159 6432867 6482237 6524582 6555023 6570901 6573659 
2114.702 6567974 6560977 6559060 6566090 6583213 6609756 6644274 6685457 
2118.559 6732399 6783721 6836361 6886248 6928531 6959574 6977991 6985668 
2122.417 6986611 6985331 6985298 6987587 6991762 6996241 6999642 7002605 
2126.274 7005400 7009070 7013279 7015940 7013987 7005231 6988833 6966105 
2130.132 6940483 6914897 6892139 6873186 6858005 6846257 6838650 6835991 
2133.989 6839188 6847974 6860025 6871133 6877798 6878270 6873254 6866252 
2137.846 6861237 6859621 6860698 6860059 6853663 6839525 6819700 6798866 
2141.704 6783283 6776990 6779446 6786379 6791529 6789038 6777225 6758446 
2145.561 6737076 6717121 6700532 6684549 6666278 6642592 6613793 6581833 
2149.419 6550381 6519402 6486004 6444469 6388682 6315352 6227412 6130552 
2153.276 6032033 5936862 5844096 5749671 5651104 5552962 5469841 5425116 
2157.134 5446354 5551150 5741311 5996051 6279616 6553341 6786817 6964321 
2160.991 7087973 7167194 7214255 7237299 7241578 7229988 7206439 7177502 
2164.848 7149981 7129973 7119701 7114749 7108956 7095686 7071909 7039108 
2168.706 7002840 6967620 6936746 6909409 6881871 6850532 6815324 6778639 
2172.563 6746970 6727217 6722640 6732735 6753431 6777932 6799943 6815223 
2176.421 6820609 6814786 6796645 6765547 6721933 6669643 6614264 6564476 
2180.278 6527710 6509345 6509312 6524885 6550348 6581228 6616181 6655512 
2184.135 6699825 6748384 6796880 6839155 6869854 6887123 6892610 6893216 
2187.993 6896078 6906245 6925300 6949978 6975129 6997015 7014761 7030419 
2191.850 7047392 7068541 7092318 7115288 7132432 7140920 7140280 7134420 
2195.708 7127649 7124348 7125628 7129838 7133813 7135935 7135430 7134218 
2199.565 7135093 7138529 7142470 7143649 7137485 7121553 7097033 7068069 
2203.423 7038838 7013818 6992705 6973782 6953715 6931965 6910116 6893654 
2207.280 6888167 6897525 6921596 6955836 6993850 7028871 7057259 7077971 
2211.137 7092924 7104510 7113739 7121149 7126403 7129603 7133072 7140483 
2214.995 7153956 7174773 7201049 7228304 7251551 7268599 7279078 7286120 
2218.852 7293162 7302192 7311998 7319850 7321029 7313076 7297273 7277764 
2222.710 7260580 7251652 7253302 7264354 7281403 7299800 7316041 7328712 
2226.567 7337844 7343607 7346370 7345089 7338619 7327061 7311324 7293667 
2230.425 7276382 7261187 7247811 7235244 7222172 7208158 7194783 7184913 
2234.282 7181140 7185722 7198523 7217590 7240938 7266847 7295521 7327364 
2238.139 7363591 7402820 7442794 7479705 7509708 7530677 7543117 7549085 
2241.997 7551951 7554142 7556806 7559469 7561829 7563582 7565740 7570596 
2245.854 7579632 7592984 7609574 7625995 7639282 7647611 7651220 7651557 
2249.712 7651793 7653277 7656818 7661674 7667036 7672398 7679211 7689497 
2253.569 7705281 7727272 7754626 7784412 7813222 7837613 7855156 7864941 
2257.427 7867134 7861938 7850298 7833564 7813255 7792036 7773280 7759383 
2261.284 7751557 7749736 7752029 7756313 7761811 7768828 7779892 7797703 
2265.141 7823814 7857552 7896556 7936306 7972414 8002553 8025200 8041165 
2268.999 8051358 8056422 8056286 8050683 8040287 8026921 8013893 8004713 
2272.856 8001911 8005928 8015412 8027090 8038532 8047848 8055173 8061721 
2276.714 8068404 8075290 8081502 8084742 8083797 8078498 8070633 8062733 
2280.571 8057873 8058076 8063173 8072084 8082987 8094768 8106955 8120458 
2284.428 8135650 8153206 8172687 8193385 8214083 8234513 8254233 8273449 
2288.286 8291719 8308201 8321880 8332249 8339511 8345658 8353460 8365621 
2292.143 8383253 8406056 8430852 8453893 8472172 8484605 8492545 8499336 
2296.001 8509068 8524780 8547759 8576686 8608658 8640395 8668585 8691233 
2299.858 8707290 8716485 8719020 8715876 8708067 8696539 8683018 8668855 
2303.716 8655030 8642524 8631843 8623393 8618324 8618155 8624036 8637285 
2307.573 8657464 8683052 8711008 8737952 8760908 8778523 8790661 8798640 
2311.430 8804084 8808751 8813552 8818725 8824440 8830695 8838202 8847569 
2315.288 8859202 8873101 8888725 8905196 8921836 8938645 8956064 8974939 
2319.145 8996250 9020403 9047164 9075989 9105459 9133442 9157502 9174050 
2323.003 9179566 9170903 9146233 9106203 9054098 8995607 8937428 8885885 
2326.860 8845743 8818421 8803239 8797491 8797896 8801819 8808108 8816392 
2330.718 8826638 8838709 8851898 8865289 8878411 8891397 8905331 8921734 
2334.575 8941520 8964351 8989789 9016005 9041987 9067530 9093075 9119839 
2338.432 9148331 9177942 9207047 9233649 9256157 9273961 9288178 9299958 
2342.290 9310689 9320168 9326702 9327785 9321962 9309132 9292410 9276906 
2346.147 9269933 9278125 9306288 9356967 9429188 9520317 9625221 9738010 
2350.005 9852423 9962085 10062144 10149642 10224776 10289609 10348478 
2353.380 10406202 10465766 10528360 10593069 10657617 10720001 10779642 
2356.755 10837185 10894668 10954504 11018528 11087557 11161154 11238299 
2360.130 11317499 11397325 11476179 11551713 11622053 11685085 11739924 
2363.506 11786972 11827897 11864978 11900802 11936186 11970688 12003216 
2366.881 12031727 12054585 12071040 12080783 12083372 12078467 12065010 
2370.256 12042015 12009790 11970244 11926821 11884354 11848055 11821326 
2373.631 11807161 11806413 11819079 11845296 11885444 11940034 12009858 
2377.007 12094990 12194758 12307672 12432378 12567556 12712637 12867494 
2380.382 13031692 13204287 13383375 13566091 13748679 13928642 14102963 
2383.757 14269786 14427802 14574739 14708290 14825905 14924725 15002815 
2387.132 15059377 15094608 15110149 15107645 15089325 15057045 15012659 
2390.508 14957749 14894068 14822681 14744657 14660306 14569668 14473087 
2393.883 14371390 14266361 14161187 14058982 13963130 13875784 13798238 
2397.258 13730930 13674438 13629613 13598192 13582671 13584756 13605577 
2400.633 13644724 13700221 13769610 13850504 13941575 14042589 14154273 
2404.009 14277490 14412833 14560588 14720355 14891496 15074128 15267819 
2407.384 15472137 15686721 15910001 16140584 16377311 16619503 16866860 
2410.759 17119804 17378068 17640350 17904136 18165320 18418986 18660660 
2414.134 18885408 19089114 19268844 19421310 19544056 19635530 19695716 
2417.510 19726192 19730526 19713676 19680392 19635392 19581280 19519170 
2420.885 19448754 19369444 19280518 19182884 19078486 18970028 18860906 
2424.260 18754648 18654296 18562854 18482980 18417222 18368000 18337756 
2427.635 18327974 18339968 18374808 18432988 18514686 18620088 18748696 
2431.010 18899768 19071942 19263408 19472698 19698316 19938900 20193188 
2434.386 20460510 20740160 21031192 21333866 21647792 21973758 22312530 
2437.761 22665422 23033730 23418612 23821476 24243948 24687490 25153638 
2441.136 25643520 26157638 26695374 27255224 27835724 28435430 29053182 
2444.511 29688914 30342204 31012496 31698472 32398098 33108364 33826708 
2447.887 34550584 35278040 36007584 36737952 37467316 38193312 38913236 
2451.262 39623724 40321120 41001612 41660708 42292932 42892728 43454020 
2454.637 43970568 44436972 44847256 45195532 45476128 45682248 45807192 
2458.012 45845968 45794420 45650628 45414948 45088848 44674880 44176236 
2461.388 43596060 42938524 42208796 41413728 40560888 39659584 38719252 
2464.763 37749284 36759588 35760272 34761132 33772668 32805704 31869448 
2468.138 30973318 30125088 29330092 28592846 27915746 27299716 26744740 
2471.513 26249496 25811074 25425544 25087812 24791632 24530396 24298504 
2474.889 24090764 23903634 23734364 23580764 23440226 23310116 23187838 
2478.264 23070420 22956104 22843252 22731336 22620042 22508744 22396846 
2481.639 22283544 22168146 22050828 21932460 21814856 21700420 21591062 
2485.014 21488138 21391606 21301084 21215624 21133904 21055850 20981566 
2488.390 20911466 20846002 20786352 20731820 20682438 20637230 20594980 
2491.765 20554088 20513514 20471798 20428906 20384836 20340144 20295980 
2495.140 20253068 20211618 20170974 20130086 20086986 20040208 19988684 
2498.515 19931996 19869732 19802862 19731672 19656920 19579686 19501012 
2501.891 19422176 19344742 19269642 19197602 19129106 19064186 19003154 
2505.266 18946976 18896654 18853120 18817236 18788138 18763642 18740706 
2508.641 18715660 18685288 18647932 18603280 18551718 18494770 18433056 
2512.016 18366582 18294898 18217528 18133778 18043966 17949200 17850586 
2515.392 17749580 17647664 17545706 17445148 17347618 17254794 17168750 
2518.767 17091300 17022894 16963562 16912814 16869202 16831762 16799834 
2522.142 16772868 16750483 16732680 16719146 16710296 16707508 16711777 
2525.517 16724829 16747521 16779100 16816676 16857010 16895418 16928454 
2528.893 16954674 16974656 16990886 17006458 17023722 17043986 17067040 
2532.268 17091922 17117494 17143518 17170714 17199670 17231420 17266242 
2535.643 17303100 17341202 17379448 17417418 17455806 17495960 17538876 
2539.018 17585520 17636346 17690630 17747784 17807296 17868608 17931382 
2542.394 17995164 18059094 18122274 18183700 18242822 18299842 18355730 
2545.769 18411762 18469358 18529830 18593078 18658550 18725034 18790596 
2549.144 18853120 18911018 18962482 19006686 19043416 19073326 19097772 
2552.519 19119098 19139528 19160374 19183022 19207508 19232894 19258592 
2555.895 19282976 19305354 19324786 19340516 19351532 19357178 19356554 
2559.270 19349036 19334280 19312490 19283462 19247196 19203038 19150610 
2562.645 19089254 19019356 18941924 18859038 18773676 18688402 18605564 
2566.020 18527202 18453972 18386424 18325174 18270640 18223850 18185738 
2569.396 18157028 18137646 18127698 18125728 18130598 18141276 18156578 
2572.771 18175478 18197694 18222952 18251356 18283254 18319472 18360568 
2576.146 18407128 18458916 18515274 18575028 18636932 18699470 18762016 
2579.521 18824260 18885960 18947842 19010528 19074644 19141294 19211628 
2582.896 19286544 19366914 19453016 19544056 19638754 19735208 19831546 
2586.272 19926306 20019286 20110618 20200962 20291362 20381674 20471658 
2589.647 20560758 20647410 20730638 20809990 20884938 20955764 21023296 
2593.022 21088474 21152480 21216738 21281978 21348970 21418094 21488832 
2596.397 21561078 21634732 21710068 21787890 21869526 21955846 22046960 
2599.773 22142450 22240994 22341446 22443772 22548598 22658126 22775016 
2603.148 22901402 23038482 23185254 23340042 23499402 23661022 23823192 
2606.523 23985458 24148346 24313082 24479948 24648948 24818750 24987846 
2609.898 25154200 25316016 25471498 25618988 25756646 25882672 25995156 
2613.274 26092750 26174108 26238972 26287336 26319652 26336586 26339050 
2616.649 26327750 26303918 26269138 26225492 26175200 26121040 26065484 
2620.024 26010634 25958150 25908594 25862520 25819550 25779218 25740614 
2623.399 25703348 25667282 25632694 25600956 25573826 25553266 25541038 
2626.775 25538788 25546730 25564862 25592136 25627072 25668372 25714950 
2630.150 25765928 25821202 25880598 25944150 26011866 26083708 26159116 
2633.525 26237494 26318456 26401158 26485462 26571578 26659892 26751260 
2636.900 26846310 26945366 27048110 27154052 27261718 27370148 27478252 
2640.276 27585608 27692000 27797606 27902390 28006070 28108182 28208160 
2643.651 28305194 28399346 28490902 28580530 28669292 28758498 28849244 
2647.026 28942700 29039860 29141402 29247928 29359764 29476698 29598630 
2650.401 29724926 29854984 29988276 30125018 30265286 30409578 30558824 
2653.777 30713280 30873658 31040220 31213428 31393156 31579796 31772900 
2657.152 31972222 32177168 32387034 32601494 32820102 33042430 33268668 
2660.527 33498812 33732484 33969252 34208340 34448528 34688412 34927180 
2663.902 35163668 35397588 35629008 35858540 36087436 36316916 36548540 
2667.278 36783280 37021940 37264372 37510120 37759044 38010712 38265352 
2670.653 38523324 38785436 39051912 39322576 39596644 39872440 40148236 
2674.028 40422276 40692852 40958972 41219460 41473256 41719684 41957928 
2677.403 42187688 42410008 42626192 42838748 43050572 43264696 43484124 
2680.779 43711396 43949380 44200336 44466816 44751128 45054952 45379448 
2684.154 45724580 46090136 46474772 46877316 47296716 47731716 48181704 
2687.529 48645240 49121476 49609232 50107948 50617328 51137852 51670308 
2690.904 52214968 52772244 53341664 53921920 54512460 55112116 55720660 
2694.280 56338360 56965516 57602392 58248804 58904412 59568540 60240576 
2697.655 60919864 61606248 62299228 62998100 63701944 64409152 65118828 
2701.030 65830008 66542008 67254328 67965264 68672512 69372008 70059192 
2704.405 70728608 71374872 71993392 72579952 73131016 73643296 74113736 
2707.781 74539352 74917760 75247000 75525856 75753688 75930056 76055024 
2711.156 76128296 76150208 76121664 76043816 75918496 75747256 75531344 
2714.531 75270992 74966072 74615840 74219888 73778520 73292984 72765176 
2717.906 72197632 71593816 70957408 70292864 69605576 68901464 68186872 
2721.281 67468728 66752924 66045476 65351620 64675832 64022900 63397288 
2724.657 62802820 62242936 61720204 61235792 60790260 60383832 60016204 
2728.032 59687780 59399184 59150796 58943044 58775488 58646792 58555248 
2731.407 58498796 58475632 58484312 58524200 58594268 58693480 58821052 
2734.782 58975000 59153456 59354132 59574660 59812184 60063728 60325768 
2738.158 60593760 60863748 61131120 61391592 61642220 61880112 62103268 
2741.533 62310704 62501744 62677176 62838436 62988184 63129708 63266328 
2744.908 63401236 63536412 63673280 63812116 63952984 64095744 64240588 
2748.283 64387368 64536416 64687484 64840028 64993700 65148236 65303600 
2751.659 65460676 65620968 65786444 65959616 66143668 66341536 66557072 
2755.034 66793344 67052984 67337504 67646792 67978856 68330296 68696568 
2758.409 69072624 69453328 69834016 70209544 70574448 70923192 71249576 
2761.784 71547248 71810688 72034816 72215936 72351504 72439848 72480096 
2765.160 72472304 72416752 72315336 72170672 71986632 71767800 71519856 
2768.535 71248952 70961304 70663800 70363344 70066088 69777552 69501936 
2771.910 69241608 68997744 68770240 68558152 68360848 68177880 68008856 
2775.285 67853328 67710496 67578344 67453824 67332784 67209648 67077964 
2778.661 66931360 66762588 66564752 66332660 66062144 65751284 65401076 
2782.036 65014520 64596856 64154392 63694000 63222564 62746308 62270928 
2785.411 61801644 61342516 60896952 60467264 60053908 59656224 59272544 
2788.786 58900924 58539364 58186628 57842588 57507588 57182940 56869680 
2792.162 56569136 56281892 56008364 55748464 55501364 55266032 55040572 
2795.537 54822748 54610288 54400116 54189740 53976732 53759176 53535620 
2798.912 53305136 53067364 52821712 52568008 52305968 52034784 51753768 
2802.287 51462264 51159212 50844564 50518568 50182292 49837504 49486156 
2805.663 49130864 48773712 48417224 48063732 47715888 47376712 47049724 
2809.038 46737780 46443760 46169360 45915128 45681104 45466228 45269332 
2812.413 45089248 44924968 44775220 44639260 44515824 44403796 44302696 
2815.788 44212440 44133684 44068548 44019852 43990260 43982820 44000016 
2819.164 44043428 44114064 44212588 44339388 44494344 44677632 44888888 
2822.539 45127188 45391184 45678380 45985880 46310076 46646320 46989800 
2825.914 47335396 47677576 48010808 48329928 48629900 48905788 49153276 
2829.289 49367832 49545128 49682336 49776748 49827508 49835720 49804056 
2832.665 49736096 49637204 49512820 49368316 49209344 49041308 48868848 
2836.040 48695980 48526660 48363368 48208172 48062992 47929324 47809608 
2839.415 47706716 47623368 47563476 47531092 47529908 47564400 47640232 
2842.790 47763596 47943312 48190328 48516472 48936084 49462432 50105828 
2846.166 50871272 51755112 52742128 53801028 54887824 55945536 56906092 
2849.541 57702396 58273432 58570796 58568296 58262328 57672692 56836444 
2852.916 55805236 54638656 53394376 52128920 50891648 49720268 48643792 
2856.291 47679792 46835388 46108560 45489996 44966160 44519968 44134088 
2859.667 43793336 43482696 43191380 42910688 42634380 42358788 42082248 
2863.042 41804420 41526260 41249996 40978708 40715632 40464608 40229872 
2866.417 40015276 39824356 39660204 39524456 39417988 39341040 39292508 
2869.792 39271072 39274228 39298856 39340244 39393284 39451948 39510588 
2873.167 39565468 39614792 39660168 39705764 39757108 39820400 39900588 
2876.543 40000996 40122544 40265168 40427332 40607532 40804544 41016616 
2879.918 41241832 41478032 41722456 41972016 42224900 42479500 42735344 
2883.293 42992804 43252216 43513312 43775564 44037780 44298472 44556204 
2886.668 44810228 45059844 45304856 45544972 45779840 46009088 46232264 
2890.044 46448924 46659268 46863736 47062796 47257444 47449144 47639232 
2893.419 47829328 48021208 48215580 48413224 48613776 48816532 49020980 
2896.794 49226900 49434508 49644636 49857720 50073700 50291164 50508032 
2900.169 50721140 50927640 51125700 51314980 51496096 51671320 51843024 
2903.545 52014312 52188288 52368500 52559140 52765024 52991400 53243332 
2906.920 53525536 53842960 54199540 54599696 55048844 55551968 56115132 
2910.295 56743584 57440832 58207656 59041120 59934340 60875144 61845728 
2913.670 62824384 63782640 64688944 65512144 66222080 66796244 67222568 
2917.046 67500464 67640872 67662248 67587288 67436448 67223264 66952772 
2920.421 66620380 66213860 65716780 65114668 64397240 63562608 62618420 
2923.796 61581160 60474996 59326056 58162500 57009716 55888024 54813724 
2927.171 53797428 52845208 51959712 51141132 50388276 49699648 49073804 
2930.547 48510508 48010252 47573788 47202992 46899096 46662880 46494612 
2933.922 46393652 46358368 46386792 46475512 46620200 46814500 47050168 
2937.297 47316704 47601704 47892104 48176040 48443452 48687864 48906228 
2940.672 49099328 49270096 49422556 49560948 49688060 49804280 49907152 
2944.048 49991904 50051060 50075152 50055744 49985552 49861624 49686016 
2947.423 49467260 49218920 48957632 48701204 48465344 48261380 48095304 
2950.798 47967252 47872868 47803804 47750396 47702572 47650876 47587244 
2954.173 47506064 47403024 47276024 47124356 46948596 46749776 46529648 
2957.549 46290020 46032736 45760216 45475208 45180460 44879408 44575480 
2960.924 44271656 43971232 43677280 43392356 43119176 42860180 42617708 
2964.299 42393388 42188528 42003732 41839448 41695792 41572568 41469316 
2967.674 41385300 41318460 41265368 41221612 41181280 41138296 41086940 
2971.050 41022660 40942368 40845236 40732152 40605820 40470536 40331952 
2974.425 40196468 40070832 39960816 39870228 39799008 39742144 39689500 
2977.800 39626480 39534940 39397164 39197160 38924396 38574668 38151524 
2981.175 37665620 37131748 36568908 35996924 35433500 34894504 34392464 
2984.551 33935072 33527340 33171486 32867704 32616034 32416448 32268848 
2987.926 32172210 32122828 32111984 32123722 32135672 32119832 32044702 
2991.301 31883356 31615682 31233616 30743436 30165044 29528792 28867728 
2994.676 28214844 27596906 27030726 26523428 26073820 25675226 25317632 
2998.052 24991042 24687246 24400204 24125860 23862466 23609100 23365394 
3001.427 23131012 22905630 22687976 22477058 22271232 22069234 21870466 
3004.802 21675132 21483960 21298474 21120022 20949400 20786942 20632538 
3008.177 20485240 20344588 20210058 20081362 19958084 19840180 19726888 
3011.552 19617402 19511130 19407416 19306602 19209620 19117300 19030710 
3014.928 18950680 18877482 18811112 18751638 18699194 18653604 18615212 
3018.303 18582808 18554936 18529104 18502204 18471086 18433402 18387494 
3021.678 18332606 18269050 18197072 18117024 18029666 17935628 17836224 
3025.053 17733806 17631378 17532112 17439528 17355928 17282792 17220216 
3028.429 17167096 17120908 17078826 17037094 16992090 16940306 16878918 
3031.804 16806274 16722383 16628489 16526837 16420495 16312391 16204277 
3035.179 16097704 15993461 15891889 15793569 15699603 15611150 15529688 
3038.554 15456378 15391696 15335605 15287519 15246439 15211229 15181308 
3041.930 15155815 15134233 15116153 15100784 15087370 15075054 15063048 
3045.305 15050356 15036360 15020548 15002438 14982339 14960116 14936144 
3048.680 14910424 14883130 14853779 14821962 14787130 14748908 14707262 
3052.055 14662329 14614111 14563089 14509641 14453698 14395433 14335020 
3055.431 14272594 14208499 14143387 14077463 14011037 13944688 13878863 
3058.806 13814245 13752066 13692937 13637681 13586466 13538675 13493351 
3062.181 13449637 13406987 13365366 13325526 13288287 13254125 13223210 
3065.556 13194723 13167399 13140214 13112620 13084890 13058324 13034424 
3068.932 13014314 12998540 12986694 12977339 12968907 12959417 12947537 
3072.307 12932722 12915074 12895242 12874968 12856231 12840975 12830873 
3075.682 12826846 12828621 12834730 12842921 12850531 12855446 12856334 
3079.057 12852920 12846299 12837596 12827597 12816608 12804288 12789683 
3082.433 12772109 12751636 12728571 12703971 12678896 12654367 12630693 
3085.808 12608145 12586384 12565373 12545251 12526494 12509306 12494165 
3089.183 12480934 12469511 12459929 12452222 12446460 12443084 12441959 
3092.558 12443084 12445915 12450075 12454985 12460611 12466953 12474217 
3095.934 12482638 12492050 12502008 12511761 12520935 12528779 12535395 
3099.309 12541261 12546991 12553266 12561042 12570694 12582529 12596924 
3102.684 12613229 12631034 12649421 12667501 12684491 12699979 12713865 
3106.059 12726592 12738637 12750272 12761498 12772109 12781630 12789717 
3109.435 12796474 12802344 12808247 12815448 12824764 12836948 12852238 
3112.810 12870804 12892273 12916337 12942519 12969829 12997380 13024010 
3116.185 13048559 13070344 13089500 13106097 13120815 13134134 13146156 
3119.560 13156914 13166375 13174264 13181437 13188916 13198002 13210026 
3122.936 13225636 13244491 13265911 13288526 13311143 13332941 13353715 
3126.311 13373363 13392259 13410541 13428277 13445365 13461906 13478004 
3129.686 13494171 13510440 13527395 13545034 13563424 13582637 13602774 
3133.061 13624210 13647323 13672249 13699332 13728126 13758290 13789345 
3136.437 13821018 13852967 13884850 13916051 13945954 13973430 13997930 
3139.812 14018976 14037114 14053506 14069865 14087868 14108918 14133700 
3143.187 14162420 14194702 14230274 14269033 14310979 14355876 14403414 
3146.562 14452773 14502618 14551576 14598554 14642932 14684572 14724091 
3149.938 14762071 14799437 14836739 14874660 14913443 14953771 14995647 
3153.313 15039345 15084831 15131694 15179317 15227461 15275781 15324450 
3156.688 15373914 15424860 15477940 15533568 15591917 15652953 15716299 
3160.063 15781578 15848208 15915707 15983870 16052250 16121361 16191758 
3163.438 16264057 16339155 16417364 16498443 16581533 16665259 16747935 
3166.814 16828456 16905994 16980478 17051842 17120632 17186398 17249004 
3170.189 17307342 17360826 17408968 17451668 17489130 17521970 17550674 
3173.564 17575928 17597838 17616954 17633344 17647078 17658224 17666646 
3176.939 17672478 17675998 17677722 17678620 17680276 17683970 17691148 
3180.315 17702674 17718274 17737328 17758830 17781646 17804808 17827972 
3183.690 17851000 17874064 17897542 17921816 17947610 17975720 18007080 
3187.065 18042446 18082168 18126006 18172852 18221502 18270604 18318782 
3190.440 18366064 18413178 18460714 18510156 18562198 18617184 18674600 
3193.816 18733890 18793986 18853812 18912506 18969232 19023682 19075680 
3197.191 19125818 19174850 19224442 19275496 19328910 19384756 19442238 
3200.566 19500006 19557158 19612618 19666594 19719882 19773456 19828458 
3203.941 19885582 19944588 20005024 20066406 20128076 20189682 20251262 
3207.317 20312680 20373582 20434044 20493890 20553394 20612978 20673368 
3210.692 20735296 20798692 20863140 20927182 20989772 21050006 21107848 
3214.067 21164446 21221852 21281526 21345002 21412316 21482286 21553210 
3217.442 21622750 21689274 21751694 21810292 21865936 21920054 21974318 
3220.818 22029912 22087852 22148586 22211980 22278034 22346366 22416488 
3224.193 22487666 22559450 22630864 22701102 22769778 22836336 22901124 
3227.568 22965012 23028946 23094390 23162150 23232230 23303682 23375532 
3230.943 23446100 23514092 23579644 23642966 23705042 23766842 23828968 
3234.319 23891032 23952614 24013122 24072376 24130902 24190384 24251868 
3237.694 24316762 24385484 24457548 24531974 24607708 24683948 24760166 
3241.069 24836432 24912572 24988268 25063170 25136646 25208062 25278016 
3244.444 25346854 25415848 25486044 25558152 25632132 25708024 25785442 
3247.820 25864140 25944398 26026572 26110696 26196878 26284344 26372462 
3251.195 26460386 26547694 26634210 26720392 26806376 26892450 26978612 
3254.570 27064966 27151584 27238856 27327166 27416520 27506738 27596764 
3257.945 27684972 27770090 27851056 27927866 28001334 28072940 28143638 
3261.321 28214242 28284646 28354212 28422412 28489382 28555690 28622468 
3264.696 28691026 28761754 28834124 28907072 28979144 29049070 29116458 
3268.071 29181798 29246050 29309956 29374050 29437976 29501378 29563302 
3271.446 29623284 29681568 29738336 29794332 29849730 29904568 29958240 
3274.822 30010678 30061418 30110352 30157906 30204754 30251218 30297794 
3278.197 30344870 30392060 30439290 30486168 30532448 30577774 30621860 
3281.572 30664704 30706738 30748594 30791202 30835418 30881594 30930086 
3284.947 30980506 31032318 31085276 31138812 31193064 31247822 31303122 
3288.323 31359036 31415380 31471736 31528774 31586424 31645224 31705528 
3291.698 31767230 31829480 31891414 31952072 32010958 32068424 32125540 
3295.073 32183700 32244042 32307074 32372500 32439548 32507178 32574282 
3298.448 32640856 32707016 32773402 32840796 32909594 32979868 33051692 
3301.823 33124852 33199560 33276286 33355958 33438760 33525728 33616796 
3305.199 33711968 33810592 33912036 34015044 34118580 34221568 34323144 
3308.574 34423240 34522388 34621700 34723012 34827904 34937880 35053380 
3311.949 35174768 35301548 35433176 35569236 35709436 35853356 36000816 
3315.324 36151384 36304488 36460028 36618040 36779168 36944584 37114752 
3318.700 37290256 37470784 37655180 37841820 38029448 38216792 38403492 
3322.075 38589368 38775148 38960820 39146976 39333204 39519372 39705040 
3325.450 39889840 40073408 40255680 40436240 40614624 40790712 40964288 
3328.825 41134840 41302244 41465672 41624020 41776152 41920668 42056404 
3332.201 42182284 42297976 42403360 42498500 42583756 42659344 42725472 
3335.576 42782656 42831328 42872140 42905236 42930328 42946532 42952824 
3338.951 42947704 42930476 42901032 42860144 42809128 42749348 42681968 
3342.326 42607256 42524920 42433828 42332312 42219272 42093128 41952932 
3345.702 41798440 41629816 41447336 41252396 41046184 40830352 40606472 
3349.077 40375764 40139440 39898484 39653924 39406596 39157452 38907292 
3352.452 38655756 38402808 38147400 37888456 37625872 37359984 37092232 
3355.827 36824648 36559896 36299736 36045060 35796000 35551792 35311216 
3359.203 35073420 34837668 34604300 34373636 34146076 33922284 33702404 
3362.578 33486608 33275284 33068604 32866634 32669436 32476824 32288086 
3365.953 32102600 31919654 31738854 31560164 31383894 31210366 31039970 
3369.328 30873232 30710470 30551894 30398030 30249300 30105770 29967436 
3372.704 29833368 29702324 29572382 29442338 29310736 29177332 29042270 
3376.079 28906398 28770570 28635596 28502082 28369846 28239172 28109314 
3379.454 27980694 27853176 27726646 27601318 27476804 27352856 27229012 
3382.829 27105064 26980726 26856214 26732124 26608916 26487292 26367428 
3386.205 26249674 26133780 26019254 25906060 25794056 25683662 25575020 
3389.580 25468160 25362908 25258524 25153532 25047164 24938644 24827872 
3392.955 24716004 24604342 24494462 24387340 24282948 24180608 24079240 
3396.330 23977686 23875698 23773876 23673722 23576322 23482822 23393086 
3399.706 23305814 23219680 23133004 23044842 22954952 22864380 22774004 
3403.081 22684658 22596972 22510734 22425350 22340156 22254352 22167206 
3406.456 22078334 21986936 21892872 21796042 21697006 21596772 21496632 
3409.831 21397836 21301152 21206576 21113484 21020620 20927356 20833522 
3413.207 20739570 20646646 20555686 20467316 20381432 20297438 20214396 
3416.582 20131546 20048778 19966062 19883640 19801510 19719120 19636052 
3419.957 19551784 19466460 19380876 19296280 19213706 19133884 19056190 
3423.332 18979616 18902468 18823500 18742192 18659276 18576168 18494354 
3426.708 18414908 18338378 18264280 18191994 18120754 18050356 17980798 
3430.083 17912252 17844856 17778298 17712132 17645524 17578310 17510378 
3433.458 17442354 17374412 17307204 17240452 17173576 17105672 17036162 
3436.833 16965422 16894074 16823462 16755201 16690360 16629385 16571756 
3440.208 16516443 16461618 16405767 16348135 16288137 16226152 16162628 
3443.584 16098391 16032893 15966166 15897043 15824771 15749177 15670747 
3446.959 15591092 15512415 15437288 15367220 15302964 15243728 15187861 
3450.334 15133375 15078176 15021303 14962413 14901851 14840065 14777703 
3453.709 14714905 14651670 14587691 14523105 14457946 14392557 14326972 
3457.085 14260883 14193846 14125245 14054601 13981779 13907532 13832306 
3460.460 13756682 13681618 13607115 13533377 13460642 13389457 13320710 
3463.835 13255116 13193254 13134408 13077618 13021073 12962797 12901762 
3467.210 12836948 12768834 12698274 12626088 12553300 12480729 12408477 
3470.586 12337260 12267213 12199120 12133150 12069336 12007099 11945688 
3473.961 11884354 11822245 11759260 11695740 11632671 11570462 11510542 
3477.336 11452501 11396542 11341917 11287537 11232383 11175161 11115193 
3480.711 11051801 10985189 10916175 10846391 10777434 10711068 10648176 
3484.087 10588587 10531551 10475406 10418793 10360525 10300737 10239668 
3487.462 10178744 10119151 10061737 10007042 9955202 9905572 9857913 9811481 
3491.319 9765594 9719611 9672854 9624476 9574003 9521198 9466369 9410056 
3495.177 9353345 9297115 9242347 9190023 9140650 9094834 9052813 9014246 
3499.034 8978761 8944835 8910843 8875096 8835802 8791844 8742956 8689542 
3502.892 8632992 8575369 8519070 8466056 8418149 8376261 8339983 8307661 
3506.749 8276995 8245014 8208849 8167487 8120998 8071510 8022095 7976397 
3510.606 7936913 7904553 7878775 7857282 7838052 7818754 7798580 7777193 
3514.464 7755301 7733140 7710812 7687541 7662180 7634055 7602864 7569281 
3518.321 7534925 7501718 7471615 7445525 7423110 7403089 7383306 7360827 
3522.179 7333463 7299665 7259098 7212908 7162916 7111347 7060391 7011057 
3526.036 6964051 6918936 6875476 6833433 6793144 6755350 6720486 6688620 
3529.894 6658708 6629369 6598654 6565014 6527879 6487887 6446555 6405427 
3533.751 6365582 6327421 6290037 6252589 6213531 6172796 6130787 6088682 
3537.608 6047589 6008683 5972301 5938071 5905893 5875665 5847824 5823308 
3541.466 5802791 5786975 5774954 5765855 5757091 5745810 5729291 5704850 
3545.323 5671379 5629050 5579711 5527088 5475277 5429142 5392036 5365299 
3549.181 5347823 5336216 5325147 5308912 5283489 5246697 5199514 5145394 
3553.038 5089539 5036908 4991088 4953986 4924964 4902813 4885121 4869707 
3556.896 4854829 4839350 4822363 4803836 4783433 4761758 4739381 4717575 
3560.753 4697511 4680496 4667769 4660167 4657286 4658425 4661272 4662210 
3564.610 4656851 4640273 4607856 4556858 4487686 4404434 4315040 4228174 
3568.468 4152130 4092522 4050781 4025097 4010783 4003192 3996437 3987040 
3572.325 3972294 3951596 3925850 3897164 3867711 3839697 3814493 3792532 
3576.183 3773915 3757906 3743869 3731069 3719171 3707442 3695378 3682312 
3580.040 3667709 3651369 3634062 3617589 3604225 3596808 3597543 3606965 
3583.897 3623102 3641646 3656382 3659589 3645255 3609471 3553445 3483130 
3587.755 3408419 3340899 3289849 3260137 3251824 3260203 3278264 3298062 
3591.612 3313053 3318128 3310716 3290751 3260604 3223516 3183327 3143843 
3595.470 3107834 3077332 3053374 3036156 3024979 3018306 3013768 3008797 
3599.327 3000689 2988145 2970963 2950747 2930331 2913118 2902044 2899075 
3603.185 2904645 2917855 2936836 2958686 2979704 2996052 3003358 2998487 
3607.042 2979304 2946477 2903778 2857582 2815393 2783145 2762771 2752534 
3610.899 2746932 2739463 2724458 2699519 2666580 2631443 2601175 2582209 
3614.757 2578043 2587576 2606275 2626776 2641977 2644410 2629543 2595442 
3618.614 2544913 2483892 2420981 2365141 2323266 2298849 2291421 2298050 
3622.472 2314705 2337590 2365607 2398957 2439173 2487791 2543246 2599875 
3626.329 2647911 2673714 2663379 2607708 2508086 2379866 2248454 2140989 
3630.187 2073433 2047566 2052959 2074632 2098303 2113120 2114651 2104430 
3634.044 2087982 2072634 2063812 2064011 2071935 2083354 2094208 2100800 
3637.901 2102066 2098936 2093243 2087549 2083654 2081790 2081923 2083854 
3641.759 2087949 2095673 2108991 2130301 2160702 2199930 2245324 2292454 
3645.616 2335792 2369006 2386330 2383131 2356946 2307343 2236664 2150213 
3649.474 2055988 1964380 1886535 1832761 1808571 1814527 1846004 1893956 
3653.331 1947173 1994570 2026560 2036779 2024163 1993106 1953596 1916686 
3657.188 1891727 1883141 1889963 1907335 1928601 1948238 1962350 1969040 
3661.046 1969772 1966976 1964646 1965712 1972734 1987014 2009083 2039709 
3664.903 2079426 2129768 2191172 2263276 2343054 2424912 2502554 2571276 
3668.761 2632543 2696885 2785446 2925827 3141173 3445422 3839497 4314873 
3672.618 4858817 5455145 6084683 6712545 7283593 7725990 7962391 7943561 
3676.476 7668149 7177199 6533058 5799231 5035568 4292184 3614215 3039460 
3680.333 2588475 2264108 2050129 1920347 1845904 1803447 1780757 1773171 
3684.190 1780690 1802482 1834092 1866669 1890096 1894090 1873091 1827870 
3688.048 1765785 1698055 1635324 1584374 1546564 1519697 1500512 1487180 
3691.905 1479200 1476973 1480497 1489441 1501510 1514843 1527411 1538517 
3695.763 1549025 1560630 1575728 1596146 1622453 1653051 1684650 1711726 
3699.620 1728991 1731486 1717248 1687543 1647962 1606988 1572801 1551452 
3703.478 1545068 1552550 1569675 1592422 1617530 1643605 1670746 1699751 
3707.335 1730821 1762358 1791337 1813030 1822213 1815059 1789473 1746290 
3711.192 1689639 1626610 1566084 1516672 1485218 1475277 1486182 1514145 
3715.050 1552916 1595115 1633893 1664493 1684583 1695360 1699585 1701481 
3718.907 1703809 1708034 1713024 1717082 1718745 1717847 1716250 1716250 
3722.765 1720176 1728692 1740002 1750249 1755339 1752212 1740136 1722039 
3726.622 1704042 1694030 1698321 1720641 1760229 1812298 1868832 1920447 
3730.479 1959487 1981189 1986015 1979026 1968308 1960885 1958323 1956459 
3734.337 1946340 1919915 1873457 1811100 1744627 1689240 1656178 1649459 
3738.194 1666256 1700184 1744760 1795961 1852992 1916420 1984251 2050728 
3742.052 2102765 2122809 2093742 2007685 1876086 1731187 1617298 1567314 
3745.909 1588398 1665324 1771042 1878549 1964247 2013943 2022232 1992872 
3749.767 1935124 1860413 1778660 1696525 1620324 1558535 1519631 1511451 
3753.624 1535824 1588531 1658705 1732983 1799355 1848833 1877683 1886801 
3757.481 1880445 1863507 1839183 1809370 1775899 1742065 1714221 1698920 
3761.339 1701348 1721972 1755938 1794198 1826505 1845106 1847235 1836188 
3765.196 1820117 1808305 1807340 1817721 1834558 1849931 1856386 1849398 
3769.054 1829700 1802050 1773870 1751513 1738871 1735977 1740102 1747820 
3772.911 1756037 1763323 1770177 1777762 1787843 1801351 1818220 1836122 
3776.769 1851495 1859980 1857651 1842843 1817422 1786046 1756603 1736277 
3780.626 1729457 1736110 1752178 1771275 1786645 1794131 1792368 1783285 
3784.483 1770909 1759131 1751014 1747155 1746889 1748386 1751147 1754840 
3788.341 1759797 1766151 1773371 1780457 1786246 1790871 1795828 1803614 
3792.198 1816989 1837186 1862908 1890030 1912660 1926105 1927636 1919415 
3796.056 1907468 1901477 1909032 1933860 1973167 2018071 2055455 2070470 
3799.913 2051560 1993871 1904473 1801418 1711726 1658872 1654514 1695760 
3803.771 1767881 1851095 1923376 1967775 1973999 1942147 1882775 1815259 
3807.628 1759963 1730122 1728958 1751180 1788009 1831630 1877484 1925373 
3811.485 1977162 2034383 2095873 2155574 2203693 2229504 2223842 2184212 
3815.343 2118347 2044503 1985416 1959255 1973533 2021933 2089081 2153443 
3819.200 2194635 2196367 2150945 2064178 1955593 1853691 1782487 1755239 
3823.058 1769744 1813496 1869231 1920780 1957124 1973533 1972602 1961917 
3826.915 1951699 1950434 1961451 1983253 2010847 2038078 2059650 2073533 
3830.772 2080658 2084753 2090646 2102632 2123208 2152710 2188175 2225174 
3834.630 2257614 2278797 2282495 2264741 2224974 2167428 2100401 2035514 
3838.487 1983386 1950235 1937354 1940250 1952431 1966377 1976629 1979758 
3842.345 1974898 1963115 1947106 1930498 1916953 1910297 1913259 1927636 
3846.202 1953663 1990409 2036580 2090513 2151112 2218546 2292421 2371238 
3850.060 2450502 2520450 2566643 2571810 2519350 2401689 2228937 2032851 
3853.917 1855454 1732152 1677997 1685814 1736443 1808205 1885004 1956026 
3857.774 2016839 2066608 2106860 2139457 2165863 2187176 2203960 2217447 
3861.632 2228072 2235432 2237996 2232734 2217314 2192038 2161867 2135528 
3865.489 2123175 2132132 2162533 2207190 2252051 2281262 2281029 2244990 
3869.347 2178984 2100268 2032052 1991674 1985150 2005022 2036680 2063878 
3873.204 2075164 2067807 2047832 2027558 2019702 2033117 2069105 2121710 
3877.062 2180549 2234566 2274001 2291888 2286824 2261444 2224042 2185177 
3880.919 2156240 2145884 2156739 2185411 2222676 2256248 2272835 2261777 
3884.776 2220145 2154608 2081823 2022232 1993505 2002759 2045435 2108225 
3888.634 2174355 2227539 2255782 2253817 2225274 2180449 2132931 2095407 
3892.491 2075830 2076163 2094175 2125373 2165797 2211819 2260511 2309209 
3896.349 2354214 2391794 2418348 2431210 2429977 2416549 2395592 2371971 
3900.206 2350383 2332727 2319136 2306477 2291055 2270104 2241926 2208089 
3904.063 2172257 2139424 2114785 2101433 2100601 2110389 2128702 2151578 
3907.921 2175787 2198898 2219412 2237230 2252851 2267406 2281995 2297617 
3911.778 2315072 2334592 2355746 2377301 2397158 2412884 2421514 2421080 
3915.636 2410552 2391227 2365874 2338856 2314272 2295218 2283460 2278997 
3919.493 2281229 2289456 2303479 2322800 2346552 2372504 2397391 2416616 
3923.351 2426212 2423946 2410485 2389895 2367673 2350249 2341421 2342454 
3927.208 2351415 2364941 2379067 2390395 2397291 2399290 2396458 2388662 
3931.065 2375602 2356879 2333160 2306777 2281129 2260311 2248055 2245623 
3934.923 2252251 2264708 2278797 2291188 2299682 2304112 2306277 2308476 
3938.780 2312673 2319269 2327097 2333859 2336691 2333993 2325398 2312373 
3942.638 2297717 2284526 2275966 2273634 2277831 2287324 2300215 2314006 
3946.495 2326564 2335758 2340922 2341555 2338090 2331494 2322933 2313806 
3950.353 2305212 2298016 2292854 2290022 2289489 2290855 2293187 2295318 
3954.210 2296684 2296551 2295085 2293020 2291288 2290822 2292487 2296418 
3958.067 2302280 2309609 2317836 2326264 2334359 2341621 2347185 2350416 
3961.925 2350916 2347984 2342288 2334692 2326364 2319069 2314006 2311940 
3965.782 2313040 2317370 2324965 2335359 2348417 2363542 2379533 2394859 
3969.640 2408086 2417515 2423080 2424779 2424312 2423346 2423879 2427045 
3973.497 2433009 2441306 2450602 2459399 2466664 2471662 2474261 2474528 
3977.354 2473195 2471062 2468796 2467297 2467130 2468563 2471429 2475594 
3981.212 2480693 2486191 2491923 2497522 2502887 2507353 2510919 2512751 
3985.069 2512951 2511552 2509486 2507519 2506586 2506653 2507019 2506386 
3988.927 2503020 2495922 2485225 2471829 2458033 2446037 2437641 2433209 
3992.784 2432609 2434142 2436241 2438040 2438540 2437940 2436541 2434742 
3996.642 2432809 2430643 2428311 2425779 2423313 2420781 2418215 2415416 
4000.499 2412218 
##END=
