
##TITLE=mdmaHCL00394_2
##JCAMP-DX=5.01  $$ Nicolet v. 1
##DATATYPE=INFRARED SPECTRUM
##ORIGIN=UniL
##OWNER=Nicolet
##LONGDATE=2011/08/24
##TIME=08:58:39
##SPECTROMETER/DATA SYSTEM=Nicolet iS5
##DATA PROCESSING=
Ratio against background
%Transmittance->Absorbance
Truncated
ElementMultiply or ElementDivide
##COMMENTS=
Number of sample scans: 32
Collection length: 51.18 sec
Sample gain: 2.0
Background collected on: Mer Aout 24 08:56:47 2011 (GMT+02:00);
Number of background scans: 32
Background gain: 2.0
Sample spacing:  1.000
Number of scan points: 12415
Resolution points: 8192
Number of FFT points: 65536
Apodization: N-B fort;
Phase correction: Mertz;
Laser frequency: 15798.0 cm-1
Number of rejected sample scans: 0
Number of rejected background scans: 0
Bench serial number: ASB1000141;
##RESOLUTION=4.000
##XUNITS=1/CM
##YUNITS=ABSORBANCE
##FIRSTX=649.893372
##LASTX=4000.122314
##FIRSTY=0.080134
##MAXX=4000.122314
##MINX=649.893372
##MAXY=0.260250
##MINY=0.004038
##XFACTOR=1.000000
##YFACTOR=1.000000E-009
##NPOINTS=6950
##DELTAX=0.482117
##ZPD=6100
##XYDATA=(X++(Y..Y))
649.893 80134032 80294456 80519816 80815648 81168608 81553112 81942192 
653.268 82322464 82702216 83107896 83570432 84111752 84736816 85433248 
656.643 86183600 86976504 87815680 88716944 89698336 90766840 91914128 
660.018 93119792 94365208 95646088 96977696 98386200 99895816 101510936 
663.393 103210120 104951288 106690352 108394272 110039408 111607896 
666.285 113065672 114340872 115329904 115923272 116057608 115745248 
669.178 115055424 114064480 112818568 111330440 109598784 107631192 
672.071 105467216 103180616 100855504 98575784 96394840 94331112 92380760 
675.446 90532504 88782592 87138872 85615520 84222632 82959192 81812408 
678.820 80762808 79792384 78891400 78057776 77292960 76596416 75961120 
682.195 75374448 74823392 74298512 73797680 73325744 72889664 72493880 
685.570 72137416 71813696 71515560 71238408 70982808 70752352 70551176 
688.945 70377600 70222048 70068728 69898776 69697952 69459672 69186232 
692.320 68884968 68564856 68230680 67882536 67517536 67133456 66731712 
695.694 66320112 65910140 65513724 65141344 64798600 64487100 64205632 
699.069 63952104 63724040 63518964 63333340 63162468 63000516 62842572 
702.444 62686436 62533812 62389192 62259148 62148836 62060036 61989976 
705.819 61932080 61878852 61823876 61764932 61703668 61646000 61600136 
709.194 61574252 61577612 61621104 61718140 61888484 62155640 62542880 
712.569 63066676 63724540 64486064 65285192 66030280 66610800 66918528 
715.943 66878520 66460104 65692344 64655720 63477120 62306152 61281996 
719.318 60530984 60143368 60164796 60596884 61389916 62444700 63604384 
722.693 64678484 65468304 65785744 65510528 64610660 63158176 61308972 
726.068 59272200 57265384 55451816 53931040 52729072 51816032 51131888 
729.443 50612600 50210856 49893956 49642328 49441116 49273472 49121256 
732.817 48970720 48815720 48660584 48516360 48394556 48299780 48227576 
736.192 48166712 48104964 48035124 47957372 47877676 47803580 47739076 
739.567 47682756 47629656 47575120 47518448 47464408 47419576 47388460 
742.942 47369876 47356648 47339648 47312012 47274324 47234464 47204580 
746.317 47194864 47208568 47240964 47282492 47323872 47360600 47394188 
749.692 47430520 47473720 47522808 47570796 47607728 47625848 47624108 
753.066 47609688 47593048 47584844 47589244 47604328 47623740 47642520 
756.441 47660972 47685488 47725428 47787748 47874052 47979800 48097892 
759.816 48224356 48361148 48515728 48697316 48910196 49150752 49408928 
763.191 49674576 49944436 50228116 50546596 50929500 51406536 51999976 
766.566 52724620 53587532 54588460 55718664 56958036 58273812 59624944 
769.940 60982464 62355836 63822748 65531604 67682072 70473304 74004376 
773.315 78198304 82728112 87065776 90513448 92374696 92183576 89803896 
776.690 85513608 79886880 73690640 67662168 62341800 58063144 54907976 
780.065 52777484 51465172 50745232 50429952 50378712 50510680 50780056 
783.440 51156452 51618440 52151672 52751704 53426228 54191508 55065324 
786.815 56059372 57179164 58427604 59812032 61352056 63080280 65035380 
790.189 67259816 69790632 72659136 75899008 79550096 83658928 88275536 
793.564 93432800 99124864 105279408 111750840 118309984 124640056 130388928 
796.939 135170080 138604320 140397920 140362944 138477632 134892656 
799.832 129928512 124024664 117642320 111249784 105231232 99841312 95217640 
803.206 91364144 88185984 85522480 83203520 81091288 79102592 77227176 
806.581 75512096 74037656 72874888 72058912 71566192 71318088 71187888 
809.956 71028144 70711992 70142800 69274400 68109144 66685164 65061280 
813.331 63300028 61465220 59614680 57797884 56061820 54444432 52974332 
816.706 51669936 50537368 49572760 48765596 48104076 47577816 47179316 
820.081 46904004 46748152 46707744 46779512 46962108 47260064 47684824 
823.455 48255864 48997204 49931312 51074080 52426404 53969304 55655832 
826.830 57410880 59134852 60699144 61969260 62822736 63163892 62954784 
830.205 62222744 61063004 59614680 58045568 56526756 55194540 54149276 
833.580 53439080 53058824 52955052 53033780 53182060 53271312 53184120 
836.955 52837504 52189484 51252636 50085600 48784352 47454208 46189000 
840.329 45061348 44108268 43336776 42732020 42269744 41924464 41674784 
843.704 41505372 41403740 41358548 41359496 41397584 41467276 41566332 
847.079 41695244 41854368 42042424 42255612 42488852 42739296 43007548 
850.454 43298556 43619288 43976548 44373152 44807876 45276980 45777188 
853.829 46308196 46874256 47482076 48138760 48850052 49619076 50449452 
857.204 51348504 52328468 53409288 54616152 55974628 57511372 59251236 
860.578 61215688 63425200 65893016 68617552 71568928 74677376 77827544 
863.953 80847416 83538904 85693216 87113280 87661016 87267424 85948736 
867.328 83800920 80991216 77735672 74251336 70752232 67416784 64367264 
870.703 61683540 59398272 57508800 55989292 54801548 53904852 53257152 
874.078 52820324 52560268 52443004 52439264 52524848 52681296 52899552 
877.452 53178200 53520664 53931788 54414160 54965772 55580628 56250208 
880.827 56965892 57721620 58513692 59339656 60197256 61081040 61981456 
884.202 62884076 63769168 64613888 65396652 66099764 66716760 67255952 
887.577 67743648 68218776 68727696 69315560 70012632 70830160 71757128 
890.952 72765256 73813744 74857800 75858088 76779256 77590816 78266304 
894.327 78778880 79102112 79213832 79095360 78736808 78138640 77312448 
897.701 76282024 75082168 73761912 72377808 70990336 69661784 68441960 
901.076 67367992 66460332 65722332 65145044 64712868 64410112 64223804 
904.451 64145444 64169952 64292952 64509816 64815752 65206252 65679660 
907.826 66237480 66883588 67621904 68454480 69380712 70397784 71503336 
911.201 72697168 73982056 75362184 76841064 78419168 80094464 81864696 
914.575 83732488 85709032 87817096 90086640 92552944 95250024 98202920 
917.950 101427144 104922680 108671896 112629656 116716416 120817136 
920.843 124768328 128384712 131484616 133916024 135607872 136591584 
923.736 137018096 137128256 137236960 137694864 138809888 140837440 
926.628 143931792 148120256 153289296 159169264 165369280 171343280 
929.521 176454208 180071072 181582784 180544128 176756896 170301008 
932.414 161548512 151090336 139685392 128088056 116966744 106867928 98126528 
935.789 90909336 85242816 81051064 78206480 76565624 76001616 76395832 
939.163 77627576 79561552 82006064 84707816 87378712 89689736 91340920 
942.538 92117088 91907328 90738864 88757672 86208976 83370136 80502784 
945.913 77829992 75492072 73556544 72030672 70880632 70053240 69491008 
949.288 69146912 68981232 68962048 69064552 69265040 69543080 69882856 
952.663 70272528 70705480 71178520 71689240 72234248 72808432 73405112 
956.037 74018600 74645744 75285968 75941544 76614280 77304248 78008840 
959.412 78723232 79442224 80163048 80885704 81613328 82349576 83097464 
962.787 83857496 84628328 85407632 86194024 86988248 87792080 88607184 
966.162 89433152 90266728 91103168 91938768 92772696 93608728 94454152 
969.537 95317200 96203880 97116528 98053648 99012104 99989984 100988768 
972.912 102012528 103067224 104157720 105285992 106451296 107651960 
975.804 108887528 110160064 111473816 112831976 114234736 115677256 
978.697 117150048 118640736 120137392 121630680 123111992 124572920 
981.590 126001912 127383160 128699464 129935624 131082488 132140176 
984.482 133117064 134027120 134883856 135699472 136483104 137242512 
987.375 137987696 138731456 139487776 140270112 141087216 141942384 
990.268 142834224 143760832 144722752 145725008 146775200 147879936 
993.160 149040896 150253328 151507136 152790688 154095888 155419920 
996.053 156764112 158130592 159517776 160918496 162322320 163717872 
998.946 165099360 166468208 167832016 169200848 170581616 171977200 
1001.839 173386528 174809040 176248800 177715856 179223968 180786528 
1004.731 182410784 184096192 185836176 187624208 189458160 191343760 
1007.624 193290832 195308992 197400224 199556592 201760320 203989584 
1010.517 206225824 208454640 210666512 212852816 214999536 217087232 
1013.409 219095600 221008128 222819968 224540032 226186320 227777328 
1016.302 229324112 230825680 232271152 233645904 234938112 236143584 
1019.195 237263456 238300128 239252640 240117760 240895232 241595216 
1022.087 242245712 242891632 243583824 244372560 245291792 246353600 
1024.980 247551312 248865664 250272992 251746800 253258400 254770064 
1027.873 256226576 257560752 258696464 259558384 260089072 260250144 
1030.766 260022288 259400608 258388096 256994016 255237136 253151472 
1033.659 250787856 248203952 245457728 242588944 239608368 236496784 
1036.552 233212272 229705776 225931888 221862656 217493168 212839680 
1039.446 207939424 202849008 197647744 192426240 187285296 182324320 
1042.339 177618496 173214432 169121856 165317040 161753408 158376768 
1045.232 155143056 152023472 149010128 146111600 143347328 140740304 
1048.125 138311136 136077152 134049640 132232040 130619872 129199488 
1051.018 127948792 126838144 125837680 124919296 124061176 123249936 
1053.911 122477544 121738408 121026584 120332744 119644688 118949912 
1056.804 118236024 117491160 116704800 115863984 114954336 113962160 
1059.697 112875760 111691488 110415144 109063152 107657936 106224472 
1062.590 104787240 103365928 101976112 100631208 99342104 98118312 96966432 
1065.965 95887784 94878104 93926576 93020192 92145800 91293816 90460632 
1069.341 89647784 88860928 88106872 87393216 86727056 86115560 85567104 
1072.716 85090144 84691792 84377408 84147784 83999600 83925552 83916144 
1076.091 83960088 84043224 84148784 84253928 84329688 84346016 84273880 
1079.466 84093288 83798992 83403056 82933400 82426240 81924392 81468168 
1082.842 81091120 80823712 80690592 80713216 80912768 81308432 81917512 
1086.217 82755696 83834952 85162704 86739232 88553264 90574784 92745136 
1089.592 94981224 97167080 99165584 100845976 102090984 102825232 103029160 
1092.967 102741352 102054016 101090960 100003920 98941240 98029480 97373392 
1096.343 97037472 97047624 97393704 98033720 98899288 99897944 100929328 
1099.718 101884816 102654392 103144568 103277400 103002488 102306480 
1102.611 101211872 99777024 98080392 96217072 94281304 92352080 90497080 
1105.986 88763608 87180944 85765184 84519800 83439192 82509128 81709776 
1109.361 81017408 80404568 79844592 79311352 78778920 78224096 77624720 
1112.737 76960752 76218048 75389576 74478040 73495512 72463224 71407520 
1116.112 70353944 69327064 68346272 67425232 66574068 65799052 65103852 
1119.487 64490868 63960320 63510336 63136912 62833800 62591636 62395996 
1122.862 62228176 62061796 61862920 61595444 61222668 60714232 60055164 
1126.238 59247020 58310604 57280052 56199596 55114636 54062848 53074104 
1129.613 52165124 51341196 50598416 49926924 49313448 48743092 48201920 
1132.988 47678352 47163912 46654876 46152004 45660568 45187848 44742564 
1136.363 44332640 43963936 43640644 43365812 43141096 42968076 42847784 
1139.739 42779804 42762692 42793112 42867164 42980696 43130376 43314008 
1143.114 43529792 43776476 44051280 44350508 44669960 45004676 45350024 
1146.489 45701312 46053512 46400180 46734384 47048432 47335548 47592276 
1149.864 47818452 48017988 48197144 48363408 48523880 48684340 48849940 
1153.240 49025100 49214500 49422624 49653140 49907488 50184560 50480716 
1156.615 50789884 51104756 51418136 51722708 52010320 52272704 52499724 
1159.990 52680776 52805920 52866280 52855200 52768204 52602676 52356724 
1163.365 52029740 51622580 51138412 50583224 49966624 49300532 48597284 
1166.740 47870168 47130636 46388600 45653644 44934008 44237792 43572872 
1170.116 42945728 42361276 41822372 41330052 40884336 40485380 40134208 
1173.491 39833108 39585464 39394372 39262692 39191940 39182872 39236108 
1176.866 39352508 39534000 39782740 40101864 40494324 40964072 41515948 
1180.241 42156728 42895104 43740600 44702056 45787236 47001060 48346740 
1183.617 49827472 51446556 53208420 55116892 57172056 59367120 61684456 
1186.992 64096472 66560932 69024616 71425648 73688952 75734792 77484224 
1190.367 78860488 79806448 80290464 80312312 79903416 79122432 78048216 
1193.742 76761184 75339368 73847912 72329384 70807696 69287736 67762696 
1197.118 66219844 64649032 63048900 61428920 59810128 58220160 56691484 
1200.493 55254180 53931752 52741040 51689904 50779012 50003132 49353240 
1203.868 48817052 48378964 48021464 47724248 47464596 47221644 46976508 
1207.243 46714940 46429308 46117512 45781792 45426788 45058520 44683216 
1210.619 44307136 43938128 43585288 43259756 42974116 42741376 42573596 
1213.994 42482460 42477524 42567020 42757976 43055840 43463944 43983588 
1217.369 44614216 45354364 46202564 47159148 48226096 49406252 50702408 
1220.744 52115804 53646056 55292152 57054336 58935796 60942776 63084112 
1224.120 65367988 67799256 70376240 73089888 75923112 78847688 81826768 
1227.495 84810352 87732136 90516792 93077704 95322984 97170976 98549424 
1230.870 99406032 99715072 99479984 98740296 97567848 96075256 94404288 
1234.245 92706864 91149520 89885968 89045792 88741296 89054256 90040776 
1237.621 91738880 94166256 97322896 101184896 105705568 110803656 116357408 
1240.996 122219232 128203448 134094656 139675200 144711392 148978496 
1243.889 152291760 154505472 155543104 155402432 154153216 151924112 
1246.782 148879152 145218752 141149312 136870048 132572952 128406304 
1249.675 124464024 120774944 117295008 113918440 110494024 106872416 
1252.568 102926896 98587048 93856248 88809096 83579144 78321656 73204424 
1255.943 68373344 63928604 59931108 56393968 53294160 50583336 48201808 
1259.319 46090064 44191236 42460316 40863804 39377572 37987752 36686320 
1262.694 35468844 34331356 33269204 32276090 31345610 30472520 29653932 
1266.069 28889646 28181574 27531768 26940746 26407074 25927762 25499818 
1269.444 25121232 24792088 24513812 24287572 24113004 23988260 23909588 
1272.820 23873178 23876260 23916834 23993338 24102916 24240412 24399012 
1276.195 24570296 24746170 24920432 25088234 25245742 25388834 25512854 
1279.570 25612696 25685034 25728802 25746098 25740368 25714458 25667670 
1282.945 25594596 25486430 25334176 25132750 24883586 24596314 24286556 
1286.321 23973344 23674108 23403016 23169420 22978148 22831238 22728544 
1289.696 22668530 22647584 22659592 22697646 22754660 22825546 22908738 
1293.071 23005922 23120352 23254916 23410500 23585592 23777238 23983008 
1296.446 24202398 24437184 24691104 24967632 25269446 25598322 25955338 
1299.822 26342606 26762782 27217652 27706268 28221668 28750780 29274510 
1303.197 29771088 30221060 30608776 30925140 31167718 31339090 31445372 
1306.572 31495888 31503406 31483028 31451750 31427778 31425390 31454064 
1309.947 31516910 31611226 31730622 31868130 32018092 32176490 32339874 
1313.323 32504358 32663684 32810810 32939046 33043504 33122492 33176206 
1316.698 33205568 33209934 33186826 33132256 33043828 32922820 32775580 
1320.073 32612462 32445334 32285548 32140526 32014526 31910636 31832226 
1323.448 31785414 31779602 31825128 31933244 32113946 32375216 32724522 
1326.823 33167482 33706344 34336736 35043144 35798088 36560112 37281952 
1330.199 37918828 38433972 38808912 39043608 39155676 39172936 39128336 
1333.574 39054596 38978472 38921824 38901784 38930848 39017616 39167788 
1336.949 39383960 39667428 40020508 40447552 40955948 41554192 42248160 
1340.324 43038976 43920052 44877496 45889752 46929808 47965068 48953772 
1343.700 49850920 50608432 51179864 51531388 51644224 51517548 51164876 
1347.075 50610180 49881508 49004104 48001928 46896696 45709632 44467144 
1350.450 43200604 41943444 40731864 39597584 38563224 37643468 36844160 
1353.825 36164996 35603076 35153860 34811676 34567196 34408996 34323108 
1357.201 34295928 34317872 34383428 34490708 34639428 34826680 35046700 
1360.576 35292632 35559168 35847852 36168884 36541080 36986432 37522940 
1363.951 38162592 38909504 39762224 40717340 41769292 42907324 44106472 
1367.326 45325712 46502540 47555304 48400964 48962416 49181440 49029920 
1370.702 48507728 47642852 46482920 45097780 43573420 42000740 40479524 
1374.077 39098824 37922224 36983476 36281652 35793300 35485060 35331088 
1377.452 35321060 35464348 35786936 36326968 37131748 38248340 39721268 
1380.827 41580404 43824964 46400656 49179324 51971552 54521100 56548076 
1384.203 57807344 58096552 57305876 55437400 52629080 49147972 45339244 
1387.578 41582520 38179384 35306468 33018086 31269900 29969140 29008404 
1390.953 28295964 27759140 27343928 27015740 26751752 26539946 26376900 
1394.328 26265546 26210394 26214054 26275440 26389222 26548294 26744564 
1397.704 26969656 27214408 27467062 27715628 27949526 28162200 28352162 
1401.079 28522286 28677116 28820776 28956264 29086766 29216740 29354268 
1404.454 29510600 29697250 29923240 30191790 30500030 30841322 31208444 
1407.829 31597256 32007392 32441262 32901694 33390130 33905912 34447056 
1411.205 35012112 35599844 36207852 36827784 37443296 38030132 38558552 
1414.580 39005256 39358488 39624268 39823488 39988428 40155068 40354820 
1417.955 40614372 40953692 41384792 41913844 42538696 43247636 44022420 
1421.330 44841452 45686588 46546800 47425864 48342520 49328372 50415884 
1424.706 51626948 52964824 54414536 55951000 57546892 59183224 60844004 
1428.081 62511960 64163612 65762000 67260944 68616160 69796272 70795600 
1431.456 71635312 72361560 73032696 73705048 74430600 75253072 76215480 
1434.831 77370960 78786112 80533416 82674320 85224544 88146848 91364552 
1438.207 94785656 98317920 101859800 105297520 108474616 111196280 113271504 
1441.582 114521088 114826000 114147288 112519480 110038256 106830760 
1444.475 103050800 98850944 94366320 89729864 85064192 80498040 76185112 
1447.850 72280776 68918240 66175812 64055196 62495240 61402316 60692132 
1451.225 60307268 60223672 60439048 60952080 61747092 62796540 64062992 
1454.601 65516420 67146296 68953040 70937192 73074400 75305944 77546688 
1457.976 79718496 81781848 83730920 85581632 87355816 89072968 90744504 
1461.351 92368176 93928392 95385464 96671512 97705168 98401288 98707808 
1464.726 98633336 98256552 97699112 97075960 96474064 95935760 95468920 
1468.102 95064928 94707232 94372248 94018816 93579552 92956736 92026080 
1471.477 90679376 88869792 86654320 84184624 81650664 79209184 76940416 
1474.852 74866696 72987608 71313448 69883672 68757856 67987152 67600448 
1478.227 67591744 67931240 68582440 69521568 70746776 72275456 74132952 
1481.603 76337728 78892272 81783008 84989960 88497080 92303920 96420608 
1484.978 100852672 105584496 110547144 115592200 120501424 124971608 
1487.871 128643496 131164912 132215024 131590248 129269408 125444784 
1490.764 120492152 114858504 108976736 103153560 97546072 92210120 87125304 
1494.139 82251696 77580000 73144976 69034096 65366880 62249400 59738496 
1497.514 57825132 56456640 55558332 55060992 54914408 55082024 55535136 
1500.890 56247228 57186304 58314548 59591800 60964468 62366852 63716328 
1504.265 64885728 65704828 65961236 65433056 63988232 61677584 58746544 
1507.640 55513148 52229504 49020796 45912328 42891520 39953516 37113272 
1511.015 34416172 31921406 29675326 27707540 26019360 24590422 23389728 
1514.391 22383658 21540466 20828726 20219708 19691002 19229638 18836718 
1517.766 18522224 18296524 18160172 18099094 18084102 18082064 18066968 
1521.141 18036780 18015954 18044070 18151846 18344148 18602970 18898488 
1524.516 19205602 19510542 19818156 20146572 20518934 20950408 21442080 
1527.892 21983936 22562662 23169804 23805272 24476618 25193840 25963602 
1531.267 26786570 27657426 28565490 29500314 30453328 31419798 32394816 
1534.642 33373456 34346492 35301760 36221968 37087796 37881224 38581728 
1538.017 39169888 39628224 39941272 40097216 40090452 39930740 39642852 
1541.393 39262984 38827572 38359408 37861776 37320044 36713252 36027884 
1544.768 35271608 34475068 33682960 32933578 32241150 31594050 30960970 
1548.143 30308380 29615764 28889646 28161244 27476204 26870208 26354506 
1551.518 25915698 25526420 25161468 24809910 24479634 24192520 23970612 
1554.894 23821756 23733700 23674388 23601124 23460754 23193676 22744990 
1558.269 22085096 21245372 20327504 19461714 18739668 18185704 17775986 
1561.644 17466432 17211874 16972796 16721418 16444102 16144643 15842125 
1565.019 15563343 15331795 15156707 15030701 14933778 14843150 14739824 
1568.395 14615790 14475998 14336012 14214970 14127299 14079654 14071748 
1571.770 14100532 14161324 14248625 14354232 14464831 14563534 14634330 
1575.145 14667881 14671239 14667778 14690878 14765876 14901646 15092584 
1578.520 15326955 15595729 15897078 16236369 16623463 17067452 17572858 
1581.896 18137372 18752954 19408178 20087332 20770226 21432228 22040752 
1585.271 22560708 22961414 23221044 23335428 23319696 23209930 23056058 
1588.646 22916424 22852890 22917856 23153552 23587866 24229620 25064996 
1592.021 26051868 27122698 28180372 29110222 29804268 30166430 30137484 
1595.396 29706724 28912808 27836570 26578480 25248514 23939730 22720654 
1598.772 21639154 20719970 19971510 19390196 18964284 18677782 18514478 
1602.147 18462720 18515828 18672282 18931712 19291638 19743808 20274244 
1605.522 20861124 21476890 22089944 22660570 23145096 23500346 23684604 
1608.897 23667984 23436658 22996698 22375774 21619304 20789274 19948058 
1612.273 19148912 18429220 17802944 17266172 16801968 16389526 16008450 
1615.648 15646186 15302552 14989165 14724880 14527011 14404339 14354711 
1619.023 14367485 14426089 14511251 14605476 14692866 14764471 14819562 
1622.398 14866020 14916666 14983539 15073579 15185838 15314393 15452188 
1625.774 15594940 15740450 15888177 16037121 16184811 16328111 16465541 
1629.149 16599607 16736604 16884394 17049670 17234110 17433320 17637002 
1632.524 17831252 18001208 18132016 18212344 18235322 18203084 18127076 
1635.899 18028666 17932312 17855730 17806674 17781958 17771566 17761592 
1639.275 17738466 17693184 17623684 17536148 17442770 17357480 17289720 
1642.650 17241074 17203842 17163680 17103502 17006184 16861246 16667498 
1646.025 16436325 16190417 15958156 15767835 15637632 15575088 15577183 
1649.400 15632823 15724750 15827967 15911616 15934508 15853638 15643919 
1652.776 15327265 14980967 14694957 14521255 14454897 14460344 14497787 
1656.151 14538934 14568948 14583202 14584367 14577549 14566687 14552364 
1659.526 14531568 14499157 14450101 14380638 14289920 14180974 14060145 
1662.901 13937606 13824917 13733495 13670916 13639562 13635561 13649683 
1666.277 13669651 13680114 13667292 13621748 13540931 13430635 13303934 
1669.652 13177441 13065325 12976794 12915074 12878040 12859746 12850258 
1673.027 12836914 12804220 12737544 12629533 12485947 12327442 12180957 
1676.402 12069439 12000661 11967997 11955531 11946233 11929613 11904377 
1679.778 11878598 11864195 11870699 11896783 11928523 11939115 11897022 
1683.153 11776758 11575090 11321308 11069407 10869425 10741023 10675784 
1686.528 10649229 10637684 10622540 10593985 10549103 10489662 10420321 
1689.903 10347392 10279464 10225522 10194144 10190515 10213479 10254527 
1693.279 10296564 10318550 10300228 10231086 10118812 9992667 9891301 
1696.654 9840831 9844323 9882081 9922963 9930658 9875844 9747804 9565467 
1700.511 9375724 9227015 9147248 9133577 9164778 9214764 9262215 9292071 
1704.369 9296032 9273928 9232295 9182747 9137232 9104477 9088304 9087628 
1708.226 9098319 9115373 9135100 9155945 9179397 9208502 9247154 9297554 
1712.083 9359845 9431220 9507414 9584266 9657913 9725168 9782775 9825512 
1715.941 9845543 9835137 9790028 9714088 9622036 9534983 9471483 9441479 
1719.798 9444290 9471212 9510429 9550360 9583622 9606861 9621155 9629591 
1723.656 9636231 9643481 9652255 9662691 9674650 9688507 9704296 9721170 
1727.513 9736554 9747025 9750108 9745771 9738282 9733979 9738620 9753260 
1731.371 9771389 9777659 9750142 9668111 9521436 9322605 9106508 8918386 
1735.228 8789883 8727708 8718310 8738696 8766791 8783966 8779740 8751441 
1739.085 8704450 8649351 8597977 8559316 8536844 8529748 8534444 8547117 
1742.943 8564486 8584831 8607812 8634345 8666049 8704179 8749514 8801176 
1746.800 8856463 8911216 8960800 9000884 9027913 9039686 9034849 9013705 
1750.658 8978660 8934553 8889639 8853047 8831541 8828633 8842159 8864748 
1754.515 8885005 8891262 8874082 8829986 8763984 8687649 8615045 8556207 
1758.373 8513799 8483388 8455785 8420177 8368525 8298238 8212395 8119310 
1762.230 8029486 7952909 7895611 7860082 7845069 7846419 7858564 7873713 
1766.087 7884848 7886467 7876986 7860319 7844597 7838929 7848409 7871419 
1769.945 7899154 7919501 7919703 7893856 7845643 7789877 7744878 7724337 
1773.802 7732635 7764071 7808498 7856372 7902022 7945316 7989187 8036541 
1777.660 8088422 8141896 8191696 8232385 8261156 8279022 8290639 8302088 
1781.517 8316915 8335491 8355015 8370789 8379031 8378761 8371735 8362479 
1785.375 8355386 8354373 8361669 8377950 8403725 8438825 8482172 8530491 
1789.232 8577565 8615181 8633432 8624171 8584189 8517144 8433859 8348157 
1793.089 8272740 8215029 8175321 8149694 8132983 8120728 8109790 8098177 
1796.947 8084742 8067662 8045148 8015682 7978962 7936373 7890854 7846047 
1800.804 7805159 7770278 7742045 7721133 7707507 7701807 7704471 7715197 
1804.662 7732399 7753682 7776248 7798277 7819361 7840413 7862882 7887210 
1808.519 7912651 7937082 7957735 7973258 7983991 7992360 8001945 8015614 
1812.376 8034481 8057637 8083088 8108845 8134098 8159755 8187948 8220263 
1816.234 8257814 8299961 8344374 8388253 8429805 8467576 8501600 8532722 
1820.091 8561715 8589427 8616262 8641949 8665745 8685688 8699210 8703233 
1823.949 8696134 8678387 8654489 8631640 8617343 8616802 8630289 8652867 
1827.806 8675683 8688562 8684573 8662567 8629038 8594969 8573003 8571279 
1831.664 8590846 8627246 8672877 8721319 8768278 8813247 8858120 8905432 
1835.521 8956809 9012047 9069966 9129450 9190734 9256259 9329647 9414729 
1839.378 9514222 9628406 9754987 9890386 10029624 10167246 10298091 10418284 
1843.236 10526358 10625120 10720713 10822238 10936835 11067843 11212832 
1846.611 11365046 11514693 11652138 11770767 11867192 11941908 11997255 
1849.986 12035679 12057481 12060888 12042866 12001206 11936322 11851460 
1853.362 11752452 11644413 11531467 11414264 11292230 11163840 11029369 
1856.737 10891033 10752843 10618669 10491020 10369925 10254019 10141841 
1860.112 10033389 9929912 9834426 9749023 9674141 9608655 9550767 9499320 
1863.969 9455939 9423431 9404978 9401930 9411106 9425768 9436333 9434165 
1867.827 9415203 9381548 9340615 9302260 9275349 9263502 9266176 9279140 
1871.684 9297995 9319017 9340074 9359472 9375927 9387303 9391468 9386964 
1875.542 9373896 9353717 9328529 9299755 9266887 9228132 9180548 9122783 
1879.399 9055926 8983869 8911554 8844594 8784981 8732238 8683052 8633770 
1883.257 8582296 8529443 8478523 8434162 8400178 8377984 8366127 8361398 
1887.114 8360216 8359439 8357278 8353393 8348090 8342449 8337890 8336673 
1890.971 8340963 8352380 8371397 8396631 8425109 8452744 8477307 8497985 
1894.829 8516975 8538263 8565568 8600580 8642220 8687142 8731258 8772234 
1898.686 8809730 8846047 8884193 8925894 8970913 9017392 9062455 9104715 
1902.544 9143830 9181563 9219332 9258086 9295896 9329782 9356696 9374844 
1906.401 9384425 9387744 9387067 9383918 9378364 9368884 9354766 9336790 
1910.259 9317697 9301109 9289938 9285030 9284286 9285131 9284657 9283338 
1914.116 9283473 9287637 9297690 9311467 9322978 9324264 9308760 9274266 
1917.973 9225458 9171647 9121836 9082248 9052475 9028015 9001730 8968884 
1921.831 8928803 8885580 8845236 8812469 8788801 8771287 8755228 8737107 
1925.688 8716451 8696168 8681058 8674736 8677474 8686398 8696810 8704957 
1929.546 8709284 8711413 8713611 8718005 8723686 8727641 8726930 8720440 
1933.403 8710298 8701306 8698128 8703266 8715064 8728757 8738966 8743057 
1937.260 8742684 8743327 8751475 8770814 8799959 8833265 8861570 8877768 
1941.118 8878816 8867352 8850511 8835869 8829242 8832014 8842463 8856733 
1944.975 8872256 8887338 8901644 8914699 8926063 8934857 8941453 8948555 
1948.833 8960732 8983497 9020031 9068951 9125118 9180175 9225864 9257646 
1952.690 9275011 9281002 9278904 9270542 9254227 9226779 9186402 9134356 
1956.548 9077139 9024835 8986914 8968411 8968580 8979809 8993848 9003759 
1960.405 9007785 9009950 9016107 9030721 9054775 9085225 9117573 9148060 
1964.262 9176047 9202985 9230569 9258797 9283980 9301447 9307845 9302294 
1968.120 9290040 9278227 9272303 9275112 9283812 9291936 9294711 9290345 
1971.977 9280900 9272709 9270915 9277042 9289295 9303783 9317832 9335334 
1975.835 9363975 9412291 9486180 9581963 9686000 9780302 9849407 9884928 
1979.692 9888793 9870184 9840730 9809582 9779387 9748278 9712936 9671296 
1983.550 9625967 9582877 9548768 9528446 9522316 9527430 9538472 9551817 
1987.407 9566076 9581929 9600729 9622240 9643854 9662859 9676886 9687288 
1991.264 9697486 9712394 9734724 9763425 9792976 9817276 9830697 9833273 
1995.122 9828359 9823376 9824054 9833307 9849237 9866896 9881064 9889369 
1998.979 9892962 9895233 9900182 9907945 9915403 9918014 9909810 9890216 
2002.837 9861439 9828901 9798772 9774846 9757258 9744280 9733572 9724254 
2006.694 9718730 9719984 9728760 9742653 9754547 9756309 9741772 9709751 
2010.552 9663876 9612077 9563028 9522045 9491327 9471009 9459190 9456887 
2014.409 9466505 9490108 9528344 9578101 9633047 9686813 9735706 9780742 
2018.266 9827172 9881810 9947778 10024267 10103991 10178134 10238821 
2021.642 10282280 10308948 10323809 10331342 10334125 10333344 10329273 
2025.017 10322792 10317193 10315903 10321299 10331172 10339553 10337790 
2028.392 10319297 10284791 10242247 10206288 10191566 10208561 10259176 
2031.767 10335176 10423273 10510029 10587093 10651266 10705023 10751552 
2035.143 10793093 10829474 10859267 10882573 10902279 10923141 10949848 
2038.518 10984374 11023898 11062201 11091636 11106797 11107511 11097449 
2041.893 11083343 11071752 11065940 11065226 11066586 11066280 11061624 
2045.268 11051937 11038308 11021518 11002283 10980704 10957052 10933165 
2048.644 10911419 10894057 10881045 10870410 10857059 10837117 10808650 
2052.019 10773630 10738408 10711272 10698299 10702510 10721529 10748291 
2055.394 10775532 10797203 10810723 10817177 10819045 10817177 10810927 
2058.769 10798528 10778012 10751009 10721970 10697280 10683629 10684681 
2062.145 10698843 10721019 10743571 10760044 10767142 10764969 10755594 
2065.520 10742450 10727404 10710831 10692798 10673441 10653644 10635443 
2068.895 10620028 10607532 10596395 10584139 10569031 10551412 10534097 
2072.270 10520553 10513933 10515155 10521911 10529820 10534437 10533012 
2075.646 10525203 10512440 10497062 10480158 10461558 10439394 10412922 
2079.021 10382752 10351328 10322418 10298803 10281126 10267556 10254697 
2082.396 10239804 10222333 10204524 10190141 10183086 10184680 10193262 
2085.771 10204693 10213886 10216872 10212529 10201268 10185291 10166194 
2089.146 10144860 10121389 10096361 10071266 10049224 10033864 10027522 
2092.522 10030540 10040950 10054785 10069232 10082321 10094428 10106908 
2095.897 10120711 10134414 10145538 10150795 10148014 10138449 10126070 
2099.272 10115794 10111623 10114335 10121322 10128037 10130818 10128614 
2102.647 10124205 10123017 10129496 10146216 10172266 10203574 10236751 
2106.023 10270236 10304978 10344983 10393714 10451681 10516412 10581797 
2109.398 10641351 10690420 10728152 10756749 10781000 10804879 10830255 
2112.773 10856584 10882301 10905439 10926166 10946077 10967213 10992155 
2116.148 11021654 11055234 11092520 11133278 11177983 11227452 11281621 
2119.524 11338007 11392087 11438587 11472266 11491250 11496660 11492985 
2122.899 11486045 11480669 11479751 11483561 11490774 11499314 11508194 
2126.274 11517074 11526091 11534971 11542321 11546030 11544295 11535584 
2129.649 11519695 11498055 11472266 11444132 11414741 11385419 11357937 
2133.025 11334877 11318485 11310935 11312533 11320322 11330830 11340183 
2136.400 11347019 11352870 11362256 11378787 11404672 11437566 11471041 
2139.775 11498634 11515203 11520409 11517619 11514081 11514454 11521327 
2143.150 11531943 11539735 11539123 11526363 11501559 11469137 11433722 
2146.526 11399060 11365862 11333007 11298556 11262442 11226603 11193282 
2149.901 11164010 11138309 11111148 11077803 11034569 10981180 10922190 
2153.276 10863786 10811096 10766802 10729781 10697179 10669027 10651266 
2156.651 10654187 10692899 10778249 10912098 11084124 11274786 11460359 
2160.027 11622086 11749388 11840393 11899542 11932201 11942930 11934926 
2163.402 11911120 11874751 11832324 11789628 11752043 11721508 11697135 
2166.777 11675045 11651901 11626001 11598537 11572435 11550046 11531739 
2170.152 11515849 11499042 11478323 11453249 11426001 11399842 11378855 
2173.528 11364875 11357835 11356407 11358651 11363379 11370454 11379059 
2176.903 11387426 11392087 11388243 11372291 11343992 11306378 11266217 
2180.278 11231159 11206644 11195356 11195458 11202972 11213444 11225277 
2183.653 11237449 11250710 11265332 11279071 11290327 11297366 11300699 
2187.029 11302977 11309337 11323246 11346373 11376066 11406645 11433042 
2190.404 11451786 11463319 11471688 11481690 11496456 11516496 11538578 
2193.779 11558212 11571857 11578254 11578697 11575260 11570088 11562125 
2197.154 11549807 11530616 11504316 11473083 11442057 11415931 11398448 
2200.530 11390113 11388209 11388719 11388753 11387018 11385250 11384773 
2203.905 11386644 11389909 11392019 11390284 11384433 11376780 11371338 
2207.280 11373106 11384093 11402427 11423075 11440083 11448214 11446139 
2210.655 11436546 11424435 11415489 11413720 11420217 11434437 11454780 
2214.031 11480432 11511597 11547799 11588566 11630969 11671743 11706837 
2217.406 11734239 11753984 11767397 11776895 11783670 11786734 11784044 
2220.781 11772810 11751737 11722291 11687775 11652615 11620351 11592683 
2224.156 11568999 11548276 11529256 11512618 11500641 11495980 11500130 
2227.531 11512618 11530616 11549433 11565902 11576178 11578595 11572810 
2230.907 11558723 11536673 11508024 11474682 11439947 11408243 11383480 
2234.282 11368005 11361678 11362018 11365488 11369536 11373549 11379978 
2237.657 11392835 11415285 11448452 11490162 11535210 11578493 11615926 
2241.032 11645774 11669224 11688557 11705372 11720452 11733013 11741898 
2244.408 11747072 11750272 11753949 11760962 11772606 11787790 11803655 
2247.783 11816763 11824560 11827080 11825854 11823607 11822517 11823641 
2251.158 11826127 11828952 11831302 11833583 11837533 11844990 11856499 
2254.533 11871482 11887759 11902369 11912960 11918817 11920009 11917625 
2257.909 11912721 11905126 11894331 11880063 11862969 11845194 11829736 
2261.284 11819521 11816525 11820849 11830996 11845058 11861641 11880029 
2264.659 11900802 11924402 11950354 11977261 12002569 12023450 12038472 
2268.034 12047534 12052234 12054347 12055710 12056425 12055982 12052848 
2271.410 12046137 12035951 12023347 12010335 11998584 11989284 11982609 
2274.785 11978896 11977670 11979135 11983256 11989557 11997016 12004067 
2278.160 12008938 12010369 12008393 12004544 12000968 12000049 12002978 
2281.535 12009585 12018613 12027912 12036292 12043139 12048420 12052882 
2284.911 12057379 12061466 12065146 12067667 12068553 12067871 12066577 
2288.286 12065078 12064226 12064567 12066270 12069643 12075366 12084156 
2291.661 12096694 12113457 12133798 12156525 12180446 12204061 12226827 
2295.036 12248774 12270280 12291651 12312682 12332624 12350998 12367088 
2298.412 12380896 12392964 12403977 12413898 12422354 12427878 12428798 
2301.787 12423854 12412875 12396920 12378203 12359145 12342032 12328397 
2305.162 12318750 12313058 12310604 12310910 12312955 12316091 12319261 
2308.537 12321409 12321955 12320454 12317352 12313569 12310160 12308047 
2311.913 12308013 12310058 12314114 12320148 12328431 12338964 12352020 
2315.288 12366952 12382804 12398521 12412603 12424195 12433367 12440391 
2318.663 12445948 12450517 12454234 12456758 12457883 12457440 12455530 
2322.038 12452325 12447244 12439436 12427059 12408375 12382192 12348885 
2325.414 12310467 12269939 12231290 12197859 12171960 12154344 12144530 
2328.789 12141294 12143270 12149505 12159046 12171381 12185182 12199461 
2332.164 12213365 12226110 12238039 12250342 12263907 12279995 12298571 
2335.539 12318682 12339373 12359350 12378271 12396579 12415399 12435822 
2338.915 12458462 12483014 12508146 12532530 12554767 12574071 12590136 
2342.290 12603131 12612921 12619710 12623563 12625270 12626634 12630898 
2345.665 12641506 12662896 12697967 12748531 12814424 12894048 12984031 
2349.040 13080315 13178704 13274861 13364922 13446424 13517824 13579628 
2352.416 13633099 13680354 13723577 13764001 13802616 13839832 13876332 
2355.791 13913211 13952319 13995535 14044540 14100634 14163652 14233252 
2359.166 14308822 14389371 14473943 14560930 14648243 14732831 14811814 
2362.541 14882684 14944477 14998253 15046205 15091246 15135708 15180415 
2365.917 15224133 15265245 15300904 15329221 15348958 15359703 15361487 
2369.292 15354382 15338729 15314771 15284190 15249115 15213014 15179455 
2372.667 15152074 15133856 15126651 15132140 15151732 15186558 15238065 
2376.042 15306910 15393241 15495864 15612937 15742546 15882919 16033202 
2379.417 16193409 16362965 16541637 16727515 16917534 17108362 17296204 
2382.793 17478090 17651910 17816270 17969952 18111496 18238986 18350474 
2386.168 18444050 18518488 18573540 18609714 18628044 18629462 18615316 
2389.543 18587026 18546360 18495668 18437620 18374118 18306614 18235116 
2392.918 18158720 18075778 17985322 17887286 17783476 17676930 17571236 
2396.294 17470846 17379344 17299928 17235626 17188432 17160234 17151894 
2399.669 17163406 17193430 17239624 17299548 17370514 17450874 17540184 
2403.044 17638452 17746334 17864188 17992228 18130496 18278898 18437932 
2406.419 18608054 18789764 18983044 19187420 19401942 19625304 19856968 
2409.795 20096736 20344902 20601094 20864254 21131434 21399264 21662454 
2413.170 21916396 22156780 22379854 22582626 22761854 22914572 23037820 
2416.545 23129684 23189692 23219330 23221952 23202170 23165018 23114728 
2419.920 23054520 22986602 22911950 22830994 22744186 22651772 22553972 
2423.296 22451656 22345982 22239042 22134674 22037408 21952498 21884892 
2426.671 21838478 21815100 21815100 21837538 21881024 21944900 22028552 
2430.046 22131988 22254874 22396706 22555822 22731128 22921452 23126574 
2433.421 23346826 23582862 23834568 24101234 24381034 24671848 24972406 
2436.797 25282370 25603276 25937996 26289978 26662042 27056150 27473240 
2440.172 27913098 28375010 28858272 29361750 29884478 30425820 30984704 
2443.547 31560804 32153800 32763966 33391490 34036080 34696920 35372316 
2446.922 36059856 36757028 37461284 38170876 38883632 39597952 40311448 
2450.298 41021132 41723732 42415524 43092468 43750532 44385776 44993796 
2453.673 45570288 46110736 46610388 47064568 47467848 47813344 48094084 
2457.048 48301896 48429004 48469752 48419892 48278636 48047076 47727760 
2460.423 47324016 46838452 46274392 45635060 44925336 44151404 43321288 
2463.799 42443580 41527904 40582716 39617112 38640036 37660636 36689024 
2467.174 35736420 34813108 33929340 33093456 32311570 31587600 30923608 
2470.549 30319962 29776092 29290176 28859866 28481138 28149224 27857802 
2473.924 27600472 27371030 27164246 26976180 26803522 26644040 26495462 
2477.300 26355386 26221726 26093068 25968562 25848208 25732316 25620780 
2480.675 25513066 25407908 25303056 25196790 25088340 24977494 24865624 
2484.050 24754062 24644284 24537162 24433186 24332424 24235402 24143022 
2487.425 24056650 23977510 23906576 23843634 23788088 23738460 23693492 
2490.801 23652310 23614628 23580202 23549036 23520632 23494086 23468238 
2494.176 23442114 23414556 23385220 23353154 23317738 23278268 23233802 
2497.551 23183750 23128042 23067344 23002672 22935494 22866616 22797086 
2500.926 22727358 22657848 22589292 22522668 22458950 22399322 22344132 
2504.302 22293414 22246714 22203368 22162882 22125330 22090708 22059124 
2507.677 22030052 22002480 21974702 21944900 21911446 21873114 21829526 
2511.052 21780364 21725638 21665344 21599244 21527096 21448484 21363552 
2514.427 21272548 21176344 21076090 20973254 20869086 20765672 20664680 
2517.802 20568262 20478084 20395670 20321670 20256574 20200130 20152056 
2521.178 20112422 20080600 20056448 20039340 20028620 20023692 20023866 
2524.553 20028966 20038958 20053672 20072306 20093890 20116308 20137514 
2527.928 20156430 20172952 20187806 20203530 20222346 20245604 20273794 
2531.303 20305874 20339866 20374068 20407302 20439254 20470444 20501774 
2534.679 20533626 20566734 20601130 20637196 20675662 20717606 20763690 
2538.054 20814264 20868772 20925722 20983304 21040338 21096370 21152340 
2541.429 21209326 21268720 21331186 21396096 21461956 21526888 21589738 
2544.804 21649636 21706966 21762318 21816702 21870710 21924618 21978256 
2548.180 22031690 22084434 22136208 22186454 22234474 22279184 22319820 
2551.555 22356064 22388366 22417604 22445062 22471964 22498694 22525112 
2554.930 22550308 22573202 22593132 22609398 22621894 22630620 22635750 
2558.305 22637112 22634180 22626744 22614074 22595506 22570306 22537292 
2561.681 22495170 22442934 22380134 22307542 22227114 22141858 22055430 
2565.056 21970832 21890606 21815938 21747514 21685198 21629020 21579012 
2568.431 21536078 21500288 21472122 21451340 21437970 21431252 21431148 
2571.806 21437066 21449042 21467074 21490470 21519158 21552758 21591096 
2575.182 21634766 21683874 21738736 21798552 21861998 21926814 21990560 
2578.557 22051316 22107862 22159988 22208738 22255746 22303148 22352818 
2581.932 22406892 22466974 22534392 22609642 22692724 22782490 22877164 
2585.307 22974166 23071676 23167602 23261278 23352490 23441484 23528782 
2588.683 23614524 23698498 23780562 23860646 23938786 24015292 24090414 
2592.058 24164108 24236276 24306284 24373534 24437534 24498282 24556060 
2595.433 24611706 24665958 24719828 24774548 24831556 24892746 24960086 
2598.808 25035228 25119302 25212382 25313452 25420870 25533096 25648758 
2602.184 25767404 25889214 26014716 26144688 26279416 26419046 26563510 
2605.559 26712814 26866964 27026106 27190066 27358220 27529050 27700440 
2608.934 27869780 28034590 28192640 28341940 28481244 28609550 28726104 
2612.309 28830936 28924000 29005818 29076846 29137326 29187220 29225920 
2615.685 29252180 29265296 29264268 29249594 29222128 29183888 29137326 
2619.060 29084642 29028240 28970220 28911960 28854766 28799814 28747770 
2622.435 28698990 28653648 28611354 28572428 28536864 28505444 28479510 
2625.810 28460442 28449262 28446926 28453472 28468542 28491186 28520694 
2629.186 28556292 28597730 28644304 28696018 28752408 28813234 28878140 
2632.561 28947232 29020270 29097182 29177580 29261112 29347072 29434538 
2635.936 29523190 29612498 29702608 29793552 29885544 29978690 30072922 
2639.311 30168134 30264362 30361606 30459830 30558648 30657628 30755458 
2642.687 30851318 30944246 31034132 31121690 31208088 31294968 31384036 
2646.062 31476010 31571388 31669960 31771082 31874332 31979426 32086368 
2649.437 32195762 32308142 32424516 32545496 32672078 32804918 32944516 
2652.812 33091132 33244378 33403370 33567324 33735456 33907164 34082812 
2656.188 34262800 34448096 34639284 34836412 35039372 35247424 35459892 
2659.563 35675804 35895032 36116780 36341164 36567572 36795508 37024280 
2662.938 37253252 37482052 37710504 37938244 38165380 38391696 38617472 
2666.313 38842756 39068332 39295156 39524308 39756924 39994096 40236084 
2669.688 40483196 40735028 40991268 41251452 41514888 41780964 42048736 
2673.064 42317116 42584632 42849868 43111496 43368372 43619356 43863524 
2676.439 44100380 44329408 44550920 44765268 44974208 45179688 45384084 
2679.814 45590528 45801560 46020396 46249772 46492660 46751544 47028568 
2683.189 47325312 47642300 47978944 48334296 48706544 49094244 49496368 
2686.565 49912056 50341208 50783852 51239924 51709088 52190644 52684252 
2689.940 53189284 53704956 54230848 54766624 55311944 55866580 56430640 
2693.315 57004580 57589036 58184584 58791080 59408416 60035456 60671140 
2696.690 61314508 61965096 62622480 63286804 63958048 64635224 65317152 
2700.066 66002048 66688208 67374032 68058256 68739808 69417408 70088904 
2703.441 70751376 71401544 72035368 72648792 73238112 73799488 74328752 
2706.816 74821776 75274264 75682096 76042000 76352296 76611952 76821208 
2710.191 76980880 77091664 77154112 77168840 77136896 77059496 76937920 
2713.567 76773480 76566536 76316704 76022576 75683208 75297832 74866696 
2716.942 74391984 73876584 73324136 72738616 72123800 71483456 70821736 
2720.317 70143184 69453064 68757432 68062288 67373448 66696904 66037840 
2723.692 65400928 64790904 64211660 63666492 63157944 62687436 62255552 
2727.068 61862308 61507552 61190704 60911932 60671060 60468024 60302544 
2730.443 60173776 60080504 60021268 59994712 59999580 60034660 60099152 
2733.818 60191740 60311224 60456068 60624312 60814308 61023572 61249448 
2737.193 61489344 61739340 61995516 62253984 62510580 62761472 63003504 
2740.569 63233720 63449664 63649768 63832796 63999288 64150356 64288728 
2743.944 64417840 64541608 64663528 64786440 64911968 65041268 65174492 
2747.319 65311724 65452740 65597108 65743840 65892012 66040308 66187768 
2750.694 66333780 66478676 66623740 66770740 66922120 67080864 67250264 
2754.070 67433856 67635568 67858872 68106672 68380328 68679488 69001936 
2757.445 69343624 69700136 70066784 70438696 70812096 71182424 71544824 
2760.820 71893912 72223216 72526024 72796368 73028536 73218192 73362112 
2764.195 73457960 73504152 73500464 73447960 73349360 73208656 73031984 
2767.571 72825048 72593736 72343592 72079008 71804040 71523256 71241024 
2770.946 70962208 70691792 70433280 70189800 69962688 69752152 69558048 
2774.321 69379776 69216848 69068432 68933392 68809296 68692608 68578592 
2777.696 68461544 68335024 68192648 68028032 67835128 67609120 67346520 
2781.072 67045488 66706948 66333780 65931268 65505864 65064632 64614540 
2784.447 64161228 63709772 63264376 62827752 62402080 61989056 61589220 
2787.822 61202564 60828604 60466808 60116576 59777772 59450400 59134812 
2791.197 58831336 58539932 58260660 57993232 57737440 57492800 57258660 
2794.573 57034352 56818584 56609372 56404604 56201744 55998376 55793032 
2797.948 55584128 55370812 55151916 54926516 54693224 54450744 54197660 
2801.323 53933252 53657300 53369500 53070432 52760644 52440724 52111620 
2804.698 51774520 51431040 51083284 50733872 50385448 50040684 49702436 
2808.073 49373436 49056220 48753544 48467420 48200068 47952304 47724540 
2811.449 47516120 47325900 47152352 46994120 46849968 46718924 46600172 
2814.824 46492880 46396972 46312288 46239268 46179344 46134536 46107488 
2818.199 46101372 46119096 46162944 46234848 46335880 46466216 46625364 
2821.574 46812840 47026832 47265716 47527576 47810056 48110296 48425708 
2824.950 48753028 49088012 49426080 49761772 50089096 50402264 50695592 
2828.325 50963888 51202864 51409000 51579000 51710616 51802332 51853780 
2831.700 51865912 51841160 51783144 51696212 51585116 51454800 51309872 
2835.075 51154888 50994520 50833276 50675484 50524484 50383364 50253932 
2838.451 50137328 50034624 49947520 49878348 49830628 49809152 49819144 
2841.826 49866272 49957148 50097796 50296340 50562340 50906812 51342724 
2845.201 51883088 52538016 53312740 54202916 55192888 56251036 57332532 
2848.576 58381284 59330200 60114184 60674528 60964812 60960048 60656964 
2851.952 60075028 59249872 58232092 57080412 55851696 54602364 53382240 
2855.327 52228496 51170504 50224804 49397528 48685748 48079016 47563252 
2858.702 47121552 46737596 46396860 46086452 45796516 45519284 45248664 
2862.077 44980604 44712632 44444096 44175572 43909164 43647676 43394444 
2865.453 43152956 42927108 42720208 42535808 42377020 42246044 42144420 
2868.828 42072028 42027676 42008988 42012604 42034900 42071368 42117880 
2872.203 42169648 42222344 42272848 42319232 42361896 42403832 42449864 
2875.578 42506464 42579592 42674220 42793112 42936912 43103992 43291308 
2878.954 43495440 43712456 43938968 44172712 44411316 44653580 44898952 
2882.329 45147076 45398392 45652980 45910816 46171164 46432884 46694316 
2885.704 46954060 47210748 47463596 47712112 47956188 48195584 48429596 
2889.079 48658024 48880348 49096176 49305692 49509140 49706932 49899868 
2892.455 50088540 50274092 50458312 50643052 50830372 51022168 51219456 
2895.830 51422648 51630976 51843360 52058316 52274648 52491160 52706620 
2899.205 52920020 53129932 53334620 53533000 53724156 53908828 54087916 
2902.580 54263548 54437596 54612468 54790268 54973444 55165420 55370320 
2905.956 55593768 55841408 56119316 56433056 56787540 57186948 57635800 
2909.331 58138484 58700076 59325600 60018984 60781648 61611520 62501708 
2912.706 63439576 64406424 65379276 66329336 67225240 68036832 68735768 
2916.081 69301144 69722112 69998696 70141664 70168928 70102608 69962568 
2919.457 69761880 69504888 69186192 68792600 68306912 67713936 67003808 
2922.832 66175884 65239252 64212276 63120200 61989820 60848464 59720168 
2926.207 58623468 57572540 56576196 55639376 54764032 53950020 53196704 
2929.582 52502936 51868560 51294064 50780836 50330976 49946332 49628736 
2932.958 49379412 49198732 49086196 49040528 49059264 49138436 49272844 
2936.333 49454596 49673868 49919716 50179724 50441600 50695180 50932372 
2939.708 51147916 51340116 51509600 51659228 51792252 51912024 52021036 
2943.083 52119208 52204840 52273152 52317328 52328692 52299164 52222180 
2946.458 52095000 51920056 51705468 51464164 51211512 50964300 50737484 
2949.834 50541684 50382804 50261744 50175000 50114980 50072364 50036968 
2953.209 49998564 49947892 49877828 49782952 49660272 49509032 49330300 
2956.584 49126264 48899964 48654692 48393260 48118732 47833580 47540552 
2959.959 47241964 46940660 46638644 46338460 46042760 45753880 45474580 
2963.335 45208184 44957232 44724716 44512700 44322328 44153968 44007020 
2966.710 43880640 43773324 43683328 43608624 43546168 43492292 43441900 
2970.085 43389060 43328392 43254668 43164812 43057560 42934316 42798708 
2973.460 42656052 42512896 42376140 42252140 42146064 42060384 41994244 
2976.836 41941908 41893192 41833716 41745468 41610560 41413512 41143140 
2980.211 40795660 40375112 39893256 39365816 38812684 38254136 37706820 
2983.586 37185600 36700492 36257768 35860768 35510908 35208940 34956048 
2986.961 34753772 34604224 34507428 34461012 34456168 34477044 34500004 
2990.337 34496556 34433928 34284452 34027840 33656360 33176672 32609784 
2993.712 31986706 31340762 30705172 30106232 29559508 29071744 28640554 
2997.087 28259256 27917726 27606722 27318664 27048004 26791080 26545934 
3000.462 26310852 26084906 25867058 25656456 25452138 25253150 25058536 
3003.838 24867518 24680160 24496776 24318268 24146068 23981256 23824698 
3007.213 23676486 23535884 23401898 23273234 23149184 23029190 22913350 
3010.588 22802148 22695550 22593446 22495484 22401066 22309740 22221464 
3013.963 22136418 22055220 21978430 21906496 21839976 21779390 21725254 
3017.339 21678162 21638562 21606070 21579360 21556308 21533502 21507076 
3020.714 21473620 21430454 21376118 21310826 21235770 21152930 21064614 
3024.089 20973114 20880488 20788716 20699988 20616000 20538666 20469332 
3027.464 20408692 20356638 20311708 20271920 20234218 20195166 20151780 
3030.840 20101316 20041700 19971962 19892242 19803454 19706984 19604886 
3034.215 19499382 19392240 19285714 19181602 19081498 18986850 18898764 
3037.590 18817860 18744580 18679026 18621334 18571222 18528724 18492970 
3040.965 18463342 18438622 18417604 18398694 18381170 18364406 18348470 
3044.341 18333678 18320336 18308170 18296628 18284704 18271400 18255918 
3047.716 18238260 18218494 18197106 18174510 18150152 18123656 18094154 
3051.091 18060752 18023484 17982766 17938944 17892432 17843234 17790310 
3054.466 17732772 17669580 17601014 17528248 17453566 17379894 17309858 
3057.842 17245694 17187812 17135900 17088854 17045158 17003186 16962114 
3061.217 16921220 16880330 16839614 16799594 16761124 16724966 16691944 
3064.592 16662024 16635273 16610449 16586490 16562497 16538162 16514171 
3067.967 16491560 16471839 16456043 16444067 16434914 16426930 16418327 
3071.343 16407557 16393932 16377863 16360246 16342528 16325772 16311185 
3074.718 16299145 16290201 16284285 16281325 16280983 16282219 16284181 
3078.093 16285660 16285591 16283389 16278539 16271075 16260790 16247753 
3081.468 16231759 16213151 16192034 16169403 16146155 16123803 16103275 
3084.844 16085120 16069166 16054725 16040731 16026637 16011922 15996933 
3088.219 15982289 15968950 15957709 15948739 15942518 15938908 15937567 
3091.594 15938392 15940970 15944922 15949838 15955200 15960356 15964929 
3094.969 15969088 15972698 15976548 15981050 15986860 15994286 16003327 
3098.344 16013915 16025638 16038222 16051425 16065108 16079308 16094266 
3101.720 16109843 16125832 16141685 16156370 16169265 16179584 16187597 
3105.095 16194029 16200047 16207201 16216693 16229007 16243832 16260307 
3108.470 16276991 16292747 16306955 16319271 16330142 16340531 16351266 
3111.845 16363205 16377622 16394928 16415711 16440041 16467296 16496275 
3115.221 16525598 16553340 16578469 16600708 16620675 16639197 16657753 
3118.596 16676828 16696386 16715635 16733471 16748829 16761469 16771765 
3121.971 16780824 16789916 16799936 16811440 16824460 16838822 16854494 
3125.346 16871476 16890010 16909956 16931004 16952432 16973278 16992608 
3128.722 17010456 17026960 17043054 17059560 17077586 17097470 17119322 
3132.097 17143036 17168680 17196360 17226076 17257346 17289514 17321306 
3135.472 17351306 17378826 17403898 17427662 17452012 17478952 17509482 
3138.847 17543636 17580070 17616610 17650840 17681174 17706954 17728870 
3142.223 17748786 17768462 17789932 17815062 17844510 17878656 17917672 
3145.598 17960838 18007286 18056020 18105934 18155854 18205054 18253430 
3148.973 18300704 18347432 18393646 18439280 18484328 18528344 18571084 
3152.348 18612862 18653986 18695250 18737386 18781010 18826026 18872464 
3155.724 18919634 18967018 19014370 19061488 19108816 19157154 19207368 
3159.099 19260636 19317720 19379178 19445044 19514804 19587380 19661808 
3162.474 19737082 19812402 19887630 19963010 20038958 20115822 20193882 
3165.849 20272822 20351950 20430468 20507054 20580874 20650710 20715590 
3169.225 20774986 20828482 20876144 20918628 20956876 20992242 21025522 
3172.600 21057726 21088962 21119084 21147470 21173422 21196176 21215136 
3175.975 21229994 21240674 21247320 21250662 21251672 21251914 21253132 
3179.350 21257236 21265484 21279056 21297742 21320886 21347716 21377128 
3182.726 21407652 21438738 21469476 21499590 21528628 21556762 21584446 
3186.101 21612200 21640966 21671580 21704600 21740058 21777752 21817364 
3189.476 21858654 21901688 21947064 21995510 22047586 22103610 22163126 
3192.851 22225022 22288044 22350760 22412370 22471896 22529054 22583848 
3196.227 22636380 22687382 22737586 22788146 22840632 22895710 22953764 
3199.602 23014412 23076010 23136708 23194864 23249288 23299942 23347700 
3202.977 23394240 23441274 23490448 23542634 23598290 23657384 23719072 
3206.352 23782418 23846610 23910322 23972748 24033502 24092374 24149712 
3209.728 24206218 24262380 24318654 24374794 24430558 24485766 24540388 
3213.103 24595190 24651298 24709902 24771566 24836082 24902570 24969350 
3216.478 25035370 25099642 25161994 25223020 25283248 25343202 25402498 
3219.853 25460536 25516860 25571330 25624646 25678144 25733548 25792298 
3223.229 25855102 25921782 25991322 26062386 26133744 26204376 26274242 
3226.604 26343028 26411264 26479122 26547096 26615468 26684204 26753374 
3229.979 26822696 26891816 26960278 27027904 27094484 27160438 27225978 
3233.354 27291424 27356844 27421602 27485346 27547618 27608276 27668340 
3236.729 27728942 27791354 27856426 27924438 27994584 28065588 28136462 
3240.105 28206286 28274744 28342222 28408898 28475088 28540686 28605976 
3243.480 28671132 28737362 28805692 28877642 28954246 29035326 29119716 
3246.855 29205720 29291276 29374902 29456450 29536384 29615798 29696008 
3250.230 29777476 29859988 29943048 30025804 30107652 30188630 30269050 
3253.606 30349846 30431684 30514960 30599816 30686360 30773882 30861814 
3256.981 30949192 31034882 31117774 31197088 31272606 31345430 31416486 
3260.356 31487588 31560198 31634890 31711444 31789228 31866774 31942588 
3263.731 32015878 32085940 32152370 32215208 32274560 32330774 32384462 
3267.107 32437016 32489822 32544564 32602568 32663896 32728024 32793552 
3270.482 32858554 32921676 32981478 33038144 33091776 33142910 33191942 
3273.857 33239476 33285230 33329412 33372310 33414356 33456188 33498670 
3277.232 33542086 33586472 33631544 33676872 33721672 33765324 33807512 
3280.608 33848276 33887640 33926508 33965708 34006340 34049340 34095036 
3283.983 34143312 34193104 34243152 34292344 34339712 34385076 34429156 
3287.358 34473024 34517648 34564148 34612480 34662536 34713968 34766192 
3290.733 34818856 34872064 34925420 34979144 35033300 35087540 35142148 
3294.109 35197152 35252812 35309416 35367176 35425916 35485060 35544244 
3297.484 35602648 35659728 35715624 35770492 35824964 35879628 35935484 
3300.859 35993184 36053520 36116816 36183508 36253628 36326788 36402628 
3304.234 36480928 36561372 36644140 36729264 36816568 36905804 36996068 
3307.610 37086132 37175496 37263828 37351784 37440624 37532408 37628620 
3310.985 37730380 37838024 37951152 38068904 38190848 38316808 38446788 
3314.360 38580792 38718632 38859460 39002144 39145704 39289604 39434064 
3317.735 39580092 39729004 39881992 40039692 40202064 40368348 40537756 
3321.111 40709336 40882552 41057184 41232944 41409428 41585764 41761120 
3324.486 41934208 42104152 42270476 42432880 42591576 42747156 42900152 
3327.861 43051268 43201080 43349808 43497052 43642220 43783844 43920564 
3331.236 44051168 44174840 44291208 44400308 44501908 44595236 44678956 
3334.612 44751384 44811000 44857216 44890760 44913248 44927540 44935992 
3337.987 44940144 44940288 44935148 44922728 44901008 44868276 44823600 
3341.362 44767432 44700144 44622628 44535532 44439432 44334032 44219336 
3344.737 44094772 43959756 43813896 43656836 43488336 43309064 43119872 
3348.113 42922100 42717324 42506868 42291840 42072904 41850136 41623840 
3351.488 41393684 41159936 40922344 40681172 40436168 40187924 39937168 
3354.863 39685292 39433772 39184868 38940128 38700848 38467208 38238464 
3358.238 38013388 37790848 37569544 37349364 37130308 36913128 36698544 
3361.614 36487380 36280104 36077316 35879016 35685556 35496672 35312364 
3364.989 35132268 34956372 34784536 34616820 34453152 34293672 34137864 
3368.364 33985236 33834912 33686004 33538222 33391740 33247024 33105184 
3371.739 32966428 32830894 32697476 32564924 32431908 32297794 32162860 
3375.115 32028150 31895622 31766340 31641446 31520688 31402986 31287524 
3378.490 31172914 31058370 30943536 30828162 30711892 30594162 30474724 
3381.865 30353290 30230260 30106622 29983590 29862472 29744120 29628604 
3385.240 29515388 29403796 29292942 29182542 29073092 28964624 28857422 
3388.615 28751806 28646994 28542314 28437126 28330800 28223542 28115922 
3391.991 28008968 27903450 27800328 27700016 27602696 27508150 27415884 
3395.366 27324732 27233670 27141532 27047264 26950654 26851808 26751682 
3398.741 26651862 26553790 26458520 26366934 26278748 26193570 26110380 
3402.116 26028436 25947142 25865792 25784212 25701942 25618706 25533832 
3405.492 25447116 25358200 25267058 25174038 25079492 24984266 24888956 
3408.867 24794298 24700854 24608936 24518474 24429226 24340694 24252464 
3412.242 24164354 24076194 23988296 23900834 23814302 23728836 23644228 
3415.617 23560370 23477086 23394276 23312038 23230272 23149046 23068042 
3418.993 22986706 22904512 22821180 22736992 22652472 22568770 22486724 
3422.368 22406822 22329272 22253062 22177388 22101518 22024858 21947690 
3425.743 21870466 21793884 21718428 21644482 21571526 21498966 21426448 
3429.118 21353564 21280098 21206472 21132754 21059014 20985772 20912754 
3432.494 20840022 20767966 20696302 20625242 20554818 20484580 20414456 
3435.869 20344416 20274524 20205684 20138972 20075290 20015434 19959436 
3439.244 19906084 19853880 19800576 19744258 19683754 19619480 19552720 
3442.619 19485798 19420720 19358634 19298912 19239786 19178486 19112278 
3445.995 19039918 18961928 18880700 18799626 18722302 18651044 18585884 
3449.370 18525300 18466764 18407994 18347330 18284808 18221534 18158826 
3452.745 18097400 18036918 17976272 17913806 17848204 17779334 17707610 
3456.120 17634620 17561542 17489198 17417522 17345686 17273138 17199360 
3459.496 17124560 17049394 16974622 16900620 16827284 16754374 16681580 
3462.871 16609279 16538024 16468776 16402602 16339809 16279951 16221922 
3466.246 16164383 16106231 16046816 15986035 15923578 15860133 15795322 
3469.621 15728908 15660545 15589925 15517085 15442506 15366499 15289579 
3472.997 15212294 15135125 15058554 14983437 14910562 14840613 14774035 
3476.372 14710689 14649956 14591015 14532938 14474765 14416087 14356390 
3479.747 14295296 14232363 14167110 14099745 14030953 13962447 13896071 
3483.122 13833982 13776998 13724945 13676216 13628484 13579219 13526745 
3486.498 13470656 13411190 13349717 13287432 13224986 13162413 13099370 
3489.873 13035551 12971024 12906439 12843023 12781698 12723521 12668900 
3493.248 12617526 12568785 12521890 12475853 12430025 12383282 12335385 
3496.623 12285925 12235619 12185216 12136319 12090323 12048420 12010641 
3499.999 11975762 11941567 11905570 11864943 11817853 11764230 11705237 
3503.374 11643630 11582815 11525989 11475668 11433280 11398379 11369127 
3506.749 11342496 11315322 11284376 11247446 11204094 11155477 11103908 
3510.124 11052922 11005274 10963067 10926777 10895756 10868576 10843096 
3513.500 10817686 10791259 10763270 10733586 10702374 10669977 10636903 
3516.875 10603662 10571238 10540276 10511251 10484843 10460811 10438682 
3520.250 10417571 10396360 10373658 10348546 10319535 10285877 10247404 
3523.625 10204049 10156426 10105925 10053530 10000668 9948151 9896556 
3527.000 9846390 9798026 9751463 9707210 9665197 9625119 9586231 9547922 
3530.858 9509345 9470196 9430711 9391434 9352973 9315395 9278430 9240790 
3534.715 9201090 9158178 9111753 9062760 9012961 8964689 8920077 8880169 
3538.573 8845303 8814532 8786739 8761144 8736802 8714085 8693193 8674568 
3542.430 8657903 8643200 8628936 8613254 8593956 8568542 8535357 8493897 
3546.288 8445244 8392307 8338363 8287836 8243292 8205709 8173869 8144226 
3550.145 8113234 8077046 8034313 7985374 7933235 7881507 7833970 7793385 
3554.002 7760260 7734017 7713038 7695939 7681504 7669059 7657762 7646971 
3557.860 7635100 7620634 7601919 7578350 7550265 7519282 7488031 7459749 
3561.717 7437738 7424593 7421593 7428469 7442659 7459007 7470469 7469289 
3565.575 7447716 7401034 7329318 7238647 7139977 7045573 6966476 6909140 
3569.432 6873658 6855783 6848176 6843699 6835924 6821551 6800010 6772917 
3573.290 6743100 6713319 6685457 6660289 6636603 6612985 6588191 6561044 
3577.147 6531578 6500601 6469356 6439593 6412388 6388783 6369213 6354083 
3581.004 6343324 6337810 6337945 6344164 6356471 6373618 6392885 6410102 
3584.862 6420156 6417062 6396819 6356840 6298979 6228152 6153370 6084650 
3588.719 6030488 5995984 5981942 5985234 5999882 6018494 6034452 6041507 
3592.577 6035863 6016209 5983622 5941497 5894171 5846380 5802522 5765217 
3596.434 5736274 5715962 5702701 5694039 5686856 5677724 5664062 5644525 
3600.292 5620491 5594277 5570381 5552795 5544572 5547089 5560077 5581355 
3604.149 5608508 5638281 5667486 5692562 5709651 5715056 5706025 5681954 
3608.006 5645330 5601493 5558298 5522222 5496618 5481283 5471452 5460782 
3611.864 5443737 5417567 5384018 5348627 5318338 5299655 5295395 5304116 
3615.721 5320350 5336887 5346078 5340946 5317499 5274869 5216079 5147876 
3619.579 5078811 5018774 4974766 4951339 4947887 4961125 4985659 5016394 
3623.436 5049747 5084913 5122863 5165345 5212156 5259307 5298347 5316057 
3627.293 5298682 5236603 5131044 4998093 4864077 4757169 4693927 4675573 
3631.151 4690544 4722633 4755896 4778977 4787252 4782461 4770669 4759313 
3635.008 4754054 4756700 4765477 4776096 4783902 4785878 4781155 4770837 
3638.866 4756867 4741760 4726686 4712785 4700526 4691013 4686492 4689741 
3642.723 4704210 4732313 4774656 4829566 4892627 4957271 5015825 5060340 
3646.581 5083169 5079549 5047200 4987334 4903986 4804338 4697947 4595366 
3650.438 4508142 4446376 4415982 4418325 4449289 4500140 4558967 4612779 
3654.295 4649985 4661640 4644593 4603335 4549626 4497797 4460704 4445573 
3658.153 4452000 4474195 4503756 4533185 4556489 4571557 4578790 4581536 
3662.010 4583645 4588233 4597743 4613382 4635417 4664655 4702402 4750000 
3665.868 4808292 4877179 4953350 5031445 5105262 5170341 5228621 5290465 
3669.725 5376739 5514504 5726974 6028505 6420459 6895573 7440435 8038228 
3673.583 8667739 9290548 9849068 10270371 10479819 10433930 10137330 9636028 
3677.440 8994017 8273415 7531520 6814786 6164864 5616329 5188314 4882306 
3681.297 4682271 4562584 4494516 4455381 4432317 4421137 4421940 4435129 
3685.155 4457356 4481057 4496692 4494616 4469173 4420400 4355032 4283216 
3689.012 4215226 4158218 4114865 4084260 4065029 4056099 4057403 4068507 
3692.870 4087739 4112123 4137679 4160593 4178525 4191137 4200137 4208534 
3696.727 4219910 4236237 4257852 4283082 4308013 4327824 4337529 4333547 
3700.584 4314136 4281309 4240085 4198163 4163236 4141626 4136575 4147681 
3704.442 4172436 4206393 4245773 4287366 4329129 4369625 4407748 4441723 
3708.299 4468403 4483803 4483334 4463214 4421572 4360053 4283986 4203148 
3712.157 4128948 4072387 4041082 4037939 4060146 4101152 4152398 4205155 
3716.014 4251193 4286161 4308515 4320160 4325046 4328125 4332743 4340374 
3719.872 4350280 4360253 4368119 4372871 4374846 4375382 4375917 4377457 
3723.729 4378829 4378226 4373206 4362061 4345193 4325749 4308782 4301018 
3727.586 4307878 4332643 4374611 4429706 4490967 4549927 4598881 4632671 
3731.444 4650153 4654239 4651157 4646436 4641278 4632068 4611640 4573265 
3735.301 4514938 4442560 4368922 4309987 4277360 4275319 4300583 4345963 
3739.159 4403329 4467064 4534357 4603904 4672860 4734859 4777872 4785845 
3743.016 4744104 4646670 4506736 4356706 4239617 4186219 4202010 4271136 
3746.874 4366947 4462846 4536868 4576078 4576479 4543029 4485075 4413940 
3750.731 4338433 4264277 4196724 4143533 4112792 4112056 4143198 4201609 
3754.588 4275988 4353058 4420835 4470579 4499203 4508644 4504258 4491603 
3758.446 4474061 4452870 4428568 4402727 4379799 4365608 4364604 4377858 
3762.303 4401689 4427965 4447447 4453507 4443832 4422710 4398811 4382310 
3766.161 4379799 4391548 4411563 4430040 4437940 4428835 4402492 4363902 
3770.018 4322603 4288102 4266920 4261700 4270467 4288737 4311426 4334551 
3773.875 4356003 4375582 4394526 4414944 4437673 4461842 4484271 4499939 
3777.733 4503655 4491938 4465190 4428166 4389740 4359350 4343486 4343787 
3781.590 4356304 4373742 4387832 4392753 4386293 4370461 4350280 4331204 
3785.448 4317751 4311091 4310221 4313032 4317583 4323239 4330535 4339738 
3789.305 4351652 4365642 4381071 4397405 4415446 4436267 4461909 4492340 
3793.163 4525752 4558063 4583243 4596303 4594662 4580598 4561244 4547081 
3797.020 4547616 4567874 4606383 4654440 4698817 4723571 4715733 4668238 
3800.877 4585454 4484238 4390309 4328560 4311995 4339972 4399514 4471416 
3804.735 4533821 4568945 4565630 4523610 4454477 4378595 4318855 4289607 
3808.592 4294794 4327790 4377758 4433589 4488054 4539346 4589237 4641144 
3812.450 4696104 4751374 4798810 4827589 4826651 4790401 4723135 4641713 
3816.307 4569548 4528732 4530641 4572796 4640675 4711948 4763869 4776934 
3820.165 4741157 4660535 4555217 4455314 4386728 4364002 4384285 4434124 
3824.022 4494114 4546679 4580665 4592251 4585721 4571356 4561177 4564559 
3827.879 4584449 4617601 4656617 4692856 4719317 4732782 4734223 4728294 
3831.737 4721025 4718714 4725514 4742798 4768525 4798241 4826048 4844945 
3835.594 4848363 4832180 4795426 4742530 4681267 4623093 4578187 4552371 
3839.452 4546243 4555184 4572160 4589372 4601326 4604373 4597710 4583109 
3843.309 4563220 4542259 4524213 4513264 4512729 4524447 4549090 4585788 
3847.167 4633408 4690243 4755360 4828327 4908309 4992563 5075291 5145260 
3851.024 5186838 5181741 5113040 4974632 4779111 4562382 4370093 4239951 
3854.881 4186487 4201375 4262570 4346666 4436133 4519190 4591046 4651258 
3858.739 4701464 4743937 4780183 4810804 4835999 4855466 4869003 4875604 
3862.596 4873627 4861196 4837272 4804103 4767688 4738075 4725178 4735898 
3866.454 4769396 4817036 4863642 4892761 4889812 4849100 4776364 4690712 
3870.311 4616596 4572595 4565296 4587195 4622859 4654406 4669410 4663415 
3874.168 4641914 4617333 4603268 4610067 4640340 4689171 4746584 4801122 
3878.026 4842265 4862134 4857845 4831845 4791775 4748828 4715331 4700961 
3881.883 4709770 4739080 4780049 4820721 4846955 4847793 4818811 4765644 
3885.741 4703440 4651928 4628652 4641244 4685755 4749062 4814657 4865719 
3889.598 4889644 4881099 4843471 4788559 4731074 4685889 4662276 4662879 
3893.456 4685219 4723906 4773450 4829030 4886595 4942726 4993434 5034730 
3897.313 5062921 5075190 5070665 5051255 5021188 4986865 4953953 4926640 
3901.170 4906064 4890616 4876710 4860593 4839115 4812111 4781523 4751843 
3905.028 4728026 4714292 4712316 4721461 4738912 4760686 4782528 4801424 
3908.885 4815260 4824038 4828661 4831342 4834525 4840355 4850909 4867093 
3912.743 4888672 4914140 4940514 4963974 4980095 4985357 4978285 4959918 
3916.600 4933811 4905695 4881166 4864178 4856069 4855935 4861396 4870276 
3920.458 4881602 4894972 4910990 4928919 4946882 4961326 4967828 4963170 
3924.315 4946848 4921378 4892425 4867059 4850775 4846888 4855030 4872689 
3928.172 4895307 4918798 4939710 4955997 4966152 4968699 4963035 4948557 
3932.030 4926170 4898457 4869640 4844710 4827924 4821492 4824909 4835128 
3935.887 4848094 4860023 4868467 4873191 4875671 4878184 4882775 4889745 
3939.745 4898055 4905226 4908577 4905896 4897050 4883177 4867227 4852517 
3943.602 4841997 4837708 4839718 4847190 4857711 4869137 4878988 4885958 
3947.459 4889476 4889543 4887466 4884584 4881870 4880261 4879625 4879491 
3951.317 4879859 4880295 4880463 4879960 4878553 4875436 4869874 4861330 
3955.174 4850206 4837507 4825244 4815830 4811273 4813216 4821726 4835530 
3959.032 4852350 4869673 4885154 4896715 4903651 4906030 4904589 4900836 
3962.889 4896547 4893431 4892526 4894737 4899998 4907840 4917223 4927176 
3966.747 4936693 4944670 4950836 4954489 4955662 4954489 4951406 4947351 
3970.604 4943530 4941520 4942324 4946412 4953618 4962834 4972755 4981871 
3974.461 4989580 4995445 4999970 5003590 5006808 5009758 5012003 5013579 
3978.319 5014484 5015054 5015523 5016327 5017702 5018841 5019612 5019210 
3982.176 5017601 5015355 5013311 5011970 5011802 5012506 5013445 5014349 
3986.034 5014349 5013948 5013780 5013914 5014584 5015121 5014450 5011635 
3989.891 5006439 4999200 4991390 4984352 4979491 4976944 4976341 4976307 
3993.749 4975972 4974732 4972721 4971045 4970509 4971548 4974062 4977548 
3997.606 4980664 4982575 4982709 4980631 4976475 4970174 4962198 
##END=
