
##TITLE=mdmaHCL00394_3
##JCAMP-DX=5.01  $$ Nicolet v. 1
##DATATYPE=INFRARED SPECTRUM
##ORIGIN=UniL
##OWNER=Nicolet
##LONGDATE=2011/08/24
##TIME=09:02:10
##SPECTROMETER/DATA SYSTEM=Nicolet iS5
##DATA PROCESSING=
Ratio against background
%Transmittance->Absorbance
Truncated
ElementMultiply or ElementDivide
##COMMENTS=
Number of sample scans: 32
Collection length: 51.18 sec
Sample gain: 2.0
Background collected on: Mer Aout 24 09:00:21 2011 (GMT+02:00);
Number of background scans: 32
Background gain: 2.0
Sample spacing:  1.000
Number of scan points: 12415
Resolution points: 8192
Number of FFT points: 65536
Apodization: N-B fort;
Phase correction: Mertz;
Laser frequency: 15798.0 cm-1
Number of rejected sample scans: 0
Number of rejected background scans: 0
Bench serial number: ASB1000141;
##RESOLUTION=4.000
##XUNITS=1/CM
##YUNITS=ABSORBANCE
##FIRSTX=649.893372
##LASTX=4000.122314
##FIRSTY=0.083520
##MAXX=4000.122314
##MINX=649.893372
##MAXY=0.244339
##MINY=0.002906
##XFACTOR=1.000000
##YFACTOR=1.000000E-009
##NPOINTS=6950
##DELTAX=0.482117
##ZPD=6100
##XYDATA=(X++(Y..Y))
649.893 83520104 83603688 83732120 83911560 84132536 84376888 84629584 
653.268 84891328 85183712 85540760 85992280 86551056 87204552 87920416 
656.643 88663424 89409576 90156808 90923640 91735072 92606952 93540880 
660.018 94524384 95542328 96590888 97681064 98834056 100071712 101401448 
663.393 102811880 104277968 105774080 107283688 108795832 110296944 
666.285 111747880 113058240 114097520 114724280 114852640 114495768 
669.178 113740328 112687936 111405808 109920416 108235632 106359520 
672.071 104327680 102206640 100074176 98005768 96046400 94206840 92474512 
675.446 90829848 89264072 87782624 86399960 85128640 83970296 82911792 
678.820 81932112 81009304 80130088 79291904 78499904 77759968 77074968 
682.195 76442568 75858088 75319232 74829416 74395248 74024216 73717464 
685.570 73467696 73258784 73072128 72891976 72709944 72526808 72347936 
688.945 72178224 72017408 71857872 71686736 71492904 71268816 71013904 
692.320 70733400 70432896 70116432 69785296 69438480 69077368 68708016 
695.694 68341272 67989480 67662088 67362112 67084768 66820592 66559352 
699.069 66294872 66028856 65768896 65525240 65307336 65119788 64961492 
702.444 64827180 64709440 64601772 64499596 64399428 64298952 64195564 
705.819 64086952 63972220 63853948 63737972 63632464 63547076 63489744 
709.194 63464924 63476048 63527056 63625900 63788900 64037912 64396896 
712.569 64883536 65497040 66209732 66958964 67659536 68208736 68507248 
715.943 68486648 68118416 67426464 66480144 65389568 64286268 63295192 
719.318 62533812 62090576 62016460 62324052 62977224 63891568 64925940 
722.693 65903848 66637800 66947632 66713752 65898724 64561292 62839508 
726.068 60924132 59016560 57270980 55784968 54589136 53661688 52952212 
729.443 52405284 51978016 51640120 51372112 51158948 50983192 50827576 
732.817 50678572 50529920 50384928 50251660 50138072 50046076 49969564 
736.192 49896972 49818328 49729112 49632860 49538148 49453148 49381048 
739.567 49318684 49258588 49193572 49122404 49049988 48984964 48934304 
742.942 48899704 48876008 48855800 48832664 48807188 48787356 48784764 
746.317 48808340 48860396 48933228 49013600 49088496 49149268 49194908 
749.692 49230384 49260780 49287540 49306768 49311852 49298192 49267720 
753.066 49229236 49194796 49174724 49172756 49184556 49201588 49216728 
756.441 49229420 49246380 49278668 49334752 49416652 49519020 49632448 
759.816 49749696 49871656 50007148 50169796 50369780 50609360 50880772 
763.191 51171960 51473564 51786540 52123836 52508920 52968644 53525016 
766.566 54193800 54981864 55889720 56909532 58024816 59209880 60432228 
769.940 61670288 62934516 64294300 65881252 67875456 70460640 73735280 
773.315 77642552 81899104 86031496 89399200 91344600 91405080 89408400 
776.690 85564600 80375024 74541752 68766704 63585052 59350672 56179648 
780.065 54007500 52656684 51917812 51605712 51574856 51735476 52033328 
783.440 52431788 52907260 53443800 54036392 54691796 55425164 56253600 
786.815 57189368 58238684 59404616 60693696 62122652 63720092 65520964 
790.189 67564680 69887488 72521328 75500272 78863224 82654440 86919672 
793.564 91688296 96955200 102655224 108657936 114758112 120670904 126078408 
796.939 130628736 133972448 135831952 136021312 134498800 131378744 
799.832 126928688 121528176 115585272 109523352 103702280 98375016 93700400 
803.206 89721352 86390376 83595976 81205400 79099888 77195544 75464240 
806.581 73925016 72628504 71624688 70939696 70554064 70401568 70372184 
809.956 70332912 70163784 69767288 69089136 68120704 66888340 65442064 
813.331 63839248 62142032 60408352 58689192 57033064 55478924 54056352 
816.706 52784628 51670460 50711308 49898196 49219960 48667624 48234648 
820.081 47917304 47713336 47620152 47635976 47760784 47999816 48363480 
823.455 48868812 49536292 50383736 51422908 52652684 54055716 55591244 
826.830 57195684 58783760 60243236 61454492 62303856 62697156 62589684 
830.205 61993224 60982160 59673600 58214664 56759972 55436724 54343112 
833.580 53533484 53015696 52756792 52687580 52719492 52746468 52665812 
836.955 52398516 51894548 51148064 50194528 49104372 47962592 46850372 
840.329 45835840 44958736 44233684 43655480 43207964 42872212 42630796 
843.704 42469964 42378188 42343668 42355208 42402372 42477344 42576192 
847.079 42697692 42841640 43006928 43191016 43390780 43604776 43835596 
850.454 44089268 44374324 44698748 45067048 45478628 45929748 46415884 
853.829 46934348 47486364 48076572 48710992 49395636 50135132 50934420 
857.204 51800804 52744932 53783216 54935764 56223356 57668340 59291532 
860.578 61112276 63148408 65411404 67899824 70587040 73412368 76276024 
863.953 79030600 81505536 83520632 84902888 85526712 85321520 84287440 
867.328 82492984 80070840 77201568 74073840 70880712 67790392 64923896 
870.703 62367236 60163116 58319700 56822016 55640052 54738096 54076768 
874.078 53618764 53329188 53174344 53125960 53162096 53267828 53437584 
877.452 53672412 53977108 54356588 54811544 55338068 55928912 56574608 
880.827 57267124 58001716 58775600 59587008 60433220 61307144 62197200 
884.202 63088060 63960008 64792252 65566204 66267772 66892668 67449608 
887.577 67962312 68464840 68997160 69597640 70290912 71085040 71967464 
890.952 72910592 73876112 74822568 75714368 76520496 77215224 77777088 
894.327 78183984 78414248 78448576 78270592 77871416 77250760 76419576 
897.701 75400264 74226344 72945160 71610464 70279776 69010904 67849648 
901.076 66829012 65966248 65262900 64709752 64291880 63995524 63809312 
904.451 63726076 63741968 63852528 64052700 64336448 64698064 65134572 
907.826 65646632 66237824 66912540 67673864 68521792 69454344 70468744 
911.201 71563808 72740736 74002608 75352528 76791040 78316936 79928424 
914.575 81627160 83422128 85331720 87380904 89600096 92019568 94662968 
917.950 97546528 100674024 104033824 107590568 111279496 115003776 118623408 
921.325 121977568 124904856 127265272 128985080 130075576 130650800 
924.218 130905848 131104496 131549728 132515536 134236640 136866736 
927.110 140450256 144911632 150039888 155515376 160881888 165597040 
930.003 169112320 170879600 170473184 167664496 162451376 155088112 
932.896 146037488 135934112 125442224 115178608 105673912 97280032 90201184 
936.271 84511872 80181848 77124072 75223832 74370872 74455576 75363408 
939.646 76967824 79094520 81515848 83973232 86168208 87821192 88721616 
943.020 88743728 87883784 86247408 84036712 81494824 78862344 76354944 
946.395 74117816 72231200 70717880 69558360 68710040 68122872 67752976 
949.770 67562440 67520360 67602392 67785512 68049264 68377304 68756424 
953.145 69178384 69638984 70135088 70663176 71219120 71797240 72392368 
956.520 73001680 73624256 74261168 74913352 75580112 76258128 76943104 
959.894 77630464 78318328 79008144 79704000 80410224 81130184 81863656 
963.269 82608064 83359616 84115688 84875736 85641840 86416776 87202168 
966.644 87997224 88799624 89607016 90418360 91236256 92065064 92909992 
970.019 93774496 94659136 95561608 96479728 97412824 98363880 99338848 
973.394 100344272 101385584 102464728 103580544 104731232 105915968 
976.286 107136432 108395888 109697264 111039784 112417696 113821320 
979.179 115238216 116657072 118069312 119467744 120844968 122190608 
982.072 123489576 124725456 125883280 126954152 127938104 128843440 
984.964 129683552 130471248 131217928 131931808 132619936 133291904 
987.857 133960632 134640720 135346688 136088528 136869952 137690080 
990.750 138546192 139437072 140365696 141337872 142358448 143428960 
993.643 144545200 145698080 146877456 148076864 149294272 150531776 
996.535 151791792 153073408 154369120 155668608 156960336 158237360 
999.428 159500176 160755312 162011712 163276544 164552752 165839968 
1002.321 167138016 168450896 169787280 171160064 172581296 174057152 
1005.213 175587600 177166592 178788624 180451840 182161856 183927792 
1008.106 185757808 187653760 189607392 191602240 193618064 195638080 
1010.999 197649552 199644528 201614784 203547504 205424848 207227776 
1013.891 208941600 210563152 212101984 213576832 215006496 216402016 
1016.784 217762128 219076096 220328800 221508128 222609664 223635104 
1019.677 224588032 225469552 226277728 227011536 227678368 228299696 
1022.570 228912160 229558608 230282544 231114640 232067824 233138720 
1025.462 234312448 235569216 236885296 238233440 239578128 240867824 
1028.355 242041520 243032272 243774816 244220896 244339232 244114416 
1031.249 243542288 242624176 241366528 239783824 237905264 235776432 
1034.142 233450176 230980368 228404736 225734368 222952704 220021824 
1037.035 216896576 213533040 209903040 205996256 201820992 197403504 
1039.928 192788352 188042112 183245488 178491840 173878320 169482128 
1042.821 165356944 161522784 157967712 154656560 151543872 148590528 
1045.714 145768112 143064688 140482160 138031568 135727312 133582976 
1048.607 131611112 129819976 128212992 126787128 125531000 124425512 
1051.500 123444048 122559216 121745472 120983016 120260056 119570104 
1054.393 118908520 118269304 117643408 117018408 116381488 115720200 
1057.286 115024288 114284312 113489616 112628336 111688192 110658752 
1060.179 109536312 108325552 107040744 105702272 104332440 102953688 
1063.072 101583776 100237376 98927376 97664920 96460328 95321656 94252120 
1066.448 93249064 92303832 91405208 90540912 89702416 88886344 88094536 
1069.823 87332480 86606864 85924752 85292808 84717000 84204328 83761456 
1073.198 83394264 83106576 82898360 82766032 82702696 82699648 82746912 
1076.573 82831832 82938736 83046472 83126800 83150632 83089168 82921808 
1079.948 82642736 82262392 81806888 81310832 80815528 80360072 79977656 
1083.324 79698000 79545560 79541096 79704608 80053544 80603064 81366208 
1086.699 82352816 83569064 85015432 86683280 88548112 90560912 92649888 
1090.074 94713240 96627768 98273800 99539688 100348656 100672728 100534512 
1093.449 100006592 99193768 98229680 97250768 96378040 95716880 95337048 
1096.825 95272720 95523288 96055792 96809832 97699904 98631384 99501808 
1100.200 100206904 100658448 100783496 100534968 99899488 98897128 97580176 
1103.575 96019248 94300488 92509488 90718288 88989136 87366680 85879160 
1106.950 84543504 83364992 82339680 81455576 80694624 80034304 79448592 
1110.326 78912176 78400392 77889696 77359080 76788904 76160872 75461872 
1113.701 74683952 73827568 72901768 71923552 70915544 69900720 68902280 
1117.076 67939456 67027084 66176468 65395264 64688020 64057112 63502432 
1120.451 63022280 62612876 62268824 61982868 61743500 61535004 61334960 
1123.827 61113232 60836648 60470732 59986000 59365792 58608640 57730700 
1127.202 56760200 55736180 54699460 53684784 52720836 51825180 51004580 
1130.577 50258132 49578368 48954960 48374964 47826368 47298712 46783832 
1133.952 46277820 45780572 45295556 44828816 44387244 43977792 43606096 
1137.328 43276556 42992332 42756040 42569648 42434340 42350208 42316020 
1140.703 42328984 42385788 42482860 42617344 42787228 42990684 43225788 
1144.078 43489692 43778564 44088208 44414068 44751860 45097372 45445444 
1147.453 45789704 46123076 46437640 46726784 46986588 47216920 47421388 
1150.829 47605660 47776728 47941016 48103484 48268712 48440972 48624672 
1154.204 48824356 49044128 49286204 49550180 49832968 50129296 50432336 
1157.579 50734952 51029920 51308824 51563364 51784076 51960648 52084092 
1160.954 52146256 52140648 52063320 51910604 51680276 51371068 50983152 
1164.330 50519276 49985512 49390956 48746908 48065248 47357976 46635396 
1167.705 45906512 45179980 44463804 43765996 43094844 42457284 41858968 
1171.080 41303484 40792608 40326900 39907164 39534796 39212100 38942156 
1174.455 38727400 38569492 38469016 38425500 38439152 38510796 38642716 
1177.831 38838588 39102376 39438200 39850652 40344640 40925876 41601992 
1181.206 42380856 43269964 44275688 45402108 46651444 48025576 49527228 
1184.581 51159436 52925708 54827296 56859636 59009500 61254908 63560388 
1187.956 65879440 68156904 70323176 72303016 74020016 75398568 76379792 
1191.332 76928584 77038768 76734224 76066112 75106232 73930048 72612960 
1194.707 71220248 69796464 68369072 66947096 65526092 64095400 62644868 
1198.082 61171056 59680516 58190644 56724896 55311908 53978080 52744260 
1201.457 51625340 50628460 49754488 48999392 48356668 47816788 47367584 
1204.833 46994596 46680516 46405300 46150012 45897044 45632480 45348732 
1208.208 45042528 44714984 44369444 44010576 43643868 43275312 42912700 
1211.583 42565736 42245056 41963364 41732556 41563452 41465856 41447628 
1214.958 41515580 41676060 41934352 42295200 42761340 43334288 44014060 
1218.333 44800676 45694504 46697268 47811160 49037860 50377932 51830704 
1221.709 53394940 55070476 56859748 58767708 60801124 62965736 65264164 
1225.084 67693528 70244912 72902632 75642112 78431200 81226048 83967520 
1228.459 86587664 89007152 91140320 92911016 94250472 95108080 95458520 
1231.834 95302712 94675336 93641208 92302768 90789256 89240176 87808744 
1235.210 86636888 85845488 85540552 85800792 86682152 88224096 90447048 
1238.585 93353880 96925128 101117560 105855760 111025784 116489184 122071968 
1241.960 127572296 132786440 137495232 141487888 144590400 146665376 
1244.853 147640480 147512384 146345584 144259472 141406416 137972704 
1247.746 134150744 130127208 126083624 122162864 118459032 115006456 
1250.639 111771800 108661760 105537472 102256488 98692296 94766072 90466880 
1254.015 85849808 81028152 76141328 71345512 66781216 62550380 58719268 
1257.390 55309648 52307088 49671900 47351104 45290588 43436992 41747552 
1260.765 40189996 38740372 37384032 36112312 34919316 33800600 32751568 
1264.140 31766698 30840932 29970738 29154654 28393476 27689386 27044302 
1267.516 26458240 25929378 25454176 25029334 24652806 24324296 24045164 
1270.891 23816542 23638488 23509440 23426096 23385044 23383400 23418962 
1274.266 23489538 23591678 23719948 23867474 24026638 24190348 24353522 
1277.641 24512306 24662836 24801000 24920818 25016312 25082898 25119128 
1281.017 25127692 25113334 25080862 25031894 24963210 24866886 24734208 
1284.392 24558618 24339470 24083548 23803766 23517554 23240794 22987544 
1287.767 22767580 22586360 22446808 22349716 22294286 22277580 22294498 
1291.142 22338482 22402672 22481874 22573830 22679142 22800578 22940104 
1294.518 23098758 23275260 23467434 23673478 23893622 24129850 24385870 
1297.893 24664940 24969246 25300212 25658530 26045710 26464154 26915964 
1301.268 27400426 27911718 28438542 28962958 29464642 29924908 30327744 
1304.643 30663390 30928236 31123256 31253520 31327516 31357360 31357576 
1308.019 31345110 31337596 31349492 31390626 31464648 31569320 31699076 
1311.394 31846736 32006498 32173530 32344122 32513962 32677650 32828964 
1314.769 32962352 33073432 33160150 33221952 33258184 33266914 33244878 
1318.144 33188332 33095672 32969144 32816100 32647036 32473862 32307036 
1321.520 32153476 32017380 31901684 31810298 31749516 31728804 31758428 
1324.895 31849124 32010638 32250896 32577064 32995134 33507620 34110196 
1328.270 34787696 35513172 36245992 36940148 37552532 38048072 38409284 
1331.645 38636992 38748700 38771416 38736712 38676040 38614648 38573580 
1335.021 38569200 38613056 38713708 38876128 39102304 39392956 39749408 
1338.396 40175164 40676916 41262492 41937492 42702696 43551660 44470192 
1341.771 45436136 46422300 47395556 48314444 49135132 49811712 50300840 
1345.146 50572320 50610368 50416480 50006032 49404024 48639568 47739116 
1348.521 46728188 45629872 44466372 43263672 42051512 40860892 39724428 
1351.897 38669664 37715996 36874568 36148468 35535400 35030968 34629632 
1355.272 34325152 34108832 33969968 33896276 33875460 33899108 33962736 
1358.647 34065288 34206692 34384792 34594144 34827904 35080068 35351108 
1362.022 35649328 35992176 36400756 36893144 37482232 38173484 38966548 
1365.398 39858820 40845712 41918112 43055108 44221940 45364512 46410652 
1368.773 47285188 47914564 48239240 48224320 47858144 47154312 46146844 
1372.148 44892636 43468192 41959644 40466644 39082836 37879744 36900788 
1375.523 36153940 35621708 35274088 35084776 35041600 35150408 35433824 
1378.899 35927024 36675068 37722356 39110752 40867224 42988160 45419764 
1382.274 48038752 50665692 53059796 54959980 56137376 56402796 55651316 
1385.649 53880356 51214008 47898580 44256832 40649224 37366084 34581620 
1389.024 32354724 30648810 29378660 28442928 27752996 27237092 26840494 
1392.400 26527406 26273644 26066468 25903176 25787762 25726972 25725848 
1395.775 25784738 25899308 26061966 26263084 26491978 26737410 26986262 
1399.150 27226050 27447792 27647256 27825972 27988964 28142260 28290234 
1402.525 28435394 28579574 28725610 28879874 29052082 29252714 29490280 
1405.901 29768036 30083256 30429196 30798710 31187298 31593944 32020696 
1409.276 32470256 32944228 33442482 33963772 34507500 35073208 35659116 
1412.651 36257876 36854872 37427476 37948260 38395388 38757216 39037992 
1416.026 39255404 39436712 39612468 39809432 40051572 40359220 40748676 
1419.402 41232832 41816280 42492284 43244124 44048968 44886092 45740776 
1422.777 46612712 47517228 48483276 49541936 50716108 52011512 53415776 
1426.152 54905912 56455508 58043560 59651776 61259296 62840044 64356468 
1429.527 65763736 67021436 68102680 69005624 69753704 70394160 70984328 
1432.903 71578616 72226392 72967928 73841432 74894488 76186696 77784096 
1436.278 79744096 82083112 84767864 87728848 90880864 94138392 97408384 
1439.653 100589144 103542056 106096608 108085552 109350704 109783008 
1442.546 109340256 108038760 105944936 103153936 99786360 95967752 91816608 
1445.921 87457120 83011896 78615048 74428160 70615888 67319984 64626844 
1449.297 62544220 61015944 59950772 59264340 58897316 58822116 59033228 
1452.672 59527384 60289072 61292300 62502548 63892180 65451696 67182032 
1456.047 69085064 71138944 73289416 75456072 77562488 79566408 81456048 
1459.422 83238792 84928112 86536456 88070256 89524144 90882208 92106688 
1462.798 93135312 93895240 94315760 94362824 94063088 93508536 92826040 
1466.173 92127616 91491376 90949008 90499120 90125128 89804832 89512216 
1469.548 89206776 88825888 88280328 87457608 86259056 84641944 82656600 
1472.923 80438504 78156576 75949080 73885344 71982912 70240984 68670528 
1476.299 67311856 66225052 65462024 65053388 64995624 65261392 65817328 
1479.674 66642276 67736320 69118824 70816896 72850000 75221304 77916856 
1483.049 80915328 84198136 87761656 91612472 95754136 100172392 104804864 
1486.424 109517344 114113336 118318160 121806176 124255208 125367832 
1489.317 124948096 122963192 119573640 115111704 109982592 104584840 
1492.210 99205928 93997504 89016840 84248584 79657952 75237736 71022992 
1495.586 67100196 63588536 60596352 58185116 56351824 55049036 54205360 
1498.961 53752580 53639716 53828560 54288852 54992544 55906976 56994264 
1502.336 58214476 59515180 60832492 62086028 63152580 63867496 64026432 
1505.711 63418224 61922224 59597236 56689708 53512124 50306904 47190100 
1509.087 44180088 41259392 38419132 35670948 33057556 30635584 28450888 
1512.462 26533078 24884642 23486496 22308412 21316778 20479892 19765930 
1515.837 19146522 18600792 18117954 17701468 17363618 17115806 16958876 
1519.212 16878574 16845470 16825872 16793360 16744938 16704064 16709849 
1522.588 16792876 16958256 17189018 17456222 17735186 18012570 18292862 
1525.963 18593044 18935036 19332652 19786148 20284904 20815934 21371210 
1529.338 21951454 22565036 23222336 23930032 24688894 25492650 26329968 
1532.713 27190102 28065128 28952476 29850192 30756312 31663508 32561210 
1536.089 33432926 34260000 35025976 35710732 36296060 36764780 37101292 
1539.464 37292712 37333260 37232060 37012628 36709180 36354996 35969392 
1542.839 35553052 35089304 34556076 33939336 33246346 32507498 31767196 
1546.214 31064528 30414342 29806434 29210856 28594650 27937654 27245312 
1549.590 26547554 25889072 25305164 24807524 24383626 24006748 23651540 
1552.965 23306164 22977588 22686822 22456402 22296172 22196532 22128956 
1556.340 22054314 21923258 21680530 21275540 20680144 19921762 19091746 
1559.715 18308068 17653254 17149274 16774176 16487153 16247168 16017869 
1563.091 15773229 15501358 15206425 14906995 14628950 14395125 14214662 
1566.466 14080886 13975449 13877152 13769131 13644656 13509142 13377976 
1569.841 13269053 13194996 13161183 13166340 13206610 13277082 13371996 
1573.216 13483062 13597098 13697827 13770225 13806686 13815716 13822044 
1576.592 13859672 13953345 14111143 14326732 14587794 14884981 15215863 
1579.967 15585700 16002880 16475178 17005150 17588626 18214936 18870284 
1583.342 19536638 20192388 20812700 21367068 21824368 22159780 22357946 
1586.717 22420640 22367262 22236322 22077636 21947864 21905732 21999518 
1590.093 22267606 22733886 23403682 24260628 25260278 26334228 27385958 
1593.468 28302754 28978650 29320734 29272598 28824742 28016672 26928866 
1596.843 25661164 24322508 23005850 21779842 20692966 19770646 19021570 
1600.218 18441732 18018200 17733116 17567578 17507756 17545498 17678276 
1603.594 17907140 18231350 18645822 19140326 19696964 20291536 20895370 
1606.969 21470974 21975398 22364960 22595854 22634252 22462228 22080564 
1610.344 21511776 20797650 19997634 19172910 18377990 17652530 17013006 
1613.719 16458107 15973626 15540128 15139448 14760494 14404749 14084582 
1617.094 13818897 13623561 13505518 13461052 13478175 13539701 13626843 
1620.470 13722278 13810585 13883242 13939522 13987254 14038927 14106659 
1623.845 14197133 14309336 14436810 14571929 14709455 14846922 14983506 
1627.220 15118931 15252307 15381809 15507539 15632207 15761202 15901169 
1630.595 16057096 16229214 16413338 16599502 16775243 16927834 17044432 
1633.971 17115116 17134280 17103710 17034232 16945372 16859626 16794082 
1637.346 16756199 16743906 16747762 16754856 16751653 16728478 16681682 
1640.721 16615339 16539263 16466023 16404804 16357597 16319133 16277576 
1644.096 16218448 16127242 15994733 15819410 15610773 15387783 15175235 
1647.472 14998425 14874832 14812568 14810134 14858922 14942968 15038934 
1650.847 15117423 15138008 15058588 14854224 14545238 14206273 13925015 
1654.222 13752886 13685278 13687706 13721799 13759623 13786780 13799058 
1657.597 13799230 13792423 13783052 13771594 13754870 13727134 13682201 
1660.973 13615150 13523601 13409379 13278823 13143253 13015986 12910535 
1664.348 12836505 12796781 12788045 12800774 12821795 12835242 12826846 
1667.723 12786271 12710215 12604121 12480048 12353998 12240254 12147938 
1671.098 12081192 12038676 12015547 12002603 11987990 11956485 11892867 
1674.474 11789491 11650369 11495027 11349638 11236973 11165608 11129776 
1677.849 11114106 11101528 11081100 11050611 11017372 10993414 10988350 
1681.224 11002317 11022776 11024442 10976932 10854817 10654187 10402231 
1684.599 10151100 9949507 9817547 9748312 9718832 9706533 9693928 9671431 
1688.457 9635893 9587890 9530614 9468062 9406433 9353209 9315902 9300094 
1692.314 9306661 9329038 9353650 9362757 9338347 9271016 9167959 9054674 
1696.172 8965130 8922613 8929445 8966956 9006364 9013705 8960935 8837391 
1700.029 8660438 8473996 8325460 8242819 8224348 8250857 8297731 8343936 
1703.886 8374538 8380416 8359980 8318942 8268383 8219722 8182445 8160972 
1707.744 8154692 8160026 8172417 8188320 8206452 8228332 8256699 8295029 
1711.601 8345016 8406292 8475550 8548806 8621872 8691469 8755532 8811387 
1715.459 8854400 8877565 8872492 8833840 8764356 8676933 8591725 8526977 
1719.316 8493288 8491329 8513697 8549448 8587738 8620993 8645127 8659829 
1723.174 8667571 8671322 8673688 8676630 8681395 8689441 8702117 8719696 
1727.031 8740623 8761381 8777102 8784068 8781667 8774127 8767872 8769765 
1730.888 8781735 8798201 8804625 8779672 8702658 8562527 8370518 8159452 
1734.746 7973393 7844292 7779420 7767040 7785390 7813187 7832248 7831843 
1738.603 7807959 7764746 7711588 7660325 7620600 7597503 7591163 7598885 
1742.461 7616385 7639417 7664270 7689632 7715838 7744676 7779049 7821014 
1746.318 7870643 7926048 7982505 8034346 8075865 8102971 8113200 8106178 
1750.176 8083493 8048995 8008830 7970727 7942414 7929760 7934416 7953347 
1754.033 7979198 8000730 8006872 7988985 7944405 7878471 7803067 7732264 
1757.890 7675535 7635775 7608326 7583847 7551917 7504786 7439626 7359513 
1761.748 7272575 7188753 7117511 7065072 7033551 7021832 7026614 7042239 
1765.605 7061502 7077297 7083225 7077095 7061637 7044260 7033820 7036312 
1769.463 7051736 7073020 7089556 7089860 7067463 7024964 6975129 6934019 
1773.320 6914627 6921462 6950382 6993278 7041970 7091880 7142571 7196299 
1777.177 7254549 7316850 7378857 7434233 7477177 7504617 7518136 7523192 
1781.035 7527272 7535060 7548545 7565437 7581486 7592343 7596154 7593254 
1784.892 7586645 7579665 7575586 7576867 7585431 7602459 7629435 7666631 
1788.750 7711993 7760057 7803067 7831169 7834677 7809004 7755706 7683628 
1792.607 7605494 7534048 7476907 7435918 7408011 7388429 7373195 7359648 
1796.465 7346370 7333362 7320254 7305528 7288007 7266106 7238411 7204957 
1800.322 7166824 7125359 7083292 7043620 7009104 6982873 6967385 6963446 
1804.179 6970482 6985903 7006477 7028567 7050254 7070831 7091274 7113166 
1808.037 7136407 7160086 7182050 7199668 7211291 7218062 7222038 7227124 
1811.894 7236558 7251281 7271126 7294746 7320490 7347651 7377206 7410066 
1815.752 7447378 7489582 7535767 7584285 7633988 7683730 7732904 7781679 
1819.609 7829617 7876210 7920749 7962898 8002080 8038160 8069889 8094836 
1823.467 8110195 8112997 8102735 8082649 8060033 8042751 8038093 8048489 
1827.324 8070700 8096996 8117217 8122856 8110230 8082987 8050075 8023174 
1831.181 8011496 8018180 8041333 8076269 8117656 8161917 8208174 8257070 
1835.039 8309822 8366972 8427777 8490653 8554957 8621163 8691368 8769123 
1838.896 8857714 8959346 9074736 9202274 9339024 9481303 9624171 9762104 
1842.754 9890420 10006432 10110571 10208256 10307828 10416960 10540038 
1846.129 10676055 10818637 10958921 11087353 11197158 11285531 11353515 
1849.504 11404025 11440526 11464204 11473253 11464578 11435049 11383753 
1852.879 11312533 11226058 11128927 11025121 10916379 10802434 10682847 
1856.255 10558541 10431521 10305555 10184443 10069468 9960627 9856422 
1859.630 9754920 9655507 9559709 9469924 9388522 9316613 9253889 9198721 
1863.487 9151039 9111448 9082485 9066448 9063605 9071286 9083602 9092432 
1867.345 9090875 9075820 9049091 9016343 8985831 8964081 8953731 8953866 
1871.202 8960902 8970812 8980317 8987117 8989519 8986169 8976495 8959819 
1875.060 8937563 8912636 8887981 8866710 8849564 8834517 8817474 8793738 
1878.917 8759589 8714288 8660302 8600884 8540290 8480989 8422744 8364776 
1882.774 8306276 8247918 8192439 8143854 8105402 8078498 8062227 8053485 
1886.632 8048624 8045113 8041738 8037857 8034346 8031578 8029621 8029520 
1890.489 8032996 8042987 8062328 8092844 8133219 8179980 8227050 8268755 
1894.347 8301244 8324379 8340355 8353460 8367209 8382645 8399671 8417406 
1898.204 8435785 8457103 8485179 8522989 8571989 8630389 8693498 8755228 
1902.062 8811726 8861197 8905061 8946289 8987117 9027913 9067361 9102515 
1905.919 9131074 9152832 9168974 9181258 9191580 9200075 9205253 9206641 
1909.776 9203527 9197198 9190057 9183898 9179160 9175268 9170429 9163288 
1913.634 9155201 9148298 9145522 9147824 9153238 9155945 9149516 9129212 
1917.491 9094090 9050039 9006296 8970745 8947744 8935195 8926029 8911993 
1921.349 8887237 8850443 8806012 8761414 8723246 8694950 8676426 8662974 
1925.206 8650737 8637453 8623157 8610111 8600580 8595004 8591996 8590205 
1929.063 8588041 8586250 8586893 8591759 8601087 8612984 8623596 8629342 
1932.921 8629511 8625996 8622920 8624711 8633094 8646241 8660844 8673384 
1936.778 8683356 8694612 8713543 8745187 8791438 8847569 8904282 8951295 
1940.636 8980723 8989822 8983294 8969493 8956064 8948691 8947947 8950010 
1944.493 8951498 8950721 8948555 8948217 8952817 8962931 8976122 8989078 
1948.351 8998144 9002102 9003726 9006466 9015566 9035085 9065872 9107286 
1952.208 9157975 9214797 9273792 9331475 9381717 9418623 9439583 9443782 
1956.065 9435452 9422381 9413070 9413443 9425768 9446593 9469382 9488957 
1959.923 9502910 9512765 9523129 9538776 9560590 9587484 9616041 9642397 
1963.780 9667704 9695216 9728692 9771152 9821038 9871879 9915810 9946727 
1967.638 9962797 9967984 9970188 9975205 9986767 10004940 10024945 10044070 
1971.495 10061669 10079065 10099379 10124238 10151474 10177014 10199605 
1974.870 10220943 10251407 10304639 10393408 10521334 10679520 10845508 
1978.246 10990593 11091908 11135113 11120360 11059720 10970747 10869935 
1981.621 10769553 10675954 10591540 10517803 10456670 10409256 10377390 
1984.996 10359167 10350209 10346340 10344203 10343049 10346985 10360627 
1988.371 10385535 10419914 10456569 10485996 10499473 10493329 10468720 
1991.747 10433489 10398057 10370094 10354926 10354891 10368228 10393204 
1995.122 10428567 10470654 10515698 10558031 10590760 10607940 10608857 
1998.497 10595853 10575686 10557590 10546658 10544485 10548865 10553923 
2001.872 10554195 10549239 10541159 10534811 10535184 10544757 10561494 
2005.248 10582951 10605427 10626106 10645867 10664442 10680029 10688858 
2008.623 10685395 10664171 10625834 10576127 10523981 10480702 10454464 
2011.998 10446386 10452835 10466581 10479887 10489765 10497809 10506907 
2015.373 10521232 10542449 10567266 10593137 10618499 10644407 10676565 
2018.749 10721597 10782937 10859607 10946723 11034603 11114819 11181349 
2022.124 11231601 11266217 11287265 11296311 11295496 11288320 11279852 
2025.499 11276213 11284036 11306786 11341408 11381236 11414435 11431103 
2028.874 11426953 11404706 11372052 11340727 11320526 11315594 11327191 
2032.250 11352257 11388005 11433110 11488903 11554537 11628689 11706257 
2035.625 11779686 11842300 11891334 11926650 11952329 11974264 11994802 
2039.000 12014899 12033976 12049441 12059934 12067497 12071448 12072607 
2042.375 12069575 12057788 12032681 11992997 11939387 11876964 11814074 
2045.750 11757353 11712180 11681954 11666467 11664425 11675351 11695604 
2049.126 11720010 11740264 11745030 11722460 11668067 11582849 11476621 
2052.501 11366644 11271589 11205352 11174583 11175093 11195186 11221230 
2055.876 11241700 11250473 11248024 11238129 11223814 11206984 11187129 
2059.251 11162310 11132870 11101936 11073418 11052446 11041978 11039939 
2062.627 11042930 11046635 11047348 11044799 11041095 11037696 11035419 
2066.002 11033142 11027534 11016251 10999904 10980465 10962489 10949712 
2069.377 10942883 10939213 10934830 10924738 10907342 10885020 10862359 
2072.752 10844115 10833142 10828047 10824616 10818467 10805797 10785620 
2076.128 10760621 10733687 10707163 10682100 10657752 10632862 10607431 
2079.503 10582951 10560782 10542313 10526664 10510675 10490851 10465529 
2082.878 10435288 10404777 10380139 10365581 10362594 10368024 10375625 
2086.253 10378544 10373047 10358523 10338434 10317838 10299855 10284859 
2089.629 10271016 10253917 10230475 10200419 10165550 10129699 10097582 
2093.004 10071910 10054208 10046104 10048614 10063060 10090935 10131225 
2096.379 10180101 10231696 10277836 10312002 10331579 10337518 10334261 
2099.754 10327780 10322792 10320620 10321095 10322521 10323029 10323945 
2103.130 10327508 10336093 10351736 10374506 10402130 10433387 10467396 
2106.505 10504768 10547100 10596056 10649671 10705058 10757122 10801381 
2109.880 10835486 10861136 10881350 10901294 10925044 10953451 10985496 
2113.255 11018698 11050169 11078244 11102514 11123113 11140655 11155646 
2116.631 11168498 11180396 11194370 11213512 11240272 11276316 11318621 
2120.006 11362359 11401781 11431308 11448588 11455596 11456685 11457331 
2123.381 11462061 11472980 11488665 11507037 11525342 11540858 11552768 
2126.756 11560798 11563418 11559675 11548548 11528779 11501832 11471008 
2130.132 11439710 11412121 11391746 11380351 11378855 11388958 11410931 
2133.507 11446173 11494652 11552904 11614395 11670995 11714393 11739039 
2136.882 11745166 11736281 11719772 11702616 11688728 11678653 11671879 
2140.257 11666161 11661294 11659490 11663676 11674636 11692949 11714529 
2143.633 11734409 11750034 11759907 11766648 11774614 11787823 11806651 
2147.008 11830009 11853469 11872367 11884626 11889632 11886873 11876419 
2150.383 11856533 11823845 11776725 11716232 11646046 11573287 11505337 
2153.758 11444574 11391678 11344775 11302637 11272337 11269413 11313758 
2157.134 11426851 11621917 11892118 12213672 12548900 12858074 13110297 
2160.509 13291532 13402442 13455139 13466589 13450902 13420075 13382623 
2163.884 13343806 13306974 13275032 13245312 13214364 13177099 13128875 
2167.259 13067510 12996423 12921287 12848313 12782074 12722771 12665489 
2170.635 12605792 12539897 12467635 12394942 12330953 12282755 12256511 
2174.010 12252898 12266975 12292503 12322499 12350009 12370191 12379566 
2177.385 12374487 12353350 12318887 12274405 12228939 12192543 12171790 
2180.760 12170155 12185250 12209139 12232450 12250240 12259987 12265066 
2184.135 12270962 12281426 12296594 12313671 12326760 12331533 12327852 
2187.511 12318750 12309274 12305763 12310467 12321920 12337942 12353146 
2190.886 12363953 12369747 12370566 12366373 12358839 12347930 12334055 
2194.261 12319875 12308899 12304025 12308183 12320352 12336067 12349770 
2197.636 12356248 12353111 12342748 12330715 12321341 12318511 12321306 
2201.012 12324273 12321715 12309206 12284903 12252216 12216534 12182490 
2204.387 12153219 12128652 12106268 12083986 12061263 12038914 12019328 
2207.762 12005090 11996199 11991941 11991294 11993168 11998209 12008938 
2211.137 12025970 12049135 12075605 12099829 12116114 12121974 12117307 
2214.513 12105245 12091617 12081329 12076661 12078330 12084565 12092605 
2217.888 12101259 12109675 12116489 12120611 12119692 12110867 12093559 
2221.263 12070291 12045319 12025391 12016467 12020316 12034521 12053461 
2224.638 12068859 12075469 12071619 12059321 12043412 12029104 12018408 
2228.014 12010505 12003011 11991601 11974536 11952465 11927195 11901245 
2231.389 11876930 11853979 11831200 11808183 11784521 11761030 11740536 
2234.764 11724673 11714052 11709015 11708300 11710887 11717252 11728044 
2238.139 11743566 11763890 11786904 11808933 11827216 11839848 11846760 
2241.515 11851119 11856533 11865114 11878463 11895047 11911971 11926684 
2244.890 11938093 11945483 11950796 11956008 11961661 11968235 11975115 
2248.265 11981144 11985810 11989387 11991635 11992521 11991567 11987241 
2251.640 11979373 11969019 11958255 11950831 11950490 11958596 11974536 
2255.016 11995347 12015990 12031114 12038131 12034997 12022904 12004135 
2258.391 11981450 11957063 11933768 11912653 11895183 11882753 11875874 
2261.766 11874274 11877169 11883094 11890075 11897737 11906182 11916569 
2265.141 11930634 11949843 11973958 12002194 12032034 12060479 12084974 
2268.517 12103167 12113763 12116693 12113116 12104189 12092332 12080204 
2271.892 12069473 12061603 12057004 12054960 12054007 12053563 12052269 
2275.267 12050600 12049339 12048896 12049067 12049782 12049476 12046546 
2278.642 12040856 12032375 12022291 12013196 12006486 12003829 12005975 
2282.018 12012890 12023859 12038131 12054313 12070733 12085587 12097137 
2285.393 12103507 12104666 12101395 12095399 12088722 12083304 12079285 
2288.768 12076525 12073833 12070120 12065588 12061603 12059354 12060956 
2292.143 12067224 12077240 12089402 12102111 12113457 12123405 12133013 
2295.519 12143168 12154923 12168791 12183445 12197655 12210638 12221646 
2298.894 12231120 12240015 12248468 12256545 12263566 12267929 12268406 
2302.269 12264657 12256613 12245264 12231972 12218204 12205220 12194485 
2305.644 12187056 12184126 12186545 12194247 12206106 12220419 12235210 
2309.020 12248536 12259987 12270042 12280199 12292095 12306922 12324170 
2312.395 12342919 12361463 12378304 12393169 12406568 12419661 12434015 
2315.770 12451131 12471079 12494233 12520390 12549071 12580176 12613501 
2319.145 12648670 12685173 12722634 12760269 12796849 12830635 12858552 
2322.521 12875992 12878109 12859951 12818758 12754878 12672414 12578778 
2325.896 12483252 12394976 12321443 12266906 12231802 12214046 12210229 
2329.271 12216432 12229076 12246422 12266361 12287186 12307910 12327033 
2332.646 12344077 12359145 12373430 12387918 12403704 12421262 12440152 
2336.021 12459997 12480695 12502281 12525573 12551424 12579562 12609203 
2339.397 12638607 12665898 12689438 12709090 12724955 12738192 12749316 
2342.772 12757403 12761020 12758018 12746621 12726933 12701856 12675928 
2346.147 12656176 12649966 12663271 12700594 12763886 12851487 12959519 
2349.522 13082159 13211699 13339980 13460642 13569099 13664385 13748884 
2352.898 13827072 13903153 13980308 14058674 14136438 14211135 14281086 
2356.273 14346218 14408552 14471306 14536809 14606263 14678814 14752370 
2359.648 14824670 14893588 14958092 15017667 15072722 15122362 15167102 
2363.023 15207421 15244174 15279351 15315114 15352391 15390838 15429013 
2366.399 15463897 15492464 15513205 15524605 15527181 15521721 15508363 
2369.774 15486799 15457098 15419367 15375081 15327265 15279728 15236624 
2373.149 15201759 15177053 15164015 15163500 15176092 15202685 15244345 
2376.524 15301625 15374257 15461528 15561694 15673082 15795082 15927564 
2379.900 16070301 16223812 16387084 16557919 16733367 16909748 17083444 
2383.275 17251658 17412072 17562644 17701226 17825626 17933384 18022758 
2386.650 18093152 18144970 18180004 18200630 18208612 18205330 18191406 
2390.025 18166666 18131050 18084896 18028734 17963632 17890636 17810092 
2393.401 17722692 17629100 17530078 17428006 17325616 17226248 17133590 
2396.776 17050704 16979928 16923012 16881122 16855252 16845746 16852978 
2400.151 16876298 16914882 16967524 17032786 17109396 17196568 17293928 
2403.526 17401484 17519728 17648838 17789104 17941290 18105900 18283322 
2406.902 18473402 18675776 18888938 19111690 19342836 19581350 19826862 
2410.277 20079004 20336638 20597794 20859282 21117032 21366754 21605200 
2413.652 21829386 22037372 22227534 22397438 22544166 22664970 22757244 
2417.027 22819854 22854148 22862808 22850132 22820658 22777880 22724320 
2420.403 22661548 22590410 22512094 22428348 22341202 22252784 22164626 
2423.778 22078124 21993452 21911446 21833148 21760090 21695228 21641766 
2427.153 21602868 21581624 21580928 21602308 21647652 21718148 21813496 
2430.528 21933610 22076974 22241098 22423988 22623080 22836756 23063954 
2433.904 23304312 23557116 23822388 24099974 24389760 24691944 25007396 
2437.279 25336810 25681026 26041102 26417460 26810852 27222522 27653296 
2440.654 28104788 28577984 29072666 29587810 30122106 30673274 31239740 
2444.029 31821386 32418520 33031776 33661836 34307724 34967108 35637244 
2447.405 36314720 36996212 37679428 38362484 39043284 39720108 40390856 
2450.780 41052924 41704656 42343852 42968004 43573496 44155104 44705912 
2454.155 45218036 45683572 46095112 46447264 46735456 46955980 47105188 
2457.530 47179240 47173884 47085804 46912788 46654176 46311036 45885812 
2460.906 45381328 44801192 44150044 43432744 42655980 41828136 40957880 
2464.281 40055316 39129824 38190020 37244372 36300708 35366820 34451180 
2467.656 33562992 32711126 31904216 31149526 30452014 29814240 29237118 
2471.031 28719166 28257700 27849466 27489830 27173242 26894282 26646506 
2474.406 26423940 26222360 26038216 25869062 25713966 25571716 25440264 
2477.782 25318088 25203040 25092972 24986584 24883308 24782020 24682580 
2481.157 24583936 24484752 24384222 24282280 24179208 24077104 23978104 
2484.532 23884452 23797608 23718304 23645730 23578874 23516400 23456906 
2487.907 23399170 23343050 23288020 23234570 23183646 23136114 23093306 
2491.283 23055988 23024262 22996558 22971476 22946532 22919462 22889772 
2494.658 22857082 22822508 22787238 22751972 22716430 22680014 22641372 
2498.033 22599590 22554322 22505812 22454518 22401136 22345598 22287450 
2501.408 22226278 22162010 22094964 22026566 21958842 21893464 21832034 
2504.784 21775872 21725010 21679486 21639502 21604434 21573720 21546804 
2508.159 21521838 21497154 21471078 21442010 21408626 21370966 21328680 
2511.534 21281874 21230688 21174988 21114110 21048024 20976036 20897594 
2514.909 20812770 20721428 20623818 20521574 20416646 20311950 20211030 
2518.285 20117418 20033232 19959888 19896996 19843026 19796310 19755424 
2521.660 19718774 19686840 19659554 19637160 19620244 19609012 19603742 
2525.035 19605094 19613622 19629362 19652206 19680912 19713330 19747172 
2528.410 19780288 19810978 19839036 19864598 19888428 19910974 19933452 
2531.786 19955724 19978586 20002978 20029798 20059812 20093716 20131094 
2535.161 20171180 20213008 20256018 20300248 20347054 20397474 20452278 
2538.536 20511674 20574274 20637716 20700126 20759414 20814716 20866478 
2541.911 20915604 20963032 21010324 21058006 21106910 21157628 21210788 
2545.287 21266318 21324224 21383496 21442566 21500148 21555230 21607324 
2548.662 21656882 21704876 21751626 21797298 21841232 21882034 21918624 
2552.037 21950652 21978152 22002166 22024056 22044972 22065538 22086422 
2555.412 22107444 22128608 22150084 22171112 22190778 22207794 22219896 
2558.788 22224570 22220348 22206052 22181432 22147400 22104620 22054384 
2562.163 21997634 21935318 21868514 21799108 21729120 21660366 21594370 
2565.538 21531972 21472400 21415486 21360282 21306546 21255220 21207550 
2568.913 21164516 21127536 21096890 21072508 21054388 21042876 21038146 
2572.289 21041312 21052858 21072474 21099328 21131956 21168412 21207518 
2575.664 21248886 21292558 21339364 21390388 21445246 21503942 21565676 
2579.039 21629124 21693278 21757582 21821266 21884264 21946924 22009766 
2582.414 22073558 22139798 22209748 22284242 22363948 22448168 22535510 
2585.790 22624686 22713986 22802288 22889284 22974792 23058818 23141810 
2589.165 23223070 23302250 23378820 23452464 23522870 23590384 23655110 
2592.540 23717112 23776748 23834392 23890332 23945474 24000900 24057386 
2595.915 24115840 24177000 24240830 24307684 24378018 24452150 24530536 
2599.291 24613810 24701730 24794086 24890816 24991498 25096518 25206764 
2602.666 25323006 25445990 25576248 25713086 25855558 26002368 26152500 
2606.041 26304868 26459366 26615222 26771910 26928724 27084362 27237620 
2609.416 27387650 27533780 27674944 27810572 27939032 28057954 28165346 
2612.792 28259186 28338014 28401966 28451844 28488708 28514148 28528938 
2616.167 28533362 28527664 28511990 28486726 28453612 28414380 28370978 
2619.542 28325212 28278672 28231568 28184438 28137276 28090296 28043568 
2622.917 27997976 27954084 27913098 27876244 27844378 27818942 27801068 
2626.292 27791214 27789764 27796478 27810960 27832578 27861726 27897798 
2629.668 27940798 27990872 28047066 28108322 28173054 28239772 28307350 
2633.043 28375648 28445016 28516376 28590864 28669008 28751204 28837062 
2636.418 28925770 29016800 29109370 29203168 29297976 29393868 29490848 
2639.793 29588556 29686890 29785496 29883626 29980784 30076368 30169626 
2643.169 30260348 30348424 30434278 30518586 30602554 30687106 30773350 
2646.544 30862382 30954920 31051538 31153122 31259752 31371430 31487730 
2649.919 31607948 31730872 31855792 31981676 32108664 32237298 32368504 
2653.294 32503784 32644678 32792158 32946944 33109366 33279364 33456188 
2656.670 33639604 33828608 34022572 34220708 34422736 34627836 34835692 
2660.045 35045588 35256624 35468048 35678864 35888444 36096612 36303876 
2663.420 36510516 36717616 36926076 37136188 37348280 37562212 37777836 
2666.795 37995272 38215020 38437448 38663508 38893740 39128120 39366872 
2670.171 39609964 39857152 40108224 40362788 40620120 40879240 41138952 
2673.546 41397584 41653452 41905892 42153440 42395576 42631744 42861388 
2676.921 43084016 43299364 43507820 43709932 43907512 44102804 44298548 
2680.296 44498052 44704480 44921112 45150860 45396552 45660052 45942748 
2683.672 46245020 46566604 46906812 47264684 47639196 48029648 48435300 
2687.047 48855204 49288320 49732976 50187572 50650724 51121896 51600976 
2690.422 52088760 52586520 53094808 53614488 54145676 54688072 55241572 
2693.797 55805956 56381028 56966648 57562440 58167724 58781368 59402568 
2697.173 60030548 60664888 61305808 61952560 62604532 63260236 63918092 
2700.548 64575860 65232516 65886960 66538608 67187104 67830904 68467944 
2703.923 69094848 69707336 70300304 70869392 71409904 71917608 72388840 
2707.298 72820112 73208112 73550856 73846456 74094080 74293608 74445352 
2710.674 74549432 74606512 74617216 74582240 74502856 74380264 74215376 
2714.049 74008936 73761000 73470872 73138152 72762560 72344656 71885896 
2717.424 71388896 70856248 70291736 69699200 69082456 68446264 67795152 
2720.799 67134232 66468908 65803944 65144540 64495592 63861928 63248204 
2724.175 62658920 62097956 61568292 61072232 60610636 60183860 59791876 
2727.550 59435200 59114160 58830004 58583804 58376436 58207696 58077004 
2730.925 57982632 57922352 57894336 57896568 57927916 57987404 58074204 
2734.300 58187464 58326028 58488220 58671784 58874020 59091572 59321044 
2737.676 59558356 59799748 60041468 60280428 60513844 60739616 60955280 
2741.051 61159040 61348888 61523476 61682128 61825404 61955504 62075516 
2744.426 62189136 62300300 62412216 62526844 62645636 62769056 62896952 
2747.801 63028560 63163428 63300564 63438892 63577644 63716180 63854368 
2751.177 63993224 64134264 64279272 64430752 64591088 64763172 64949872 
2754.552 65154092 65378584 65625704 65896524 66190548 66505976 66839136 
2757.927 67185976 67542112 67903344 68265688 68625272 68977192 69316064 
2761.302 69635560 69928672 70189216 70411928 70592768 70729536 70821104 
2764.677 70867328 70868816 70826728 70743344 70621496 70465320 70279696 
2768.053 70069592 69840792 69598536 69347944 69094112 68841744 68594736 
2771.428 68356504 68129616 67915312 67714288 67526360 67351320 67188952 
2774.803 67039064 66901252 66774524 66657344 66546760 66438592 66327832 
2778.178 66208340 66072948 65915116 65728152 65506712 65247296 64949020 
2781.554 64613232 64244240 63848308 63432144 63002856 62567180 62130296 
2784.929 61696372 61269140 60850788 60443312 60048164 59665808 59296392 
2788.304 58940008 58595632 58263392 57942836 57633980 57337068 57052264 
2791.679 56779384 56518488 56268880 56030156 55801580 55582324 55371788 
2795.055 55168696 54971600 54778992 54588800 54398876 54206600 54009564 
2798.430 53805308 53591584 53366428 53128768 52878068 52614456 52338672 
2801.805 52051668 51754476 51447716 51132300 50808768 50478220 50142236 
2805.180 49802572 49460980 49119772 48780424 48444860 48115072 47793372 
2808.556 47482704 47186440 46907512 46648568 46411020 46194712 45998588 
2811.931 45820856 45659352 45512624 45379704 45260100 45153728 45060980 
2815.306 44981668 44916148 44864600 44827420 44805488 44800056 44812360 
2818.681 44843916 44895832 44969616 45066168 45187004 45332956 45504716 
2822.057 45702528 45925660 46172600 46441140 46728628 47031520 47346336 
2825.432 47668664 47993600 48315928 48629712 48929260 49209084 49464248 
2828.807 49690584 49884852 50044328 50166856 50251140 50297080 50305264 
2832.182 50277848 50218632 50131416 50021200 49893180 49751480 49600988 
2835.558 49445944 49289508 49135504 48986524 48844564 48711696 48589280 
2838.933 48478980 48382852 48303744 48245124 48210916 48205248 48232760 
2842.308 48298636 48408300 48569160 48790064 49081592 49456008 49925512 
2845.683 50500144 51185528 51979432 52869984 53831632 54826356 55805728 
2849.059 56709792 57478768 58056668 58396900 58471652 58272900 57813248 
2852.434 57121600 56241344 55224492 54121808 52984664 51859080 50780240 
2855.809 49777192 48868812 48063808 47363852 46762796 46249812 45810248 
2859.184 45429036 45091748 44785288 44499556 44226564 43960636 43698240 
2862.560 43437320 43176928 42918036 42661940 42411212 42168408 41937016 
2865.935 41720376 41521888 41345248 41193744 41070584 40977580 40915828 
2869.310 40884296 40880512 40900352 40938912 40990104 41048408 41108828 
2872.685 41167512 41222412 41273164 41321888 41371556 41426524 41491812 
2876.061 41571220 41668400 41785124 41922056 42078816 42254256 42446580 
2879.436 42653604 42872868 43101868 43337948 43578620 43822400 44068184 
2882.811 44316088 44565784 44817944 45072044 45327220 45581876 45834808 
2886.186 46084464 46329796 46570332 46806012 47036468 47261728 47481520 
2889.562 47695436 47903724 48106740 48305300 48500468 48693200 48884352 
2892.937 49074620 49264120 49453444 49642664 49832224 50022132 50212900 
2896.312 50404688 50597856 50792680 50989672 51188584 51389420 51590976 
2899.687 51791620 51988880 52180556 52364500 52539472 52705688 52864184 
2903.063 53017492 53168764 53321172 53478804 53645456 53824772 54020632 
2906.438 54236820 54476512 54743696 55042828 55378416 55756560 56183568 
2909.813 56665812 57209212 57817828 58492652 59231068 60026480 60867140 
2913.188 61736396 62614784 63477240 64296796 65047196 65702900 66243888 
2916.563 66658968 66945352 67109864 67166136 67132912 67027660 66863724 
2919.939 66647416 66376628 66042660 65631792 65130912 64530304 63827196 
2923.314 63026452 62141152 61190432 60194972 59176844 58156132 57148548 
2926.689 56167656 55223552 54322984 53471760 52673364 51930024 51243616 
2930.064 50615132 50045516 49535992 49087828 48702168 48380296 48122696 
2933.440 47929216 47799108 47731236 47723728 47773472 47877308 48029572 
2936.815 48222724 48448084 48694240 48949360 49202924 49444904 49668556 
2940.190 49869984 50048044 50203640 50339492 50458572 50563308 50655120 
2943.565 50733612 50795660 50836592 50849108 50826124 50760872 50649420 
2946.941 50492292 50294476 50065892 49819072 49568640 49328224 49108120 
2950.316 48915428 48752952 48619004 48508948 48416408 48333260 48251384 
2953.691 48163636 48064064 47947864 47812788 47657348 47481632 47286220 
2957.066 47072100 46840148 46591684 46328212 46052080 45766104 45474288 
2960.442 45180348 44888040 44600372 44319244 44046328 43782376 43528512 
2963.817 43286112 43057196 42843980 42648964 42474272 42320948 42189732 
2967.192 42079656 41989172 41915344 41854404 41802016 41753096 41702684 
2970.567 41646080 41579640 41500960 41408516 41302648 41184744 41057368 
2973.943 40924200 40790388 40660576 40540192 40433188 40341116 40261896 
2977.318 40189560 40114000 40021272 39896956 39727076 39500500 39211520 
2980.693 38860112 38451820 37997224 37509828 37005268 36497904 36001824 
2984.068 35528244 35085816 34680876 34318052 33999960 33729296 33508048 
2987.444 33338178 33220448 33152566 33128142 33132934 33147096 33144664 
2990.819 33095886 32973896 32757964 32438014 32016556 31509354 30942324 
2994.194 30344372 29745790 29171202 28636270 28149048 27709870 27314288 
2997.569 26955342 26626636 26322398 26038992 25773734 25524344 25288482 
3000.945 25064188 24849062 24641268 24439566 24242898 24051012 23863832 
3004.320 23681210 23503072 23329590 23160718 22996942 22838886 22687242 
3007.695 22542386 22405078 22275350 22152874 22037372 21927964 21823776 
3011.070 21724104 21628114 21535036 21444448 21356208 21270078 21186712 
3014.446 21106770 21031052 20960736 20896898 20840544 20792436 20752604 
3017.821 20720074 20693314 20669476 20645776 20619196 20587580 20549400 
3021.196 20504066 20452000 20393378 20328442 20257268 20179790 20096494 
3024.571 20008496 19917982 19828110 19742282 19663474 19593830 19534110 
3027.947 19483406 19439812 19400834 19363656 19325548 19284398 19237948 
3031.322 19184684 19123566 19053732 18974978 18888280 18794678 18695908 
3034.697 18594048 18491070 18389224 18290200 18195932 18107938 18027316 
3038.072 17954966 17890842 17834946 17786548 17744748 17708748 17677998 
3041.448 17651772 17629894 17612020 17597598 17586142 17576756 17568304 
3044.823 17559540 17549362 17536528 17520452 17501030 17478574 17454394 
3048.198 17429906 17406312 17384654 17365204 17347134 17328790 17308410 
3051.573 17284170 17254518 17218700 17176298 17127594 17073104 17013626 
3054.948 16950262 16884532 16817778 16751619 16687501 16626252 16568005 
3058.324 16512794 16460104 16409278 16360383 16313078 16267359 16223092 
3061.699 16179927 16137421 16095126 16053177 16011544 15971322 15933407 
3065.074 15898624 15867453 15840029 15815699 15793948 15774295 15756393 
3068.449 15740072 15725162 15711248 15697747 15684109 15669681 15654430 
3071.825 15638972 15624030 15610773 15600298 15593257 15590028 15590681 
3075.200 15594836 15601980 15611460 15621936 15632000 15639968 15644057 
3078.575 15642785 15635950 15623859 15608025 15590166 15572375 15555684 
3081.950 15540643 15527009 15513582 15499401 15483743 15466197 15447211 
3085.326 15427606 15408483 15390906 15375802 15363307 15353763 15346658 
3088.701 15341613 15338112 15335605 15333718 15332310 15331521 15331315 
3092.076 15331795 15333066 15334679 15336326 15337699 15338283 15338112 
3095.451 15337871 15338249 15340377 15345628 15354622 15367563 15383800 
3098.827 15402098 15420740 15438455 15454523 15468738 15482232 15496311 
3102.202 15512312 15531130 15552765 15576188 15600538 15624409 15646975 
3105.577 15667723 15687063 15704893 15721383 15736260 15748801 15758764 
3108.952 15766082 15771030 15775016 15779413 15785290 15793879 15805699 
3112.328 15820853 15839102 15860235 15883984 15909968 15937705 15966373 
3115.703 15995042 16023129 16049946 16075389 16099630 16122840 16144712 
3119.078 16165001 16183022 16198052 16210159 16219996 16228903 16238706 
3122.453 16250918 16266843 16286898 16310327 16336128 16363068 16389664 
3125.829 16414853 16438080 16458934 16477311 16493969 16509594 16525391 
3129.204 16542327 16561361 16582290 16604735 16627697 16650008 16671078 
3132.579 16691221 16710848 16731199 16753513 16778240 16805448 16834516 
3135.954 16864724 16895452 16926456 16957498 16988404 17019070 17048912 
3139.330 17077344 17104156 17129386 17153720 17178022 17203152 17229696 
3142.705 17257898 17287722 17319238 17352582 17388412 17427112 17469226 
3146.080 17514208 17560988 17608086 17653946 17697498 17738672 17778228 
3149.455 17817374 17857318 17899130 17943052 17988844 18036158 18084412 
3152.831 18133192 18182560 18232352 18282528 18333262 18384348 18435960 
3156.206 18488374 18541726 18596122 18651770 18707772 18763712 18818968 
3159.581 18873572 18927906 18983216 19040888 19102480 19169032 19241032 
3162.956 19318240 19400000 19484896 19571472 19658306 19743738 19826620 
3166.332 19906014 19981294 20052526 20119850 20183608 20244250 20301952 
3169.707 20356916 20408796 20457628 20503198 20545614 20584696 20620586 
3173.082 20653074 20682264 20708048 20730568 20750170 20767550 20782772 
3176.457 20796502 20808598 20819270 20828690 20837382 20845864 20855214 
3179.833 20866096 20878924 20893316 20908650 20923566 20937752 20951034 
3183.208 20964212 20978574 20996136 21018080 21045624 21078944 21117310 
3186.583 21159750 21205152 21252226 21300004 21348100 21396306 21444656 
3189.958 21493534 21543460 21594682 21647722 21702510 21758836 21816458 
3193.333 21874682 21933018 21991012 22048388 22104620 22159604 22212992 
3196.709 22264606 22314868 22364436 22414010 22464602 22517154 22571806 
3200.084 22628664 22687312 22746838 22806862 22866686 22926028 22985098 
3203.459 23044110 23103126 23162534 23222408 23282918 23343924 23405220 
3206.834 23466350 23526788 23585976 23643738 23700036 23755468 23810488 
3210.210 23865336 23920334 23974604 24027760 24079206 24129082 24178578 
3213.585 24229270 24283508 24343114 24408792 24480054 24554482 24629660 
3216.960 24702256 24769428 24830082 24884010 24932432 24977424 25021610 
3220.335 25067698 25117792 25173580 25235346 25302846 25374850 25449716 
3223.711 25525996 25602150 25677476 25751584 25824330 25895930 25966136 
3227.086 26035226 26102814 26169322 26235384 26301560 26368308 26436194 
3230.461 26504832 26573760 26642242 26709750 26775858 26840460 26903272 
3233.836 26964050 27022580 27078826 27133102 27186680 27241218 27298868 
3237.212 27361536 27429792 27503032 27579886 27657816 27734876 27809900 
3240.587 27882500 27953132 28022574 28091286 28159194 28225982 28291436 
3243.962 28356052 28420854 28487718 28558132 28633438 28713752 28798044 
3247.337 28885008 28973054 29061046 29148772 29236126 29323428 29410958 
3250.713 29498470 29586002 29672948 29759734 29846146 29932646 30019484 
3254.088 30106552 30193530 30279994 30365408 30449454 30531986 30613008 
3257.463 30692582 30770644 30847476 30923040 30997728 31071752 31145574 
3260.838 31219338 31292618 31364698 31434580 31501662 31565436 31626336 
3264.214 31684856 31741888 31798318 31854614 31910848 31967268 32023940 
3267.589 32080696 32137994 32195796 32253966 32312606 32371324 32429766 
3270.964 32487608 32544818 32601174 32656144 32709304 32759394 32806202 
3274.339 32849442 32889542 32927714 32965604 33004106 33044328 33086016 
3277.715 33128678 33171340 33213188 33253822 33293352 33332522 33371560 
3281.090 33411276 33451822 33492946 33534534 33576632 33619336 33662984 
3284.465 33707736 33753292 33799416 33845372 33890292 33933460 33974808 
3287.840 34014400 34053212 34092380 34133100 34176220 34222072 34270220 
3291.216 34319880 34369872 34419436 34468112 34516504 34565512 34616248 
3294.591 34669680 34725812 34783964 34842908 34901324 34958420 35014264 
3297.966 35069616 35125728 35183644 35243864 35305964 35368976 35431776 
3301.341 35493940 35555356 35616816 35679616 35744732 35813020 35884592 
3304.717 35959132 36036168 36115228 36195860 36277796 36360796 36444604 
3308.092 36529116 36614472 36700740 36788836 36879112 36972328 37068488 
3311.467 37167412 37269176 37373884 37482452 37595704 37715168 37841456 
3314.842 37974368 38112928 38255072 38398428 38541792 38684260 38826520 
3318.218 38969920 39116012 39265560 39418968 39575264 39733180 39891112 
3321.593 40048084 40203408 40357220 40510072 40662504 40814988 40967492 
3324.968 41118992 41268064 41412928 41551748 41683500 41808068 41926652 
3328.343 42040672 42152600 42263716 42374680 42484724 42592236 42694984 
3331.719 42791540 42880732 42961932 43035316 43100736 43157856 43205876 
3335.094 43244344 43273004 43292224 43302988 43305840 43301192 43288564 
3338.469 43266492 43233836 43189844 43134952 43070804 42999904 42924040 
3341.844 42844160 42759512 42668480 42568552 42457724 42335048 42201016 
3345.219 42056768 41904104 41744156 41577524 41403888 41222740 41033404 
3348.595 40836104 40631248 40420204 40204608 39985812 39765420 39544160 
3351.970 39322760 39100856 38878048 38653436 38426228 38195988 37963124 
3355.345 37729044 37495708 37265780 37041352 36823528 36612560 36407272 
3358.720 36206268 36007508 35809816 35612432 35415812 35220256 35026800 
3362.096 34835548 34646748 34460364 34275884 34093672 33914080 33737820 
3365.471 33566356 33401222 33243518 33093848 32951952 32816670 32686226 
3368.846 32558314 32431052 32302826 32173280 32042954 31912736 31784024 
3372.221 31657662 31534188 31413350 31294398 31176510 31058690 30940722 
3375.597 30822184 30703108 30583250 30462710 30341388 30219638 30097532 
3378.972 29975992 29855480 29736456 29619346 29504252 29390748 29278976 
3382.347 29168474 29058884 28949820 28840532 28730140 28618326 28504772 
3385.722 28389656 28274002 28159194 28046644 27937158 27831272 27728624 
3389.098 27628366 27529438 27430956 27332284 27233106 27133878 27034674 
3392.473 26936164 26839084 26743682 26650452 26559354 26469684 26380808 
3395.848 26291350 26200714 26108550 26015490 25923294 25833474 25747750 
3399.223 25666580 25589710 25515560 25441634 25366316 25287568 25205006 
3402.599 25118636 25029366 24938468 24846466 24754062 24661608 24569244 
3405.974 24476514 24383488 24289568 24194656 24098434 24001356 23904090 
3409.349 23808072 23714418 23624074 23537142 23452920 23369798 23286132 
3412.724 23200596 23112490 23021922 22930080 22838014 22747050 22658336 
3416.100 22572468 22489586 22409962 22333284 22258956 22185930 22112848 
3419.475 22038000 21959992 21878618 21793988 21707594 21621394 21536774 
3422.850 21454856 21375978 21299378 21223764 21148166 21071710 20994258 
3426.225 20915848 20836790 20757504 20678406 20599948 20522790 20447244 
3429.601 20374104 20303234 20234842 20167884 20101388 20034378 19966238 
3432.976 19896648 19826134 19755250 19684796 19615216 19546862 19479664 
3436.351 19413550 19348794 19285194 19223230 19163006 19104488 19047534 
3439.726 18991282 18935140 18878244 18819936 18760010 18698224 18635136 
3443.102 18570532 18504970 18438104 18369314 18297734 18222608 18143936 
3446.477 18062514 17979900 17898510 17820586 17747646 17679932 17616472 
3449.852 17555572 17495028 17433628 17370412 17305790 17240176 17174126 
3453.227 17107568 17039782 16970280 16898758 16825838 16752480 16680408 
3456.603 16610416 16542809 16477140 16411548 16344316 16274411 16201457 
3459.978 16126039 16049670 15973281 15898213 15825149 15754195 15685553 
3463.353 15618982 15554860 15492670 15431726 15371134 15309863 15247159 
3466.728 15182955 15117696 15052071 14986695 14921569 14856179 14789324 
3470.104 14719807 14647216 14571826 14494361 14416190 14338307 14261157 
3473.479 14185117 14110184 14036736 13965628 13898226 13835248 13777442 
3476.854 13723714 13672079 13620039 13564758 13504664 13438975 13367929 
3480.229 13292797 13215354 13137276 13060750 12987616 12919477 12857767 
3483.604 12802992 12754639 12710932 12669173 12626600 12580415 12529290 
3486.980 12473330 12413250 12350793 12287357 12223929 12160886 12098465 
3490.355 12036633 11975966 11917217 11860926 11807945 11758034 11710479 
3493.730 11663643 11616301 11566957 11514965 11460631 11405013 11349401 
3497.105 11296006 11246562 11202598 11164588 11131884 11102616 11073962 
3500.481 11042318 11004390 10957834 10901974 10837763 10767992 10696500 
3503.856 10627565 10564719 10510471 10465427 10429110 10399143 10372164 
3507.231 10344474 10312544 10273798 10227693 10175522 10120474 10066722 
3510.606 10018130 9977342 9944761 9918963 9897538 9877336 9856321 9833544 
3514.464 9809413 9784369 9759291 9733640 9707176 9678139 9646293 9611772 
3518.321 9576103 9541757 9510733 9484317 9461628 9440734 9418623 9391502 
3522.179 9357746 9316714 9269494 9218554 9166808 9116050 9067328 9020065 
3526.036 8973180 8925826 8877396 8828396 8779672 8732407 8687277 8644146 
3529.894 8602168 8560161 8517076 8472780 8427406 8381970 8337315 8294016 
3533.751 8252443 8211956 8172180 8132679 8093687 8055139 8017841 7982135 
3537.608 7948286 7916026 7885488 7856337 7828639 7802865 7778880 7756718 
3541.466 7735974 7715905 7695635 7674590 7651928 7627209 7599795 7568505 
3545.323 7532262 7490324 7442693 7390822 7337373 7285749 7238647 7197681 
3549.181 7161771 7128458 7093665 7054161 7007689 6954893 6898973 6844170 
3553.038 6795332 6755754 6726443 6706252 6692355 6681588 6671022 6658708 
3556.896 6644038 6626375 6606223 6583987 6560103 6535177 6509782 6485735 
3560.753 6464244 6447631 6437441 6434784 6439459 6449816 6462428 6472618 
3564.610 6473997 6461016 6428462 6374358 6300425 6212758 6120000 6031562 
3568.468 5954765 5893365 5847320 5813503 5787277 5764176 5740203 5713511 
3572.325 5683431 5650869 5617806 5586289 5558030 5534303 5514940 5499370 
3576.183 5485947 5473230 5459943 5445784 5431088 5417064 5404650 5394519 
3580.040 5386467 5379288 5372109 5364259 5356041 5348996 5345105 5345742 
3583.897 5351110 5359060 5365232 5363354 5347487 5313608 5261487 5195523 
3587.755 5124339 5058563 5006741 4974196 4961594 4964845 4977614 4992161 
3591.612 5001780 5000540 4985290 4955729 4913537 4862737 4808292 4755662 
3595.470 4709067 4671789 4645230 4629021 4621184 4618539 4616931 4612411 
3599.327 4601460 4582507 4556222 4525183 4493980 4467433 4449991 4443698 
3603.185 4449188 4464654 4487285 4513063 4537471 4556188 4565296 4561411 
3607.042 4543431 4512260 4472153 4429304 4391380 4364136 4349678 4346130 
3610.899 4347870 4347402 4337696 4315040 4280439 4239249 4199267 4169057 
3614.757 4153936 4154405 4167150 4184747 4198865 4201007 4184981 4148751 
3618.614 4094763 4029778 3963199 3904419 3860189 3833513 3823451 3827128 
3622.472 3840399 3860858 3887736 3922607 3967312 4022889 4087003 4152531 
3626.329 4208434 4239550 4231252 4174042 4069745 3934410 3794906 3679672 
3630.187 3605862 3575560 3578367 3599481 3624339 3641847 3647661 3642248 
3634.044 3630520 3618057 3609404 3605929 3606530 3607900 3607165 3603022 
3637.901 3595639 3586785 3578199 3571017 3565070 3559658 3554246 3549469 
3641.759 3547933 3553545 3569914 3600049 3643918 3698886 3759978 3819841 
3645.616 3871589 3908264 3925182 3919297 3890077 3838527 3767531 3681643 
3649.474 3587754 3494821 3413462 3353521 3321367 3318629 3341534 3382438 
3653.331 3430761 3475582 3506979 3517735 3505008 3471373 3425150 3376928 
3657.188 3336525 3310449 3300032 3302836 3313921 3328679 3342869 3354489 
3661.046 3363371 3371619 3381603 3395996 3416000 3442016 3473411 3509384 
3664.903 3549904 3595873 3648730 3709346 3777023 3848355 3918729 3984131 
3668.761 4045162 4110049 4196758 4329932 4531478 4815360 5184558 5633246 
3672.618 6150883 6723851 7335856 7954393 8527889 8987320 9255650 9281510 
3676.476 9057380 8617478 8018280 7319445 6578739 5846547 5169436 4588601 
3680.333 4128580 3796142 3578266 3449597 3380134 3344172 3326108 3318562 
3684.190 3320031 3330449 3347177 3363972 3372821 3365308 3336192 3285776 
3688.048 3220011 3148549 3081237 3025012 2982073 2951514 2931198 2919356 
3691.905 2915320 2918555 2928363 2942673 2958853 2973866 2985742 2993883 
3695.763 2999722 3005861 3015803 3032319 3056510 3086910 3119914 3149283 
3699.620 3168141 3170344 3152654 3116410 3067789 3017305 2975734 2951914 
3703.478 2949779 2968461 3002891 3045933 3091448 3134398 3171779 3202821 
3707.335 3227522 3245548 3255930 3256765 3245415 3220345 3181558 3131195 
3711.192 3074263 3017205 2967360 2930231 2909549 2905680 2916754 2939037 
3715.050 2968094 2999622 3029683 3056310 3078467 3096788 3112439 3127056 
3718.907 3141741 3156392 3170344 3182593 3192507 3200284 3206793 3213335 
3722.765 3220412 3227722 3233831 3235901 3231194 3217942 3196212 3169075 
3726.622 3141707 3121283 3114308 3124787 3152621 3194176 3241876 3286778 
3730.479 3321066 3339530 3341868 3333320 3322368 3316626 3318195 3323403 
3734.337 3322836 3307177 3271120 3216974 3155992 3102995 3069991 3062951 
3738.194 3080302 3116477 3165371 3222448 3286711 3357595 3433332 3507848 
3742.052 3568511 3597777 3578099 3499831 3371586 3223616 3099224 3033053 
3745.909 3035055 3093117 3182026 3275093 3348212 3386379 3383540 3343938 
3749.767 3278899 3203255 3129659 3066054 3016704 2985175 2974566 2987477 
3753.624 3023210 3077633 3142875 3209697 3269651 3316425 3347277 3362269 
3757.481 3362937 3351718 3329213 3296593 3255396 3210164 3168341 3138170 
3761.339 3125655 3132663 3155525 3186298 3215071 3234232 3239806 3233197 
3765.196 3219811 3206960 3200351 3201352 3206826 3211266 3208495 3194543 
3769.054 3169309 3136368 3102461 3074863 3058713 3056377 3067022 3087043 
3772.911 3111972 3137269 3159930 3178655 3194543 3210164 3227989 3249421 
3776.769 3272656 3292854 3303872 3299832 3278231 3241642 3198448 3158796 
3780.626 3131295 3119948 3122484 3132329 3141140 3142542 3134031 3117745 
3784.483 3099491 3085608 3081304 3087444 3101860 3120115 3138203 3153355 
3788.341 3164870 3173114 3179556 3184996 3190237 3195477 3201719 3210231 
3792.198 3222682 3239372 3259569 3279833 3296092 3304005 3301468 3290216 
3796.056 3276428 3268683 3275360 3300900 3344038 3397132 3448094 3482095 
3799.913 3486036 3452369 3384141 3295959 3212067 3156259 3142108 3169776 
3803.771 3227355 3296994 3357895 3393191 3392723 3356827 3296259 3230193 
3807.628 3178688 3153722 3156760 3180357 3214170 3249087 3281135 3311384 
3811.485 3344405 3385143 3435637 3492082 3545394 3584146 3596374 3575894 
3815.343 3526053 3461387 3402675 3368681 3369983 3404345 3460084 3519038 
3819.200 3562999 3576095 3549336 3485101 3398300 3312485 3249621 3222915 
3823.058 3233297 3271821 3324338 3375927 3416100 3438743 3443886 3437507 
3826.915 3428690 3426119 3434702 3454574 3481460 3509017 3529994 3539782 
3830.772 3537076 3524249 3506845 3491748 3485702 3492716 3513326 3544358 
3834.630 3580104 3612444 3632859 3635665 3617757 3581507 3533702 3485235 
3838.487 3445656 3421443 3413428 3418037 3428724 3438709 3442851 3438709 
3842.345 3425918 3406649 3384141 3362203 3344505 3334288 3333787 3344439 
3846.202 3366110 3397933 3438643 3486871 3541953 3604359 3673791 3749450 
3850.060 3827028 3897732 3947751 3959822 3916121 3806671 3637837 3437941 
3853.917 3248219 3105931 3030718 3019707 3057478 3124453 3204223 3285175 
3857.774 3360500 3427388 3484400 3531430 3568177 3594570 3611375 3620029 
3861.632 3622000 3618558 3609237 3592064 3565070 3528524 3487305 3450432 
3865.489 3428958 3431930 3461287 3511121 3567509 3613981 3633560 3616053 
3869.347 3562464 3487305 3413395 3360867 3340966 3351317 3380535 3412861 
3873.204 3435403 3441815 3434000 3420408 3412326 3419306 3444854 3486537 
3877.062 3536709 3586251 3625909 3648329 3650100 3632257 3600884 3564970 
3880.919 3535406 3520741 3525251 3546663 3577732 3607800 3624673 3618826 
3884.776 3586719 3533836 3474179 3425284 3402608 3412527 3451534 3508048 
3888.634 3567476 3615151 3639642 3636066 3606297 3559424 3507580 3463625 
3892.491 3436538 3430327 3444487 3475983 3521109 3575393 3634663 3694910 
3896.349 3751489 3799852 3836054 3856779 3861025 3849960 3827061 3797412 
3900.206 3766662 3739357 3717868 3702061 3689663 3677266 3661862 3641212 
3904.063 3616520 3590327 3567008 3550238 3542220 3542889 3550371 3561462 
3907.921 3572854 3582476 3589091 3593200 3595806 3598612 3603022 3610072 
3911.778 3620196 3633761 3650267 3669046 3688594 3706639 3720374 3727493 
3915.636 3726791 3718637 3705269 3690399 3677500 3669046 3666072 3668077 
3919.493 3674225 3683916 3696848 3713457 3732873 3753193 3770707 3781201 
3923.351 3780466 3766896 3742231 3711385 3681409 3659322 3649365 3652572 
3927.208 3666740 3687993 3711752 3734310 3753227 3767063 3774684 3775018 
3931.065 3766997 3750753 3727627 3700658 3674526 3653542 3640610 3636434 
3934.923 3639107 3645355 3652138 3657117 3659890 3661527 3663866 3668745 
3938.780 3676297 3685887 3695378 3702663 3705603 3703532 3696648 3686756 
3942.638 3676163 3667743 3664000 3666740 3676030 3690599 3707508 3723282 
3946.495 3733809 3736917 3731637 3719472 3703632 3687692 3674760 3666239 
3950.353 3661862 3659990 3659155 3657885 3655981 3653876 3651971 3650401 
3954.210 3648596 3645656 3640811 3634296 3627145 3621499 3619227 3621866 
3958.067 3629451 3640844 3654076 3667108 3678135 3686455 3691802 3694810 
3961.925 3696380 3697115 3698051 3700056 3703632 3709747 3718102 3728562 
3965.782 3740126 3751221 3760446 3766829 3770406 3771642 3771809 3772378 
3969.640 3774483 3779263 3786549 3795741 3805668 3814660 3821345 3824554 
3973.497 3823719 3819407 3813156 3806872 3802694 3802326 3806103 3813557 
3977.354 3823217 3833379 3842438 3849592 3854640 3858083 3860724 3862997 
3981.212 3865571 3868847 3872759 3877439 3882822 3888304 3892751 3895058 
3985.069 3894155 3889675 3882120 3872759 3863465 3855710 3850227 3846784 
3988.927 3844177 3841201 3837190 3832176 3827763 3825490 3826827 3832310 
3992.784 3841603 3853236 3865371 3876202 3884360 3888739 3888839 3884360 
3996.642 3875534 3862663 3846851 3829736 3813256 3799050 3788622 3781970 
4000.499 3778929 
##END=
