
##TITLE=mdmaHCL00394_10
##JCAMP-DX=5.01  $$ Nicolet v. 1
##DATATYPE=INFRARED SPECTRUM
##ORIGIN=UniL
##OWNER=Nicolet
##LONGDATE=2011/08/24
##TIME=09:27:23
##SPECTROMETER/DATA SYSTEM=Nicolet iS5
##DATA PROCESSING=
Ratio against background
%Transmittance->Absorbance
Truncated
ElementMultiply or ElementDivide
##COMMENTS=
Number of sample scans: 32
Collection length: 51.20 sec
Sample gain: 2.0
Background collected on: Mer Aout 24 09:25:13 2011 (GMT+02:00);
Number of background scans: 32
Background gain: 2.0
Sample spacing:  1.000
Number of scan points: 12415
Resolution points: 8192
Number of FFT points: 65536
Apodization: N-B fort;
Phase correction: Mertz;
Laser frequency: 15798.0 cm-1
Number of rejected sample scans: 0
Number of rejected background scans: 0
Bench serial number: ASB1000141;
##RESOLUTION=4.000
##XUNITS=1/CM
##YUNITS=ABSORBANCE
##FIRSTX=649.893372
##LASTX=4000.122314
##FIRSTY=0.079926
##MAXX=4000.122314
##MINX=649.893372
##MAXY=0.281057
##MINY=0.001287
##XFACTOR=1.000000
##YFACTOR=1.000000E-009
##NPOINTS=6950
##DELTAX=0.482117
##ZPD=6100
##XYDATA=(X++(Y..Y))
649.893 79926432 80066416 80239648 80467056 80752392 81082456 81439192 
653.268 81814848 82218304 82673912 83208096 83833552 84543024 85314104 
656.643 86119000 86944688 87799168 88707312 89696176 90779336 91948352 
660.018 93178256 94447696 95751200 97109360 98558912 100133504 101840568 
663.393 103654952 105520528 107376256 109176720 110891632 112505312 
666.285 113993688 115297928 116321456 116954168 117124488 116838160 
669.178 116160976 115165992 113895048 112356408 110544760 108466792 
672.071 106165360 103718560 101217360 98751696 96379160 94121272 91978576 
675.446 89947096 88032440 86253920 84633400 83182376 81894656 80746848 
678.820 79705952 78740192 77830944 76970240 76157904 75394936 74677456 
682.195 73997032 73346336 72722672 72132096 71586320 71097616 70672496 
685.570 70308448 69994648 69717136 69465856 69235464 69026288 68840232 
688.945 68675224 68522608 68368568 68197112 67996064 67760024 67489864 
692.320 67188760 66858584 66496864 66098684 65660008 65183616 64680292 
695.694 64169528 63673704 63210072 62789308 62413136 62076660 61773332 
699.069 61499156 61252848 61035432 60846140 60679980 60527328 60377588 
702.444 60221272 60055356 59883980 59716972 59566260 59440252 59342200 
705.819 59268972 59214132 59170200 59132080 59099772 59075284 59062836 
709.194 59066480 59091000 59143620 59237452 59395004 59645356 60019288 
712.569 60539824 61207944 61993148 62824456 63602692 64209892 64531380 
715.943 64489216 64053348 63255980 62181412 60962256 59754008 58701936 
719.318 57939920 57565088 57628156 58131816 59021568 60187516 61455984 
722.693 62617736 63456296 63770740 63435936 62423884 60819228 58794188 
726.068 56574952 54393508 52421432 50761692 49439224 48422112 47647844 
729.443 47051752 46586484 46220288 45933580 45711728 45536064 45386588 
732.817 45246828 45107996 44971268 44844356 44735404 44646012 44570192 
736.192 44496660 44415428 44323316 44225500 44131888 44051128 43986300 
739.567 43932040 43878444 43816788 43745144 43669552 43601444 43550492 
742.942 43520640 43507784 43502768 43496428 43485332 43473136 43468376 
746.317 43478668 43505436 43542468 43579756 43606940 43619356 43620092 
749.692 43616684 43616684 43622804 43631448 43634748 43626940 43607708 
753.066 43583532 43565252 43562104 43578000 43610236 43651524 43695676 
756.441 43742248 43796448 43866236 43957300 44069396 44195528 44327352 
759.816 44459032 44592772 44737976 44907000 45108436 45343216 45604656 
763.191 45884304 46179124 46497488 46858272 47289252 47818820 48468568 
766.566 49254768 50186268 51264868 52483908 53823568 55250416 56721232 
769.940 58205688 59714200 61330724 63215048 65582620 68648864 72522072 
773.315 77120272 82090832 86860176 90666192 92743536 92576072 90007624 
776.690 85338336 79195624 72418520 65813816 59972076 55258096 51762652 
780.065 49379336 47885076 47036284 46630456 46517700 46612676 46868240 
783.440 47252716 47743364 48322816 48983780 49731416 50580436 51547468 
786.815 52643520 53872892 55238112 56746684 58420100 60295160 62415776 
790.189 64830600 67583152 70710160 74250832 78250592 82762144 87841440 
793.564 93525832 99808952 106610472 113768744 121029120 128040000 134411696 
796.939 139717712 143541472 145560736 145571680 143551472 139666752 
799.832 134267680 127832784 120863432 113867312 107260904 101321776 96203136 
803.206 91915224 88363128 85381008 82790888 80447392 78260592 76216072 
806.581 74359856 72772432 71525168 70653152 70129824 69870016 69738384 
809.956 69576016 69244592 68637536 67701664 66436320 64880692 63097828 
813.331 61155912 59126420 57074556 55056820 53127380 51330752 49700020 
816.706 48257200 47009180 45950408 45066388 44340084 43756028 43303316 
820.081 42976892 42775452 42700320 42753444 42938556 43262280 43735540 
823.455 44374580 45198880 46226296 47469324 48927144 50580508 52382516 
826.830 54256976 56101028 57779144 59147684 60073352 60450356 60234748 
830.205 59452792 58205648 56642672 54945616 53300040 51854524 50717228 
833.580 49940604 49518428 49393184 49464396 49611980 49699576 49603364 
836.955 49235136 48549116 47556376 46316376 44927580 43499836 42131388 
840.329 40900828 39850104 38990288 38309608 37784816 37390316 37102700 
843.704 36904616 36780832 36717364 36702688 36726812 36784076 36873088 
847.079 36994732 37149508 37335536 37547904 37780912 38031616 38301972 
850.454 38599184 38933384 39313620 39743560 40221292 40739724 41291712 
853.829 41873488 42487064 43139084 43839040 44596296 45418328 46312656 
857.204 47289840 48364000 49556492 50893512 52401132 54106832 56035656 
860.578 58209396 60647820 63363200 66352232 69580840 72974400 76408904 
863.953 79701296 82639648 85000480 86571040 87201360 86813640 85421832 
867.328 83125632 80102472 76583768 72804208 68996184 65355824 62018524 
870.703 59074752 56563324 54483684 52808988 51496768 50501148 49773700 
874.078 49270576 48953696 48786652 48739832 48789988 48920692 49124296 
877.452 49399980 49750476 50179240 50686692 51269156 51919680 52629864 
880.827 53392020 54200892 55052684 55943724 56869264 57820820 58785844 
884.202 59748304 60687868 61582536 62412216 63160284 63821444 64404928 
887.577 64938208 65462216 66025920 66677900 67451384 68358912 69388016 
890.952 70507168 71669936 72825248 73929184 74943312 75835832 76581240 
894.327 77153240 77525448 77674056 77577624 77222664 76605744 75736064 
897.701 74636448 73343120 71909008 70395168 68868464 67397288 66037072 
901.076 64829408 63798488 62949040 62273528 61756604 61382204 61137296 
904.451 61013200 61004584 61107088 61315500 61624232 62028312 62525772 
907.826 63118176 63810116 64606964 65511720 66524320 67642032 68861512 
911.201 70181584 71604168 73133216 74772968 76525552 78390312 80366408 
914.575 82457288 84674600 87040920 89586656 92348184 95360984 98653120 
917.950 102243040 106133368 110307744 114719064 119282200 123871632 
920.843 128307672 132385584 135904320 138693952 140673696 141875024 
923.736 142461104 142694800 142919808 143520496 144835136 147144032 
926.628 150618112 155288336 161030720 167548992 174411648 181014736 
929.521 186652496 190625200 192256944 191057424 186812688 179619840 
932.414 169899088 158310160 145692800 132876184 120590856 109430800 99758680 
935.789 91754720 85447848 80756424 77543272 75653112 74947640 75296808 
939.163 76567440 78611192 81219016 84116048 86989984 89484448 91273736 
942.538 92123152 91909664 90659408 88526496 85772256 82693520 79571784 
945.913 76648120 74076120 71932512 70229408 68934320 67992696 67344088 
949.288 66936768 66726812 66677436 66759920 66947944 67218928 67556400 
952.663 67948520 68389320 68876496 69408352 69981568 70590744 71227944 
956.037 71886096 72560016 73247808 73949960 74667584 75400848 76147768 
959.412 76904816 77668584 78438224 79215752 80005304 80811224 81635312 
962.787 82476000 83329032 84188848 85051784 85917160 86787264 87665592 
966.162 88554360 89453424 90360264 91272440 92189064 93113016 94049832 
969.537 95006296 95987136 96994104 98025944 99080440 100157120 101258560 
972.912 102390144 103558456 104768216 106020856 107315208 108649512 
975.804 110023744 111440968 112906784 114425384 115996968 117615384 
978.697 119269160 120942352 122620256 124290944 125943944 127570016 
981.590 129156976 130688416 132146912 133516968 134789616 135965888 
984.482 137055616 138074096 139035376 139951328 140830112 141678336 
987.375 142505184 143324416 144151952 145004720 145895168 146829328 
990.268 147808096 148830272 149896288 151010864 152180640 153412256 
993.160 154706944 156059632 157459712 158895408 160358192 161845264 
996.053 163358672 164900592 166469616 168057952 169653792 171245712 
998.946 172827120 174399968 175972512 177555248 179154992 180772960 
1001.839 182405792 184050576 185709424 187392048 189112896 190887488 
1004.731 192725248 194626832 196587232 198600320 200664864 202787520 
1007.624 204979984 207252640 209608000 212036816 214519264 217030432 
1010.517 219549296 222059616 224550640 227012528 229429600 231780224 
1013.409 234041504 236195184 238236816 240177136 242038128 243842144 
1016.302 245601712 247315904 248970784 250547968 252032048 253416384 
1019.195 254701824 255891744 256986176 257983088 258882944 259697680 
1022.087 260458432 261215808 262026848 262948784 264020704 265257120 
1024.980 266650112 268176672 269807552 271509440 273246432 274973120 
1027.873 276625728 278128320 279395840 280344864 280912416 281056544 
1030.766 280755808 280005056 278807104 277172480 275122336 272695936 
1033.659 269951264 266954208 263770944 260446848 256995328 253397040 
1036.552 249608016 245578144 241260992 236630480 231684400 226443072 
1039.446 220947504 215259008 209462816 203656128 197947648 192445072 
1042.339 187229536 182351552 177821424 173612560 169673616 165944448 
1045.232 162376048 158936016 155614448 152419760 149372112 146496544 
1048.125 143814912 141346960 139105056 137093920 135309216 133736192 
1051.018 132350672 131120176 130011696 128994760 128045560 127149896 
1053.911 126299232 125487208 124706776 123945888 123189384 122421584 
1056.804 121626768 120791224 119903656 118951048 117920312 116799264 
1059.697 115578408 114256464 112841520 111352152 109813008 108249872 
1062.590 106687944 105146896 103642160 102187440 100794160 99472608 98230216 
1065.965 97068584 95982624 94960112 93985984 93044696 92125528 91224272 
1069.341 90343696 89490840 88674480 87903736 87186376 86529832 85941392 
1072.716 85428888 84999024 84656480 84401952 84232248 84140184 84116216 
1076.091 84148784 84223520 84322848 84423280 84494440 84505152 84424856 
1079.466 84232200 83921696 83505368 83012296 82480720 81955680 81480200 
1082.842 81090608 80819608 80694016 80737280 80972408 81419768 82098080 
1086.217 83024328 84211328 85667744 87394760 89381040 91595368 93976064 
1089.592 96433848 98843744 101056632 102929624 104333032 105182480 105453824 
1092.967 105186528 104479080 103465232 102309456 101173808 100196392 
1095.860 99491816 99131024 99142680 99516064 100206368 101139640 102216328 
1099.236 103328096 104357720 105185936 105711192 105848240 105542032 
1102.129 104776856 103577176 102005656 100147520 98106184 95984240 93867808 
1105.504 91830648 89925088 88183216 86623456 85249944 84056656 83027984 
1108.879 82141832 81371928 80688392 80062312 79466016 78872280 78256944 
1112.254 77596632 76869576 76060080 75159024 74168088 73099184 71974512 
1115.630 70822632 69671816 68550152 67480144 66477636 65554032 64716324 
1119.005 63967616 63308688 62738048 62251960 61844580 61508700 61234192 
1122.380 61006944 60808096 60611132 60381356 60081340 59672192 59122056 
1125.755 58414452 57551016 56553624 55457952 54310592 53158952 52042028 
1129.131 50990272 50020720 49138620 48340480 47616564 46954320 46339012 
1132.506 45756312 45193916 44641832 44095104 43553640 43022584 42510012 
1135.881 42026032 41580404 41180732 40832496 40539720 40304504 40128356 
1139.256 40011568 39952824 39948756 39994024 40082352 40207332 40364132 
1142.632 40549980 40763668 41004924 41273240 41567100 41884180 42220952 
1146.007 42573304 42936544 43304740 43670060 44024216 44357848 44662764 
1149.382 44934632 45172884 45381328 45566460 45736432 45899108 46061216 
1152.757 46228836 46407440 46602308 46818340 47058916 47325088 47614680 
1156.133 47923260 48244532 48571492 48897960 49217656 49523216 49805732 
1159.508 50053920 50254448 50394640 50463332 50452540 50357912 50177528 
1162.883 49911280 49559724 49124668 48609664 48020652 47367104 46661112 
1166.258 45915608 45144464 44359572 43571184 42788876 42020924 41275756 
1169.634 40562380 39888644 39261384 38685236 38162196 37692688 37276180 
1173.009 36912620 36603008 36349592 36154840 36021224 35950316 35943328 
1176.384 36001680 36127076 36322428 36591652 36938380 37366772 37881296 
1179.759 38486900 39190560 40001364 40928932 41983108 43172604 44503300 
1183.135 45979212 47603884 49381160 51315500 53410752 55667284 58077764 
1186.510 60624048 63276992 65991900 68711352 71368392 73880192 76158584 
1189.885 78114848 79662328 80735840 81298680 81348912 80920792 80078800 
1193.260 78910472 77505056 75948920 74314008 72647032 70974144 69300912 
1196.635 67619424 65916076 64180276 62410576 60617724 58825300 57063936 
1200.011 55370436 53778640 52315012 50998616 49837912 48832552 47975396 
1203.386 47254784 46656316 46162688 45755428 45413808 45114984 44837268 
1206.761 44560756 44269636 43954732 43612544 43244784 42856304 42453848 
1210.136 42044612 41636160 41237204 40858124 40510220 40207260 39962596 
1213.512 39788552 39696796 39696760 39796432 40002816 40321448 40756716 
1216.887 41311176 41985628 42779732 43692852 44725528 45879292 47156712 
1220.262 48559972 50090472 51748352 53534044 55449220 57498812 59690932 
1223.637 62035688 64542032 67214872 70052232 73043784 76170624 79401688 
1227.013 82695840 85997768 89233144 92318056 95155680 97643552 99691312 
1230.388 101219616 102171640 102520824 102272848 101472720 100200984 
1233.281 98581568 96769672 94930752 93245976 91882392 90981240 90666064 
1236.656 91028064 92132088 94023304 96725536 100242000 104549352 109596568 
1240.031 115293432 121502712 128058016 134749488 141333984 147566800 
1242.925 153185456 157938736 161619744 164066784 165196112 165006864 
1245.818 163579728 161060928 157635680 153529168 148972480 144187840 
1248.711 139388832 134739776 130344824 126235632 122364312 118614832 
1251.604 114821736 110821704 106476320 101708520 96521936 90997656 85280392 
1254.979 79538512 73953064 68681512 63831724 59468524 55605404 52216760 
1258.354 49249720 46639456 44321888 42235780 40333044 38578360 36946208 
1261.729 35422212 33998100 32668792 31429808 30275268 29197248 28187726 
1265.105 27239632 26348944 25515032 24739926 24026148 23375112 22786120 
1268.480 22256480 21783082 21363796 20998500 20687998 20433698 20235398 
1271.855 20091356 19998052 19951630 19948994 19987608 20065018 20177568 
1275.230 20319520 20483468 20661274 20845342 21029730 21209674 21380678 
1278.606 21537124 21672206 21778658 21851546 21889492 21895556 21874926 
1281.981 21832660 21769808 21682202 21560766 21395888 21181074 20917480 
1285.356 20613880 20286466 19955032 19637716 19349350 19100090 18895340 
1288.731 18737522 18627180 18562888 18540862 18554588 18596260 18657304 
1292.107 18731744 18817652 18916588 19032442 19168650 19326728 19505378 
1295.482 19702026 19914270 20142062 20387682 20655158 20948010 21268582 
1298.857 21617492 21994812 22401902 22841298 23315848 23825538 24365086 
1302.232 24922432 25478034 26008770 26492928 26912192 27255190 27517646 
1305.608 27701466 27813362 27863278 27865858 27838374 27799584 27769312 
1308.983 27762602 27789164 27851408 27945710 28064774 28200878 28348412 
1312.358 28504312 28666248 28831290 28994234 29147956 29285286 29400500 
1315.733 29490740 29555108 29593592 29605050 29586180 29532622 29441734 
1319.109 29314742 29158764 28984848 28806116 28634890 28479510 28345088 
1322.484 28234752 28151876 28102598 28096306 28143710 28256428 28445794 
1325.859 28721008 29091088 29563514 30141498 30820868 31584750 32403238 
1329.234 33230572 34015368 34708656 35270460 35680408 35938580 36063276 
1332.610 36084124 36036384 35955280 35869836 35804420 35778692 35806468 
1335.985 35897696 36058268 36290512 36595400 36974924 37434376 37982720 
1339.360 38630368 39384536 40246700 41208788 42254844 43360168 44494824 
1342.735 45623540 46701916 47681976 48512544 49143480 49537884 49674576 
1346.111 49551444 49182592 48593508 47814716 46874180 45798468 44611536 
1349.486 43336372 42001360 40639764 39287176 37982436 36759048 35641524 
1352.861 34645636 33777464 33037000 32421232 31926110 31545554 31270504 
1356.236 31088446 30984418 30943072 30953284 31008440 31106420 31246790 
1359.612 31427778 31644370 31890382 32161292 32459688 32796842 33193014 
1362.987 33671576 34251364 34944556 35754336 36678460 37712420 38849712 
1366.362 40078100 41370796 42683504 43949344 45080608 45988716 46590876 
1369.737 46825388 46662220 46101632 45173804 43929508 42443620 40808148 
1373.113 39120684 37488916 36009020 34749788 33747128 32999888 32481932 
1376.488 32157116 31997084 31990842 32148338 32497212 33078582 33943920 
1379.863 35144696 36730492 38736276 41164016 43958364 46984000 50037968 
1383.238 52844124 55099248 56535472 56929132 56154196 54204684 51221652 
1386.614 47489060 43380348 39310680 35612932 32484214 29987920 28078170 
1389.989 26655244 25602150 24818190 24223208 23757638 23382876 23074192 
1393.364 22818772 22614144 22464358 22375774 22352366 22393706 22494576 
1396.739 22647934 22845138 23077232 23333854 23601754 23866388 24115386 
1400.115 24340662 24540318 24717584 24877762 25025576 25164874 25298912 
1403.490 25432464 25573930 25735200 25928534 26163410 26443344 26765286 
1406.865 27122098 27506352 27914228 28345584 28803284 29290604 29808740 
1410.240 30356418 30931294 31531234 32155082 32800414 33458338 34111736 
1413.615 34734244 35294248 35766424 36138672 36417796 36627088 36801964 
1416.991 36982068 37200908 37487216 37861668 38335992 38915628 39597112 
1420.366 40367148 41206092 42090572 43001548 43927716 44873604 45860584 
1423.741 46923640 48098968 49410708 50862776 52439152 54112684 55855052 
1427.116 57646392 59470648 61309508 63137180 64912432 66582680 68098072 
1430.492 69422544 70548096 71496456 72316584 73070760 73819792 74621352 
1433.867 75525896 76585152 77865120 79446520 81415608 83841544 86735792 
1437.242 90045256 93672776 97508328 101447568 105380160 109184728 112692624 
1440.617 115692736 117976912 119349536 119681480 118931312 117138328 
1443.510 114408008 110879312 106720096 102096176 97155560 92043888 86897136 
1446.886 81858576 77099104 72791944 69084128 66061528 63723892 62002436 
1450.261 60792320 59999580 59560064 59446028 59653908 60181540 61012132 
1453.636 62117068 63459060 65010324 66765756 68733016 70917424 73292552 
1457.011 75786712 78295072 80721672 83018320 85178712 87221768 89172840 
1460.387 91053808 92876344 94637504 96320632 97883712 99255096 100348280 
1463.762 101073144 101375464 101266800 100834568 100212336 99524440 98863928 
1467.137 98274000 97761352 97315304 96917512 96543168 96149096 95663976 
1470.512 94983240 93973104 92515680 90560336 88169584 85509368 82786800 
1473.888 80170376 77744592 75530240 73524360 71736768 70210056 69009120 
1477.263 68189624 67783376 67784224 68160864 68876032 69907024 71255272 
1480.638 72942928 74999696 77445688 80282096 83491312 87049056 90936296 
1484.013 95152496 99709864 104615696 109854520 115350304 120937880 126373384 
1487.389 131316856 135366656 138128336 139245856 138497376 135869184 
1490.282 131588040 126083464 119857360 113386560 107001992 100867040 
1493.175 95034504 89475736 84143472 79026112 74161920 69648088 65617652 
1496.550 62189708 59428476 57325496 55823324 54839928 54298164 54141472 
1499.925 54327488 54822596 55596064 56611756 57828124 59202248 60676700 
1503.301 62181756 63629472 64884156 65762156 66033176 65453388 63874908 
1506.676 61351560 58153860 54633848 51069796 47597712 44242744 40989304 
1510.051 37830324 34780372 31887208 29212664 26804932 24693908 22879818 
1513.426 21340408 20042428 18950438 18031084 17251244 16580742 15996005 
1516.802 15483743 15046068 14694443 14440099 14283482 14209115 14185288 
1520.177 14176216 14154444 14118297 14095056 14128018 14249344 14463427 
1523.552 14749593 15075054 15412431 15747081 16083881 16441934 16845366 
1526.927 17309376 17834326 18408650 19018178 19654632 20318894 21019992 
1530.302 21769670 22575296 23438476 24353312 25309308 26295362 27302856 
1533.678 28326412 29360294 30397710 31427492 32435622 33403296 34310272 
1537.053 35138768 35868508 36482516 36965328 37304340 37488376 37510336 
1540.428 37376412 37107860 36738820 36304852 35829248 35315236 34747276 
1543.803 34104280 33373028 32563922 31712014 30866544 30069160 29334522 
1547.179 28648586 27976490 27281298 26540368 25760900 24977388 24240130 
1550.554 23588600 23035548 22566118 22150328 21759950 21381964 21023818 
1553.929 20708118 20458530 20283966 20172570 20091704 19997912 19836922 
1557.304 19547972 19074676 18386250 17514966 16565699 15673082 14929765 
1560.680 14358684 13933226 13607423 13334547 13074442 12799067 12495290 
1564.055 12168076 11838418 11534461 11280906 11086741 10943699 10830629 
1567.430 10724619 10607396 10472623 10327169 10187699 10072690 9994294 
1570.805 9956118 9955440 9987852 10049122 10134108 10235394 10339961 
1574.181 10431011 10492650 10516548 10511354 10503716 10529345 10613882 
1577.556 10765138 10974655 11228167 11515339 11833856 12190123 12595219 
1580.931 13059827 13589269 14182069 14829641 15519763 16235268 16954224 
1584.306 17649874 18287298 18829590 19244702 19511028 19625650 19606446 
1587.682 19492936 19338610 19204908 19156252 19246608 19518756 20000340 
1591.057 20699118 21598792 22652786 23788192 24901026 25869660 26580736 
1594.432 26934894 26872816 26386862 25521394 24363964 23021782 21610666 
1597.807 20227900 18944588 17810678 16851464 16075525 15478008 15045107 
1601.183 14758163 14598383 14551919 14611575 14775989 15045965 15420122 
1604.558 15891133 16444825 17059182 17705298 18349818 18951026 19462130 
1607.933 19837024 20030804 20010854 19762638 19292572 18630466 17825488 
1611.308 16943682 16050359 15201038 14433591 13761163 13178499 12668184 
1614.684 12209548 11784418 11383583 11011051 10681286 10413600 10222740 
1618.059 10113725 10080150 10108570 10179966 10273798 10371621 10457112 
1621.434 10521232 10564482 10597007 10635035 10693341 10780796 10895994 
1624.809 11031578 11178459 11329878 11482711 11636040 11789015 11939966 
1628.185 12086916 12228803 12368281 12511625 12666000 12837255 13026195 
1631.560 13227685 13430601 13620586 13782846 13902947 13970624 13981231 
1634.935 13939043 13858508 13762120 13674267 13611048 13577338 13567664 
1638.310 13570365 13570125 13552554 13508185 13434736 13338749 13232775 
1641.686 13131402 13045043 12975564 12915723 12851452 12766036 12643519 
1645.061 12474250 12258420 12008666 11747821 11504757 11306820 11171353 
1648.436 11104519 11102072 11152077 11236395 11329028 11397699 11400352 
1651.811 11294373 11057341 10717827 10361611 10082559 9930353 9893199 
1655.187 9929302 9995108 10060584 10110537 10140247 10152728 10152864 
1658.562 10144961 10129903 10105212 10066688 10010399 9933709 9836731 
1661.937 9722390 9597410 9471347 9355681 9261471 9196284 9162713 9156960 
1665.794 9169515 9187350 9194254 9175133 9119907 9025985 8900123 8757527 
1669.652 8617715 8496802 8405042 8344949 8312693 8300298 8295569 8284391 
1673.509 8250518 8179676 8065839 7917308 7757089 7613553 7508999 7449569 
1677.367 7425908 7420043 7413639 7395473 7364602 7329891 7304416 7297980 
1681.224 7309538 7324803 7316783 7255122 7116029 6900993 6643265 6399375 
1685.082 6216892 6111230 6068857 6062540 6067681 6066068 6048731 6013387 
1688.939 5961719 5898168 5828346 5760046 5702197 5663424 5649762 5660302 
1692.796 5686889 5712638 5716634 5678866 5590384 5460916 5322161 5213262 
1696.654 5159578 5161522 5196328 5230667 5228018 5160550 5021556 4835463 
1700.511 4652798 4522137 4467399 4479986 4534893 4603871 4664722 4702870 
1704.369 4710675 4688903 4645631 4594059 4547382 4515005 4500843 4503790 
1708.226 4519358 4542259 4568343 4595868 4625505 4659865 4701531 4751876 
1712.083 4810469 4874465 4940212 5004629 5065201 5120115 5166753 5200084 
1715.941 5212290 5195557 5146400 5070531 4984352 4909716 4864044 4854829 
1719.798 4877782 4921747 4972487 5018037 5051054 5069492 5076196 5076062 
1723.656 5074688 5075660 5080454 5089204 5101809 5118036 5137448 5158069 
1727.513 5176477 5188179 5190259 5182848 5170374 5159846 5157096 5162360 
1731.371 5168329 5158471 5110492 5005199 4836066 4621084 4400484 4220411 
1735.228 4109614 4068674 4078541 4112390 4147012 4164173 4155007 4118913 
1739.085 4063892 4002289 3946814 3906692 3884460 3878877 3885797 3901243 
1742.943 3921838 3945510 3971391 3999714 4031651 4068240 4109982 4156077 
1746.800 4204252 4250859 4291883 4323808 4344222 4351853 4346230 4328158 
1750.658 4299680 4265046 4231118 4205021 4192642 4196189 4212549 4233929 
1754.515 4248818 4246576 4218471 4163236 4088207 4006636 3933039 3876236 
1758.373 3837023 3807975 3777926 3735480 3673423 3591329 3495422 3396764 
1762.230 3306977 3235467 3186298 3159029 3150185 3154256 3164903 3175017 
1766.087 3178087 3169910 3150285 3123686 3099290 3086276 3089045 3105164 
1769.945 3125054 3135333 3123652 3084808 3024512 2959554 2909949 2889469 
1773.802 2901410 2938837 2990513 3046267 3100592 3153022 3205925 3261773 
1777.660 3319764 3375693 3423347 3457646 3476684 3483798 3485736 3489710 
1781.517 3499564 3514829 3530729 3542554 3546463 3542521 3534671 3528458 
1785.375 3529059 3539014 3558222 3585015 3617690 3654444 3693807 3733174 
1789.232 3767130 3788555 3789424 3763487 3709580 3633694 3548367 3467299 
1793.089 3401740 3355858 3326876 3308345 3293622 3278465 3260771 3241008 
1796.947 3219711 3196812 3171645 3142675 3109068 3071426 3031485 2992215 
1800.804 2956284 2925461 2900276 2881097 2867955 2860884 2860484 2866154 
1804.662 2876494 2889802 2903878 2918155 2932699 2949045 2968228 2989846 
1808.519 3012200 3031685 3045566 3052807 3054442 3054709 3058346 3069057 
1812.376 3087711 3112405 3139939 3167306 3192874 3217341 3242711 3270886 
1816.234 3302569 3336959 3372254 3406081 3436939 3465228 3491815 3518470 
1820.091 3546196 3574959 3603724 3631055 3654343 3670683 3676765 3670215 
1823.949 3650033 3618893 3582843 3551039 3531731 3529760 3544124 3568478 
1827.806 3591997 3603524 3596574 3571384 3535974 3503739 3487606 3494353 
1831.664 3523146 3566774 3616420 3665504 3711118 3754797 3800554 3851999 
1835.521 3909835 3971892 4034026 4092923 4148316 4203649 4264846 4338701 
1839.378 4429572 4537806 4659798 4788927 4917592 5038618 5146769 5240258 
1843.236 5322531 5401296 5487222 5591256 5719890 5872541 6042549 6219077 
1847.093 6389590 6542611 6671190 6772513 6847772 6900656 6934289 6950348 
1850.951 6947890 6924693 6879280 6812497 6727486 6628966 6521151 6406605 
1854.808 6285701 6157538 6022122 5880904 5737886 5597868 5464204 5337860 
1858.666 5216750 5097250 4976844 4855667 4736065 4622959 4520429 4429840 
1862.523 4350380 4279769 4216196 4159824 4113193 4078575 4056901 4045497 
1866.380 4038407 4028140 4009178 3980788 3947751 3918829 3902045 3901778 
1870.238 3916355 3939760 3964837 3986572 4002523 4013258 4020147 4023659 
1874.095 4022689 4015666 4000684 3977744 3949322 3918863 3889174 3860891 
1877.953 3831842 3797981 3756134 3704601 3644820 3580405 3515397 3452102 
1881.810 3391054 3330949 3270319 3209797 3151520 3098890 3055209 3021542 
1885.667 2995785 2974233 2952681 2927962 2899642 2869089 2838505 2810291 
1889.525 2786680 2768806 2758236 2757602 2768506 2792082 2827066 2869589 
1893.382 2913619 2954416 2988879 3017538 3044231 3073128 3107333 3146847 
1897.240 3188601 3228891 3265111 3297261 3327443 3359064 3393892 3431429 
1901.097 3469069 3503572 3532500 3556719 3578801 3601686 3627012 3653842 
1904.955 3678235 3696748 3707107 3709714 3707909 3705603 3705136 3706573 
1908.812 3707609 3705637 3698786 3688594 3677166 3667174 3659723 3652405 
1912.669 3642047 3625809 3602789 3575093 3546429 3519639 3494353 3467499 
1916.527 3433533 3388883 3335023 3278231 3228156 3192974 3174983 3168875 
1920.384 3165571 3154490 3128958 3089513 3043097 2999321 2966559 2947811 
1924.242 2939571 2935535 2928729 2915954 2898341 2879596 2862619 2848377 
1928.099 2834603 2817928 2796784 2772975 2750400 2734795 2729026 2730994 
1931.957 2735628 2735828 2726526 2707321 2681782 2655211 2632009 2613308 
1935.814 2597008 2580109 2562411 2546179 2537314 2540946 2557678 2582476 
1939.671 2606009 2617942 2612242 2590075 2559644 2532148 2517717 2518950 
1943.529 2531448 2546812 2556211 2555778 2547479 2537247 2531115 2532214 
1947.386 2539747 2549579 2558611 2565644 2573310 2585442 2605508 2632309 
1951.244 2662312 2689217 2707787 2716623 2717490 2713189 2706287 2697352 
1955.101 2683449 2661912 2632476 2596842 2559977 2527949 2502487 2482492 
1958.958 2463431 2440373 2411285 2379333 2350383 2331061 2324732 2328529 
1962.816 2336458 2341854 2340022 2330528 2317103 2302413 2287158 2269804 
1966.673 2245956 2212785 2173755 2136394 2110023 2101999 2111455 2130833 
1970.531 2148947 2154375 2142820 2117848 2088548 2063479 2047932 2040275 
1974.388 2035248 2030854 2030954 2046766 2092776 2180016 2306311 2456967 
1978.246 2607508 2733494 2820029 2864453 2875360 2867021 2852646 2837638 
1982.103 2821829 2801320 2772474 2735562 2695118 2656878 2625709 2604075 
1985.960 2590575 2584309 2586176 2598709 2625342 2667513 2720791 2776576 
1989.818 2825198 2859017 2877528 2887101 2898641 2921824 2961055 3011800 
1993.675 3063484 3105598 3130660 3138103 3133864 3127357 3124487 3129426 
1997.533 3139838 3151353 3160965 3166973 3169576 3169743 3166071 3154323 
2001.390 3128758 3085442 3023611 2948345 2868989 2793983 2730127 2679615 
2005.248 2640010 2607708 2581176 2560944 2548845 2546312 2549645 2552478 
2009.105 2547479 2528915 2497755 2461399 2430477 2415383 2422513 2450602 
2012.962 2492490 2540680 2587376 2627776 2661812 2687650 2703786 2708954 
2016.820 2700919 2682116 2660445 2647277 2653378 2686450 2745698 2823097 
2020.677 2906914 2985009 3049770 3099357 3135667 3160965 3176686 3182026 
2024.535 3173548 3151119 3117211 3076165 3033988 2995384 2960054 2926628 
2028.392 2893872 2862051 2837104 2826599 2836304 2867188 2914386 2968328 
2032.250 3019273 3064419 3105965 3152721 3214370 3294289 3388549 3488441 
2036.107 3580772 3657986 3720040 3773180 3827061 3889040 3960892 4036835 
2039.964 4109614 4170362 4215560 4246543 4268024 4283450 4295497 4302993 
2043.822 4302691 4294660 4280740 4266017 4257718 4261867 4280941 4313333 
2047.679 4355635 4402024 4447916 4489360 4521635 4540552 4542594 4525820 
2051.537 4493244 4451832 4411229 4381975 4371432 4379465 4400283 4424852 
2055.394 4443865 4452502 4452837 4450427 4451765 4461105 4477241 4493377 
2059.251 4503187 4501178 4486782 4465089 4443263 4427999 4424384 4433154 
2063.109 4453339 4483568 4522706 4569716 4622758 4677047 4725078 4758810 
2066.966 4771976 4762462 4733888 4694430 4652363 4615391 4587095 4566333 
2070.824 4550898 4538476 4528063 4520697 4518454 4521065 4526824 4533052 
2074.681 4536065 4535194 4531612 4528297 4528029 4531913 4537337 4540585 
2078.539 4537672 4526489 4507740 4484774 4460737 4438208 4418158 4399614 
2082.396 4382243 4367282 4357208 4355266 4363400 4380134 4400484 4418693 
2086.253 4429237 4429404 4420769 4406409 4389773 4372235 4352020 4325649 
2090.111 4290712 4247346 4199167 4153167 4116170 4092656 4082956 4084127 
2093.968 4091585 4101586 4113628 4128246 4147480 4171968 4199434 4226233 
2097.826 4248383 4263775 4272776 4278565 4282915 4287834 4292418 4294326 
2101.683 4291883 4286094 4280271 4279569 4289306 4311526 4344390 4383983 
2105.541 4425086 4463951 4500174 4535094 4570854 4609296 4649483 4689707 
2109.398 4728863 4767152 4806884 4851713 4903718 4962331 5023835 5082264 
2113.255 5131949 5170643 5199882 5223658 5248005 5277217 5311998 5351143 
2117.113 5391533 5430551 5467257 5502826 5537994 5573233 5607367 5637207 
2120.970 5660168 5675207 5682559 5684942 5685446 5685613 5685277 5683431 
2124.828 5678261 5669130 5657919 5646371 5636737 5629151 5620860 5607367 
2128.685 5584544 5549371 5502457 5446522 5386770 5328099 5274735 5229426 
2132.542 5193813 5169704 5158035 5158505 5169704 5187408 5205818 5220003 
2136.400 5227045 5226844 5222853 5218896 5216683 5214906 5209272 5194584 
2140.257 5167893 5131245 5089170 5049211 5017299 4994641 4978184 4962566 
2144.115 4942826 4916419 4886159 4854896 4826852 4802830 4779580 4752781 
2147.972 4719752 4680296 4638833 4601092 4569950 4543096 4514369 4473726 
2151.830 4411998 4326284 4217400 4091351 3954605 3811785 3664735 3516866 
2155.687 3375059 3252926 3171612 3153456 3214036 3355558 3560026 3796243 
2159.544 4029946 4232155 4387196 4495186 4565497 4609229 4639402 4664722 
2163.402 4691516 4724877 4769296 4825010 4889778 4955964 5013646 5053736 
2167.259 5071000 5066475 5046630 5020752 4994608 4970677 4946647 4917156 
2171.117 4878686 4833218 4785744 4745880 4721527 4715766 4726585 4747789 
2174.974 4771373 4791038 4804338 4809866 4806482 4792646 4764874 4721058 
2178.832 4663549 4599317 4539681 4497429 4481761 4494248 4530340 4578321 
2182.689 4626341 4666664 4696808 4719048 4738979 4761758 4789698 4823368 
2186.546 4862368 4905528 4952177 5001210 5049647 5092925 5125713 5144757 
2190.404 5150290 5147540 5143416 5146333 5161086 5186436 5216750 5244652 
2194.261 5263466 5270542 5268631 5262158 5256322 5254444 5256255 5259944 
2198.119 5264640 5269570 5276412 5287949 5303814 5322397 5340107 5353089 
2201.976 5359060 5360536 5361308 5366507 5378349 5395458 5412199 5422801 
2205.833 5422029 5408878 5387642 5365031 5347185 5339034 5341013 5351411 
2209.691 5366977 5385595 5406026 5428840 5454742 5482994 5512725 5542794 
2213.548 5572428 5602500 5634354 5669231 5705655 5741378 5772201 5794765 
2217.406 5808902 5815954 5820118 5825592 5833249 5842316 5849603 5852089 
2221.263 5848394 5840805 5833148 5829454 5832073 5839864 5849099 5855917 
2225.121 5857596 5854272 5848327 5842887 5838958 5835902 5830461 5818976 
2228.978 5800675 5777237 5753364 5734629 5725397 5726437 5735771 5749637 
2232.835 5764041 5777472 5789997 5802556 5816223 5830697 5844599 5857025 
2236.693 5868310 5880300 5896522 5919866 5950533 5985906 6020543 6048832 
2240.550 6065867 6071142 6066640 6056627 6046346 6038988 6036636 6039962 
2244.408 6048865 6063448 6084112 6109919 6138987 6168158 6193801 6213026 
2248.265 6226034 6235042 6244017 6257026 6275918 6299719 6325774 6350519 
2252.123 6371500 6389321 6406066 6424326 6446252 6470937 6495825 6517283 
2255.980 6532554 6540324 6541602 6538608 6532823 6525289 6515972 6503796 
2259.837 6489266 6473963 6460376 6451734 6450489 6457047 6470533 6489333 
2263.695 6511599 6536657 6564509 6595155 6628326 6662813 6696191 6726577 
2267.552 6752792 6774566 6792235 6806674 6818084 6826264 6830673 6831514 
2271.410 6829899 6828115 6828720 6833231 6842286 6854201 6866724 6878337 
2275.267 6888301 6897862 6908635 6922337 6938665 6955903 6971358 6982536 
2279.125 6988698 6991830 6994928 7001932 7015805 7036986 7063792 7093295 
2282.982 7122024 7147354 7168104 7184037 7195996 7204856 7211459 7216748 
2286.839 7222004 7228068 7235547 7244981 7255391 7265499 7274159 7280729 
2290.697 7285480 7290365 7297138 7307348 7322141 7340945 7362411 7385429 
2294.554 7408887 7432716 7457154 7482637 7509168 7535936 7561998 7585937 
2298.412 7607585 7626400 7642485 7655840 7665822 7671218 7671151 7665147 
2302.269 7653479 7637697 7619353 7599795 7580003 7560346 7540218 7520192 
2306.126 7501111 7484660 7472559 7466491 7466390 7471008 7478289 7485604 
2309.984 7491166 7493863 7493830 7491874 7488806 7485335 7482065 7479300 
2313.841 7477379 7476671 7477413 7479705 7483042 7486851 7490357 7493223 
2317.699 7495616 7497976 7500706 7504415 7508999 7514259 7519821 7525485 
2321.556 7530913 7535093 7535869 7530205 7514562 7486177 7443704 7388800 
2325.414 7325713 7259738 7197007 7141931 7096528 7060997 7033349 7011259 
2329.271 6993345 6979136 6968967 6963446 6962705 6965970 6972368 6981089 
2333.128 6992436 7007285 7026850 7051702 7080699 7112257 7143009 7170563 
2336.986 7193907 7213076 7229753 7245553 7261523 7277461 7292960 7306910 
2340.843 7319377 7330970 7342865 7355907 7370533 7385968 7401539 7418290 
2344.701 7438918 7468008 7511528 7574237 7658302 7762115 7880326 8005523 
2348.558 8129337 8243562 8342010 8420785 8478320 8515454 8535560 8543602 
2352.416 8544481 8542757 8541608 8542284 8544785 8548671 8553538 8560566 
2356.273 8571414 8588041 8612578 8645971 8688460 8739540 8798742 8865594 
2360.130 8939524 9020031 9105324 9192798 9279377 9361944 9438601 9509345 
2363.988 9575697 9639416 9702297 9764035 9823139 9877506 9924997 9964933 
2367.845 9998295 10027014 10052445 10075166 10094224 10107790 10114538 
2371.220 10114234 10109181 10103619 10103144 10112911 10137195 10179219 
2374.596 10239804 10319467 10417435 10532604 10663321 10807733 10963474 
2377.971 11128552 11301719 11482269 11670075 11865557 12068314 12277131 
2381.346 12490004 12703767 12915279 13121499 13319445 13506271 13679259 
2384.721 13835282 13971103 14084651 14174676 14241812 14288276 14317109 
2388.097 14331150 14332520 14322178 14299987 14265848 14219695 14162283 
2391.472 14095056 14019455 13936408 13846707 13750731 13649101 13543632 
2394.847 13436992 13332736 13234619 13146053 13068944 13004583 12953579 
2398.222 12916132 12892853 12884730 12892068 12914971 12952794 13004106 
2401.598 13067612 13142501 13228300 13325663 13435386 13557818 13692834 
2404.973 13840071 13998615 14167692 14347622 14538180 14739892 14952948 
2408.348 15176881 15411127 15654841 15907595 16168544 16437013 16711468 
2411.723 16989196 17266758 17539600 17802842 18051944 18282422 18490344 
2415.099 18672386 18825748 18948362 19039642 19100368 19132570 19139632 
2418.474 19125332 19092786 19044730 18983112 18909320 18825126 18732748 
2421.849 18634374 18532770 18430048 18327802 18227098 18129114 18035366 
2425.224 17948232 17870990 17807156 17760382 17733564 17728628 17746440 
2428.600 17787792 17852624 17940842 18051876 18184496 18336752 18506560 
2431.975 18691550 18890148 19101926 19327248 19566898 19821798 20092572 
2435.350 20379174 20682402 21002290 21339328 21694184 22066794 22456542 
2438.725 22862390 23283372 23719212 24171396 24642882 25136892 25656702 
2442.101 26204198 26778712 27378230 27999496 28639634 29296488 29969600 
2445.476 30658626 31363842 32084942 32820248 33567964 34325044 35088692 
2448.851 35855912 36623628 37388580 38147548 38897328 39634940 40357548 
2452.226 41062064 41745032 42401716 43026464 43612764 44153564 44642344 
2455.602 45072596 45437684 45731576 45947168 46077904 46118580 46065268 
2458.977 45916672 45674112 45340240 44918904 44413412 43827092 43163020 
2462.352 42425020 41618804 40751512 39832308 38871704 37880432 36868760 
2465.727 35847132 34824492 33809876 32813314 31843454 30910516 30023886 
2469.103 29191472 28419864 27713578 27074734 26503424 25997934 25554882 
2472.478 25169366 24834994 24544594 24290094 24063796 23859038 23670082 
2475.853 23493280 23325708 23165820 23012944 22866232 22725646 22591108 
2479.228 22462544 22339284 22220420 22104342 21988852 21872382 21754098 
2482.604 21633790 21513378 21394600 21279578 21169316 21064476 20964456 
2485.979 20868704 20777178 20690082 20608356 20532550 20462488 20397302 
2489.354 20335214 20274870 20215472 20157714 20102948 20053046 20009570 
2492.729 19972204 19939594 19909552 19879444 19847500 19812954 19775640 
2496.104 19736110 19694746 19651028 19604088 19552826 19496366 19434476 
2499.480 19367954 19297768 19225482 19152342 19079006 19005578 18932164 
2502.855 18858484 18784748 18711542 18640114 18572364 18510570 18456772 
2506.230 18412176 18376986 18349852 18327872 18307616 18285154 18257576 
2509.605 18223090 18181006 18131568 18075466 18012846 17943744 17868090 
2512.981 17785822 17697360 17604014 17507204 17408176 17307754 17206460 
2516.356 17104570 17002222 16900274 16800280 16704168 16614169 16531346 
2519.731 16456731 16390732 16333411 16285317 16246824 16218619 16200839 
2523.106 16192859 16193306 16199943 16211156 16225671 16242903 16262956 
2526.482 16286004 16311806 16339706 16368538 16396958 16424486 16451191 
2529.857 16477689 16504740 16532896 16561637 16590277 16617438 16642570 
2533.232 16665364 16686469 16707128 16728651 16752722 16780582 16813162 
2536.607 16851464 16895554 16945164 16999120 17055460 17112048 17166956 
2539.983 17219354 17269724 17319926 17371790 17427386 17487576 17551536 
2543.358 17617748 17684246 17749098 17811748 17872510 17932244 17992124 
2546.733 18053118 18115296 18177966 18240472 18301466 18359462 18413768 
2550.108 18463306 18507978 18548366 18585436 18620540 18655126 18689888 
2553.484 18724412 18758038 18789142 18816546 18839866 18859660 18877102 
2556.859 18893056 18907730 18919842 18927386 18927526 18918042 18897760 
2560.234 18866962 18826510 18778070 18722994 18662182 18595810 18524678 
2563.609 18449340 18371422 18292618 18214694 18139028 18066694 17998030 
2566.985 17933626 17874582 17822002 17777056 17740812 17713062 17693012 
2570.360 17679240 17670442 17665816 17665646 17670580 17681968 17700638 
2573.735 17726938 17760176 17799528 17843646 17891672 17942914 17996684 
2577.110 18052564 18110148 18168776 18228136 18287988 18348644 18409964 
2580.486 18472296 18535674 18600134 18666298 18734928 18807168 18884334 
2583.861 18967918 19057540 19152722 19251700 19352328 19452946 19552444 
2587.236 19650160 19746234 19840874 19933834 20024732 20113048 20198394 
2590.611 20280946 20361464 20440608 20518830 20596126 20671630 20744298 
2593.987 20813638 20879376 20942446 21004168 21066214 21130076 21196870 
2597.362 21266702 21340026 21417156 21498582 21585316 21678162 21777962 
2600.737 21884962 21999414 22120798 22249050 22383622 22524098 22670310 
2604.112 22821530 22977484 23137336 23300712 23467400 23636984 23809506 
2607.488 23984338 24160606 24337296 24512938 24685912 24854606 25017750 
2610.863 25173336 25319844 25455512 25578674 25688232 25783402 25863752 
2614.238 25929378 25980664 26017882 26041524 26052288 26050636 26037724 
2617.613 26014646 25982880 25943834 25899308 25851022 25800596 25749860 
2620.989 25700572 25653924 25610516 25570450 25533024 25497288 25462398 
2624.364 25428074 25394910 25364102 25337230 25316052 25302108 25296664 
2627.739 25300668 25314822 25339690 25375694 25422628 25479368 25544340 
2631.114 25615226 25689640 25765824 25842794 25920586 26000048 26082476 
2634.490 26168794 26259774 26355492 26455880 26560482 26668702 26779840 
2637.865 26893262 27008160 27123192 27237304 27349856 27460392 27568838 
2641.240 27675614 27780758 27884300 27985960 28085348 28181928 28276196 
2644.615 28368396 28459414 28550488 28642536 28736336 28832530 28931968 
2647.990 29035150 29143032 29256294 29375432 29500918 29632542 29769954 
2651.366 29912698 30060318 30212356 30368216 30527720 30690414 30856512 
2654.741 31026588 31201396 31382434 31571350 31769048 31975898 32191444 
2658.116 32414164 32642070 32873568 33106972 33341754 33577848 33815180 
2661.491 34053964 34294100 34535336 34777176 35019332 35261404 35503464 
2664.867 35745380 35987280 36229172 36471308 36714084 36958112 37204264 
2668.242 37453556 37706672 37964316 38226920 38494828 38767900 39046004 
2671.617 39328420 39614536 39902880 40191924 40479920 40765308 41046692 
2674.992 41323308 41594264 41859076 42117256 42368176 42611460 42847344 
2678.368 43076696 43301192 43523388 43746428 43973764 44208696 44454556 
2681.743 44714356 44990712 45285736 45600796 45937372 46295184 46674504 
2685.118 47074500 47494904 47934432 48392444 48867664 49358552 49863404 
2688.493 50380536 50908560 51446484 51993996 52551552 53119896 53699368 
2691.869 54290504 54893352 55507800 56133604 56770468 57418332 58076968 
2695.244 58745972 59424940 60113648 60811796 61519540 62237084 62964320 
2698.619 63700676 64444512 65193816 65946116 66698992 67450696 68200048 
2701.994 68946320 69688352 70424208 71151080 71865176 72562088 73237568 
2705.370 73887144 74506672 75091864 75638712 76142120 76598152 77002560 
2708.745 77352512 77646592 77883992 78065304 78191400 78263768 78283968 
2712.120 78254008 78175816 78050992 77880264 77663784 77400424 77089296 
2715.495 76729320 76320536 75864520 75363568 74820720 74239000 73621776 
2718.871 72972048 72293232 71589832 70867520 70132592 69392256 68653024 
2722.246 67921472 67203424 66503464 65826460 65176920 64558832 63975908 
2725.621 63430840 62925516 62460844 62037332 61655012 61314392 61015792 
2728.996 60759392 60545116 60371876 60238176 60141768 60081152 60054784 
2732.372 60061788 60101624 60173164 60275212 60405496 60561608 60740488 
2735.747 60940260 61158696 61394036 61644240 61906744 62177628 62452888 
2739.122 62727436 62996916 63257368 63505696 63739472 63957096 64157540 
2742.497 64340980 64507932 64660832 64802676 64937324 65068668 65200052 
2745.873 65333984 65472000 65615220 65763576 65917424 66076108 66238904 
2749.248 66404388 66570900 66736624 66900320 67061804 67221944 67383200 
2752.623 67548728 67722496 67908968 68112064 68335800 68583368 68856848 
2755.998 69157120 69483344 69833160 70202608 70587512 70982528 71382920 
2759.374 71783824 72180608 72567528 72939280 73288944 73609888 73895792 
2762.749 74140928 74340552 74491296 74590776 74637640 74631616 74573936 
2766.124 74467016 74314680 74122024 73894960 73639528 73362224 73069232 
2769.499 72766864 72461384 72158656 71864168 71581976 71314968 71064320 
2772.875 70830160 70612064 70409272 70221504 70048720 69890528 69745848 
2776.250 69612496 69486656 69363648 69237872 69102768 68951792 68778432 
2779.625 68575608 68337704 68059664 67738648 67374960 66971408 66534012 
2783.000 66070288 65588824 65098160 64605428 64116404 63635880 63166760 
2786.375 62711360 62270624 61844660 61432892 61033636 60645456 60266836 
2789.751 59897256 59537108 59187628 58850492 58527572 58220160 57928940 
2793.126 57653468 57392768 57145032 56908472 56680536 56459056 56241536 
2796.501 56025328 55808100 55587744 55362264 55130172 54890568 54642564 
2799.876 54385808 54119816 53844424 53558936 53263184 52956404 52638208 
2803.252 52308208 51966920 51614968 51254016 50885800 50513284 50138928 
2806.627 49765860 49397124 49036080 48685640 48348740 48027832 47724872 
2810.002 47441088 47176580 46931248 46704388 46495092 46302816 46126724 
2813.377 45966212 45820856 45690084 45573412 45470312 45380884 45305300 
2816.753 45244732 45200608 45174540 45168620 45184688 45224400 45290000 
2820.128 45383056 45505084 45657548 45841328 46056608 46302152 46576376 
2823.503 46876060 47197412 47536084 47886816 48244424 48603216 48957744 
2826.878 49302576 49632708 49943508 50230532 50489648 50716592 50907220 
2830.254 51058128 51165956 51229596 51249020 51226388 51165620 51071508 
2833.629 50950288 50808360 50652064 50487936 50321784 50158600 50002020 
2837.004 49854376 49716704 49589176 49472232 49366828 49275848 49202996 
2840.379 49153832 49134276 49150196 49207192 49310928 49467184 49683528 
2843.755 49969824 50338232 50803292 51380096 52080392 52911448 53869928 
2847.130 54940240 56089756 57271020 58423740 59474904 60353140 60992952 
2850.505 61341904 61370604 61074100 60471604 59601376 58517828 57284516 
2853.880 55963132 54614536 53292440 52037324 50880696 49841404 48927108 
2857.256 48136096 47459120 46882596 46389044 45961240 45583092 45239508 
2860.631 44918204 44609920 44307468 44006540 43705384 43404108 43104688 
2864.006 42809752 42522580 42246152 41983768 41738432 41513356 41311864 
2867.381 41137388 40992436 40878656 40796536 40744452 40720072 40719780 
2870.757 40739576 40774880 40821104 40873708 40928240 40981364 41031328 
2874.132 41078160 41124456 41174544 41234108 41309020 41403816 41521632 
2877.507 41663732 41829448 42016908 42223584 42446396 42682080 42927768 
2880.882 43180548 43438124 43699232 43962872 44229168 44498384 44770520 
2884.258 45045508 45322216 45599616 45876200 46150860 46422592 46690592 
2887.633 46953912 47211488 47462304 47705164 47940020 48167044 48387596 
2891.008 48603768 48817276 49030332 49244004 49459016 49675576 49893884 
2894.383 50113972 50335628 50559364 50785004 51012740 51242492 51474160 
2897.759 51707708 51942200 52176708 52409248 52637872 52860104 53074364 
2901.134 53279776 53477004 53667424 53853576 54038268 54224352 54414388 
2904.509 54611640 54819288 55041812 55284172 55552120 55851016 56187264 
2907.884 56566080 56993320 57474912 58016524 58624188 59303192 60056912 
2911.260 60886316 61788576 62756532 63777112 64831184 65895020 66938160 
2914.635 67927016 68828824 69612184 70253872 70741240 71073376 71260616 
2918.010 71321064 71277448 71150064 70953032 70691720 70361864 69951240 
2921.385 69442680 68820824 68074384 67201184 66209152 65116324 63949108 
2924.760 62736244 61508052 60291772 59107932 57972068 56893552 55877284 
2928.136 54925276 54037892 53215728 52458892 51768028 51143856 50587060 
2931.511 50097836 49676652 49324140 49040752 48827580 48685528 48614664 
2934.886 48613776 48679412 48806152 48985596 49207192 49458828 49727440 
2938.261 50000420 50266540 50517080 50746048 50950960 51132076 51292160 
2941.637 51434508 51563364 51680944 51787736 51880812 51954820 52001432 
2945.012 52011104 51975100 51887420 51746040 51554816 51322924 51064540 
2948.387 50795696 50533236 50291760 50081360 49908044 49772288 49670600 
2951.762 49595712 49538700 49490244 49440192 49380304 49303316 49203704 
2955.138 49078220 48924992 48743872 48535588 48302188 48045968 47769772 
2958.513 47477048 47171632 46857532 46538828 46219660 45903196 45592480 
2961.888 45290036 44997396 44716416 44448316 44194244 43955540 43733308 
2965.263 43528988 43343988 43179888 43037692 42918036 42820320 42742180 
2968.639 42679592 42626960 42577360 42523604 42459624 42380488 42283512 
2972.014 42168372 42036908 41892864 41741456 41589012 41442668 41308952 
2975.389 41193524 41099212 41025212 40965528 40909092 40840944 40742164 
2978.764 40594684 40382784 40095468 39728928 39287212 38781340 38226960 
2982.140 37643832 37052608 36471200 35916048 35399028 34927752 34506676 
2985.515 34137864 33821552 33558192 33349052 33194840 33095744 33047936 
2988.890 33042468 33061880 33081692 33071500 32997492 32831040 32551638 
2992.265 32151978 31639948 31037762 30378236 29696008 29025478 28393298 
2995.641 27815234 27297458 26837288 26427250 26057110 25717622 25401654 
2999.016 25104170 24822082 24553782 24297944 24053288 23818538 23592344 
3002.391 23372980 23159390 22950026 22743906 22540292 22339250 22141578 
3005.766 21948492 21762180 21584062 21415554 21257168 21108370 20968038 
3009.142 20834634 20706660 20583028 20463114 20346638 20233800 20124984 
3012.517 20020326 19920166 19824782 19733822 19647352 19565372 19487912 
3015.892 19415488 19348898 19289004 19236496 19191922 19154522 19122562 
3019.267 19093858 19065226 19033478 18996126 18951060 18897208 18834124 
3022.643 18761602 18680134 18590104 18492730 18389672 18283530 18177550 
3026.018 18075018 17978794 17891500 17814198 17746958 17688698 17637520 
3029.393 17590834 17545740 17499030 17447356 17388034 17318582 17237590 
3032.768 17145172 17042090 16930694 16813748 16694525 16576335 16462065 
3036.144 16354294 16254632 16164416 16083675 16011955 15948568 15892094 
3039.519 15841542 15796147 15755432 15719356 15687820 15660957 15637839 
3042.894 15618020 15600125 15582918 15565506 15547133 15527043 15505513 
3046.269 15482645 15458747 15434198 15409410 15384487 15359256 15333408 
3049.645 15305778 15275644 15242320 15204985 15163637 15118554 15069977 
3053.020 15018147 14963099 14904389 14841710 14775063 14705033 14632616 
3056.395 14559320 14486516 14415676 14347622 14282900 14221475 14163652 
3059.770 14109123 14057784 14009257 13962686 13916872 13871131 13824917 
3063.146 13778639 13733495 13691022 13652862 13620039 13592551 13569373 
3066.521 13548828 13529207 13509210 13488429 13466931 13445433 13424621 
3069.896 13405141 13386894 13369672 13353032 13336290 13319138 13301576 
3073.271 13283948 13267277 13252895 13242032 13235883 13234893 13238377 
3076.646 13244594 13251323 13256003 13256687 13252212 13242989 13229837 
3080.022 13214500 13198310 13182188 13166647 13151381 13136183 13120918 
3083.397 13105243 13088852 13071471 13052451 13031214 13007758 12982665 
3086.772 12957164 12932654 12910671 12891863 12876368 12863432 12852203 
3090.147 12842033 12833126 12825652 12820635 12818178 12818110 12819167 
3093.523 12819919 12818997 12816233 12812308 12808657 12807224 12809408 
3096.898 12815721 12825754 12838518 12852647 12867186 12881760 12896335 
3100.273 12911456 12927260 12943919 12961328 12978944 12996322 13012777 
3103.648 13027868 13041320 13052930 13062934 13071539 13079222 13086666 
3107.024 13094077 13101691 13109546 13117707 13126109 13135398 13145848 
3110.399 13157904 13172112 13188302 13205995 13224714 13243911 13263553 
3113.774 13283948 13305813 13329388 13354945 13381837 13408969 13435180 
3117.149 13459616 13481969 13502511 13521926 13540452 13557955 13574022 
3120.525 13587663 13598397 13606705 13613201 13619799 13628381 13640074 
3123.900 13655256 13673583 13693656 13714002 13733700 13752441 13770534 
3127.275 13788831 13808020 13828201 13849238 13869968 13889366 13905924 
3130.650 13919473 13929942 13938666 13947630 13958922 13974662 13996082 
3134.026 14023561 14056483 14093344 14132365 14171800 14210314 14247051 
3137.401 14281668 14314028 14344026 14371630 14396838 14419752 14441092 
3140.776 14461645 14482507 14504571 14528929 14556031 14586389 14620382 
3144.151 14658251 14700064 14746166 14795769 14847848 14900789 14952810 
3147.527 15002061 15047681 15089359 15127989 15164735 15201038 15237962 
3150.902 15276502 15316590 15358123 15400656 15443571 15486559 15529447 
3154.277 15572444 15615925 15660854 15707951 15758110 15811885 15869170 
3157.652 15929559 15992189 16056238 16120812 16186083 16252363 16320096 
3161.028 16390042 16462374 16536819 16613033 16690223 16767701 16845162 
3164.403 16922460 16999464 17076344 17153100 17229454 17305410 17380586 
3167.778 17454704 17527628 17599080 17668406 17734980 17798078 17856972 
3171.153 17911076 17959940 18003142 18040338 18071702 18097020 18117092 
3174.529 18132844 18145318 18155786 18165390 18174822 18184460 18194308 
3177.904 18204294 18214314 18224750 18235668 18247278 18259856 18273198 
3181.279 18287504 18302848 18319714 18338792 18361086 18386942 18416532 
3184.654 18449236 18483982 18519700 18555558 18591418 18627698 18665364 
3188.030 18705626 18749424 18797342 18849590 18905202 18963554 19023370 
3191.405 19082952 19141330 19197498 19251422 19303622 19355272 19407554 
3194.780 19461678 19517818 19575390 19632896 19689164 19742976 19794472 
3198.155 19844654 19895226 19947744 20003082 20061236 20120996 20181072 
3201.531 20240050 20297438 20353582 20409596 20466866 20526784 20589664 
3204.906 20655680 20724070 20793722 20863106 20930936 20995996 21057414 
3208.281 21115188 21170186 21223696 21277872 21334388 21394322 21457884 
3211.656 21524136 21591374 21658170 21723060 21785730 21846702 21906880 
3215.031 21967312 22028762 22091928 22156674 22223034 22290940 22360004 
3218.407 22429850 22499706 22568422 22635158 22699564 22761538 22822054 
3221.782 22882228 22942970 23005048 23068428 23132584 23196998 23261384 
3225.157 23326094 23391758 23459460 23529656 23602384 23677082 23752948 
3228.532 23829002 23904720 23979752 24054200 24128274 24202154 24275904 
3231.908 24349738 24423618 24497442 24571032 24643548 24714076 24781354 
3235.283 24844608 24903730 24959840 25015222 25072332 25133802 25201496 
3238.658 25275838 25356340 25441458 25529406 25618460 25707004 25793774 
3242.033 25877220 25956780 26031602 26102076 26169568 26236122 26304304 
3245.409 26376794 26454716 26538222 26626460 26717536 26809478 26901158 
3248.784 26991446 27080482 27168198 27254696 27339906 27424072 27507444 
3252.159 27590868 27675508 27762390 27852398 27945710 28041658 28139362 
3255.534 28237720 28335856 28432740 28528230 28622078 28713964 28803850 
3258.910 28891596 28977198 29061116 29144024 29226096 29307724 29388834 
3262.285 29468612 29546988 29623460 29697784 29770272 29840930 29909892 
3265.660 29977234 30043130 30107688 30171758 30236048 30301560 30368678 
3269.035 30437796 30508206 30578946 30649414 30718614 30786650 30853560 
3272.411 30919482 30984170 31047194 31107914 31165260 31219268 31270326 
3275.786 31319470 31368010 31416912 31466928 31518012 31570070 31622666 
3279.161 31675410 31728272 31781062 31833686 31885672 31936060 31984244 
3282.536 32030042 32073454 32115444 32157614 32201220 32247540 32297150 
3285.912 32349762 32404598 32460648 32516856 32572460 32627318 32681510 
3289.287 32735776 32791122 32848120 32907270 32968678 33031852 33096138 
3292.662 33160866 33225384 33289272 33352882 33416324 33479988 33543840 
3296.037 33607848 33671756 33735848 33800132 33865108 33931384 33999424 
3299.413 34068800 34139084 34209524 34279684 34349392 34419404 34490852 
3302.788 34565188 34643552 34726748 34814728 34907068 35002592 35100508 
3306.163 35199956 35300144 35400428 35500412 35600200 35700012 35800932 
3309.538 35903884 36010208 36120848 36235944 36355392 36478912 36606432 
3312.914 36738028 36874496 37016344 37164232 37317988 37476308 37637872 
3316.289 37801440 37965944 38131592 38299004 38469200 38642644 38819928 
3319.664 39000620 39183708 39368976 39556464 39746576 39940040 40137552 
3323.039 40338752 40542812 40748496 40953800 41157312 41357636 41554120 
3326.415 41746200 41933588 42115944 42293152 42465360 42632440 42794760 
3329.790 42952128 43104176 43250124 43389352 43520892 43644932 43761412 
3333.165 43870892 43973688 44070312 44159948 44242008 44315612 44379612 
3336.540 44433416 44476504 44508332 44528452 44536560 44532264 44515748 
3339.916 44487444 44448280 44399136 44340236 44271324 44191164 44098768 
3343.291 43993012 43873604 43741368 43597708 43444280 43282596 43113472 
3346.666 42936912 42752712 42560112 42358460 42147632 41927712 41699000 
3350.041 41461880 41217420 40966472 40710720 40451880 40191380 39930560 
3353.417 39670152 39409828 39149328 38888160 38625876 38362920 38099868 
3356.792 37837372 37576264 37317228 37060440 36806072 36554632 36306364 
3360.167 36061944 35822048 35587108 35357148 35132304 34912312 34697496 
3363.542 34488304 34284848 34087400 33895772 33709064 33526194 33346656 
3366.917 33169520 32995134 32824070 32656896 32494072 32335378 32180096 
3370.293 32027118 31875652 31724990 31575058 31426172 31278696 31132298 
3373.668 30986946 30842212 30697812 30554382 30413418 30276334 30144908 
3377.043 30020264 29901516 29787482 29675040 29561210 29443366 29319740 
3380.418 29190124 29055660 28918334 28780058 28642500 28506822 28372922 
3383.794 28240514 28108960 27977480 27846002 27715168 27585608 27458910 
3387.169 27336166 27217794 27104040 26994336 26887022 26780402 26672964 
3390.544 26563122 26449928 26333594 26214794 26094862 25975598 25858722 
3393.919 25745324 25636034 25530776 25428704 25329294 25231484 25134644 
3397.295 25038740 24943802 24850080 24757080 24664764 24572364 24479492 
3400.670 24385870 24291776 24197774 24104808 24013016 23922716 23833202 
3404.045 23743500 23652344 23558760 23461698 23361196 23257712 23151806 
3407.420 23044982 22938708 22834556 22734094 22638298 22547166 22459858 
3410.796 22374272 22288218 22198834 22104864 22005478 21901828 21795730 
3414.171 21689830 21586152 21486396 21391016 21299482 21211274 21125102 
3417.546 21039956 20954756 20868704 20780548 20689596 20595466 20498266 
3420.921 20399384 20300666 20204122 20111866 20025148 19944276 19868760 
3424.297 19797002 19727338 19657960 19587556 19514910 19439986 19362756 
3427.672 19283842 19203628 19122734 19041684 18960232 18878382 18795474 
3431.047 18711370 18626454 18541726 18458536 18378576 18303090 18232420 
3434.422 18166116 18102550 18039854 17976308 17911112 17844302 17777056 
3437.798 17710750 17646836 17585968 17527698 17470640 17413418 17354306 
3441.173 17292376 17227524 17160338 17091474 17021930 16951986 16880984 
3444.548 16808306 16732782 16653726 16571585 16487636 16404150 16323915 
3447.923 16249094 16180787 16118955 16061945 16007040 15951386 15892508 
3451.299 15828963 15760448 15687888 15612833 15537106 15462489 15389842 
3454.674 15319508 15251002 15183195 15114986 15045176 14973388 14899588 
3458.049 14824945 14750074 14676106 14603077 14530266 14456164 14379439 
3461.424 14299029 14215107 14129353 14044266 13962583 13886389 13816571 
3464.800 13752031 13691125 13631458 13571390 13510065 13447313 13383682 
3468.175 13319274 13254227 13187652 13119210 13048559 12975872 12902103 
3471.550 12828689 12756277 12685276 12615412 12545592 12474761 12402647 
3474.925 12329215 12255114 12181434 12108789 12037859 11969155 11902505 
3478.301 11838248 11775908 11714564 11652989 11589961 11523811 11454372 
3481.676 11382189 11309609 11239047 11173019 11112746 11057409 11005172 
3485.051 10952805 10897624 10838171 10774818 10708997 10643219 10579047 
3488.426 10517192 10457756 10399482 10341590 10283671 10226065 10169179 
3491.802 10113962 10060143 10007178 9953779 9898894 9841848 9782878 9723237 
3495.659 9664011 9606759 9552765 9502741 9456650 9414729 9376029 9339633 
3499.516 9303986 9267090 9226880 9181596 9130059 9072436 9010254 8945579 
3503.374 8881421 8820754 8765539 8717465 8676765 8642795 8613626 8587230 
3507.231 8560634 8531302 8497309 8458049 8414501 8369100 8325055 8284932 
3511.089 8250553 8221883 8197132 8173632 8148581 8119918 8086801 8049670 
3514.946 8009775 7968804 7928072 7888424 7850130 7813660 7779150 7747543 
3518.803 7719548 7695972 7676546 7660426 7645318 7628626 7607585 7579868 
3522.661 7544769 7503133 7456749 7408449 7360591 7314290 7269711 7225743 
3526.518 7180770 7133510 7083696 7032137 6980382 6930484 6883824 6840535 
3530.376 6800414 6762249 6724827 6687779 6650936 6614499 6578503 6542510 
3534.233 6504906 6464547 6420089 6371096 6318142 6262841 6207481 6154211 
3538.091 6104442 6059483 6019636 5985134 5955706 5931454 5911670 5895279 
3541.948 5880669 5865657 5848126 5825995 5797854 5762967 5721267 5673427 
3545.805 5620760 5565245 5510108 5458366 5413105 5376202 5347789 5325449 
3549.663 5305089 5282315 5252600 5213530 5165345 5111364 5056485 5006205 
3553.520 4964778 4934013 4913470 4900668 4892526 4885522 4876978 4865183 
3557.378 4849334 4828863 4804439 4776331 4745512 4713187 4680999 4650354 
3561.235 4623462 4601929 4586960 4578489 4575408 4574638 4571356 4559503 
3565.093 4533654 4489193 4425287 4345427 4257451 4171733 4096937 4038842 
3568.950 3999146 3974501 3960022 3950493 3941398 3930464 3916489 3899471 
3572.807 3879144 3855509 3828432 3797446 3764056 3729598 3696714 3667609 
3576.665 3643818 3625207 3610907 3598412 3585884 3571752 3555182 3537043 
3580.522 3518904 3502637 3490646 3484433 3485635 3494286 3509518 3528190 
3584.380 3545628 3556050 3552543 3529660 3485001 3420508 3342736 3262106 
3588.237 3190404 3136401 3105297 3097054 3107300 3129226 3155558 3178855 
3592.094 3193274 3194910 3181892 3154590 3115976 3070225 3022676 2978169 
3595.952 2940105 2910316 2888468 2872425 2859017 2845375 2828867 2808723 
3599.809 2785713 2762137 2741063 2725592 2718323 2719991 2730427 2748299 
3603.667 2771607 2797985 2824297 2847243 2862852 2867188 2856648 2830000 
3607.524 2788881 2738396 2686350 2641410 2609442 2592609 2587842 2588542 
3611.382 2587009 2577109 2556378 2526949 2495556 2469429 2455534 2456934 
3615.239 2471695 2494256 2516317 2529248 2525149 2498988 2449436 2380733 
3619.096 2300715 2220512 2151112 2101034 2074066 2069405 2082955 2108825 
3622.954 2141489 2178151 2217647 2260878 2308609 2359311 2407253 2442605 
3626.811 2451869 2421447 2344053 2224408 2082655 1948737 1851927 1807008 
3630.669 1811998 1851461 1905737 1956991 1992773 2008151 2005755 1993338 
3634.526 1979458 1971303 1971037 1976629 1983153 1985616 1981389 1970571 
3638.384 1955993 1940949 1928501 1920081 1914923 1911994 1911162 1913492 
3642.241 1922011 1940649 1972135 2017272 2073866 2136594 2197999 2250486 
3646.098 2286158 2298883 2284826 2242626 2173189 2080058 1970172 1854057 
3649.956 1744859 1657508 1604294 1591391 1617896 1675403 1751546 1830498 
3653.813 1897384 1939950 1950168 1926804 1876652 1813895 1754607 1712857 
3657.671 1696957 1707136 1738339 1782320 1830665 1875620 1912526 1939151 
3661.528 1956292 1967110 1974898 1983752 1996667 2015408 2041507 2076096 
3665.385 2119779 2172790 2233866 2299616 2363975 2421014 2466997 2505420 
3669.243 2550678 2628609 2771741 3006061 3345574 3787886 4320662 4925333 
3673.100 5581187 6264993 6937251 7538701 7994554 8226442 8187712 7881473 
3676.958 7354559 6672537 5901056 5101273 4323741 3615084 3014202 2542313 
3680.815 2201828 1975464 1835223 1750947 1699252 1668351 1655047 1660468 
3684.673 1684151 1720409 1758366 1784449 1786013 1755805 1694329 1611178 
3688.530 1520861 1437743 1371659 1326025 1298906 1286842 1287308 1297876 
3692.387 1317018 1342311 1369964 1395127 1414340 1425742 1429964 1430131 
3696.245 1431361 1438109 1453402 1477206 1506198 1535525 1558269 1568079 
3700.102 1560531 1534461 1492333 1440802 1389276 1346698 1319943 1312166 
3703.960 1322303 1347163 1381798 1421687 1463841 1506530 1548892 1590726 
3707.817 1630468 1665524 1691635 1703876 1697356 1669349 1620258 1554811 
3711.675 1482426 1414639 1362585 1334234 1332506 1354509 1393465 1440769 
3715.532 1487612 1526846 1554811 1571072 1578587 1581846 1585272 1591291 
3719.389 1599638 1608351 1614005 1615069 1612043 1607354 1605092 1608252 
3723.247 1617131 1629636 1640778 1644969 1638550 1621555 1597809 1575595 
3727.104 1564554 1572402 1602665 1653384 1717947 1786379 1848134 1894688 
3730.962 1921579 1929866 1925240 1915888 1907767 1901111 1890329 1866169 
3734.819 1821148 1754308 1673706 1594517 1533596 1502108 1501776 1527245 
3738.677 1570041 1622220 1679727 1742431 1810834 1882708 1951699 2002659 
3742.534 2016573 1975897 1873424 1723602 1563922 1442597 1393631 1422019 
3746.391 1508426 1621721 1732152 1814793 1855787 1851461 1808538 1739404 
3750.249 1658506 1576958 1501277 1436946 1390240 1368169 1377077 1417598 
3754.106 1484287 1565618 1648162 1719444 1770709 1798324 1803680 1791203 
3757.964 1766617 1733649 1695660 1655845 1619160 1593353 1585837 1601268 
3761.821 1638716 1691602 1748319 1796327 1826639 1835390 1826040 1807374 
3765.678 1790838 1784449 1790239 1803414 1815658 1818353 1805710 1776731 
3769.536 1736310 1693364 1656710 1633228 1625712 1632995 1651654 1676966 
3773.393 1704641 1731652 1756403 1778727 1799355 1818686 1836088 1849099 
3777.251 1853924 1846470 1824409 1789407 1746855 1706537 1678529 1668817 
3781.108 1678197 1701714 1730289 1754407 1767548 1767016 1755572 1738871 
3784.966 1723669 1714687 1713423 1717980 1724700 1730655 1733782 1733881 
3788.823 1731786 1729091 1726197 1724434 1724733 1728792 1738672 1756104 
3792.680 1780557 1809503 1837552 1858416 1867001 1861544 1845439 1827138 
3796.538 1817888 1827005 1858183 1907801 1965845 2017139 2045169 2037146 
3800.395 1987081 1901511 1798656 1706371 1649226 1639514 1674671 1739637 
3804.253 1813828 1874888 1905172 1894921 1845538 1770842 1693231 1636022 
3808.110 1612908 1625479 1665158 1719477 1776831 1830465 1879580 1926970 
3811.968 1976496 2029456 2081923 2124640 2146317 2136161 2090013 2014509 
3815.825 1929433 1860013 1827171 1840248 1893025 1968474 2042406 2091711 
3819.682 2098104 2053192 1963714 1851694 1749384 1682887 1665990 1695194 
3823.540 1755805 1827803 1892858 1938619 1960020 1960220 1947971 1935790 
3827.397 1933893 1946773 1972801 2005755 2037246 2059717 2069138 2065676 
3831.255 2053491 2039909 2031986 2035481 2052692 2081823 2117448 2152510 
3835.112 2178151 2186743 2173822 2138958 2086950 2027458 1972335 1931663 
3838.969 1911129 1910363 1923809 1943744 1962217 1972801 1972535 1960286 
3842.827 1937720 1908500 1878083 1851761 1835190 1832528 1845439 1873823 
3846.684 1915289 1966710 2025528 2090379 2161601 2239695 2323766 2409286 
3850.542 2485591 2536181 2540946 2480693 2347151 2152244 1933227 1738672 
3854.399 1608551 1558868 1580416 1650290 1743429 1840913 1930598 2006220 
3858.257 2067108 2114052 2149180 2174355 2191505 2202428 2209421 2214084 
3862.114 2216182 2214284 2204559 2183779 2152444 2116316 2085319 2071735 
3865.971 2083987 2122243 2178184 2235232 2275167 2281029 2245357 2172756 
3869.829 2082855 2002193 1951100 1938586 1958023 1993871 2027791 2046600 
3873.686 2044603 2026659 2004623 1992074 1999962 2031819 2083354 2144619 
3877.544 2203460 2247855 2267972 2259046 2222743 2168228 2109058 2061082 
3881.401 2037146 2042605 2073966 2120045 2165896 2195168 2195235 2162300 
3885.259 2103730 2037013 1984185 1963615 1981921 2034283 2105895 2178551 
3889.116 2235165 2262443 2254849 2215649 2156473 2092510 2039143 2007219 
3892.973 2000195 2016706 2051993 2100501 2157272 2217481 2277465 2333060 
3896.831 2380200 2414650 2433176 2434708 2420614 2395325 2364941 2335625 
3900.688 2311874 2295285 2283793 2272968 2258280 2236098 2205891 2170758 
3904.546 2135262 2105562 2085685 2077262 2079160 2088981 2103131 2118880 
3908.403 2134429 2149180 2162900 2176120 2189074 2202195 2216082 2231535 
3912.260 2249287 2269704 2292520 2315438 2335525 2349050 2352915 2345885 
3916.118 2329262 2306277 2281928 2260678 2245257 2236198 2233334 2234999 
3919.975 2241060 2251718 2267106 2286858 2308776 2328829 2342054 2344519 
3923.833 2334359 2313772 2287857 2263576 2247655 2244125 2253317 2271902 
3927.690 2296051 2320601 2341788 2357412 2366507 2368139 2362309 2348950 
3931.548 2328729 2303746 2277598 2254649 2239029 2233167 2236997 2248488 
3935.405 2264142 2280230 2294319 2305678 2314772 2323133 2332127 2341155 
3939.262 2349283 2353648 2351749 2341854 2323832 2299349 2272136 2246789 
3943.120 2227239 2216715 2216448 2225341 2240694 2258846 2275766 2287824 
3946.977 2293187 2291188 2282894 2270237 2255782 2241793 2229770 2220112 
3950.835 2212918 2208156 2205525 2204592 2205525 2207690 2210687 2213984 
3954.692 2217148 2219879 2223009 2227306 2233334 2241693 2251918 2263376 
3958.550 2274700 2284726 2292421 2296984 2298383 2296284 2291388 2284260 
3962.407 2276066 2268305 2262809 2261111 2264608 2273901 2288157 2306011 
3966.264 2325698 2344919 2362009 2375635 2385031 2390195 2391261 2389162 
3970.122 2384964 2380266 2376102 2373237 2372071 2372071 2372237 2372437 
3973.979 2372304 2372404 2373770 2377501 2383764 2392227 2401489 2409719 
3977.837 2415649 2418915 2420014 2420581 2421914 2424579 2428377 2432043 
3981.694 2433942 2432909 2428711 2421680 2413117 2404554 2396592 2390061 
3985.552 2384797 2380866 2377901 2376168 2375502 2375868 2376968 2378367 
3989.409 2379833 2382132 2385963 2392460 2402189 2414350 2427045 2437507 
3993.266 2442972 2441506 2432809 2418382 2401256 2384631 2370605 2360577 
3997.124 2354314 2350283 2346652 2342654 2338023 2332827 2328363 2325431 
##END=
