
##TITLE=mdmaHCL00394_7
##JCAMP-DX=5.01  $$ Nicolet v. 1
##DATATYPE=INFRARED SPECTRUM
##ORIGIN=UniL
##OWNER=Nicolet
##LONGDATE=2011/08/24
##TIME=09:16:13
##SPECTROMETER/DATA SYSTEM=Nicolet iS5
##DATA PROCESSING=
Ratio against background
%Transmittance->Absorbance
Truncated
ElementMultiply or ElementDivide
##COMMENTS=
Number of sample scans: 32
Collection length: 51.18 sec
Sample gain: 2.0
Background collected on: Mer Aout 24 09:14:34 2011 (GMT+02:00);
Number of background scans: 32
Background gain: 2.0
Sample spacing:  1.000
Number of scan points: 12415
Resolution points: 8192
Number of FFT points: 65536
Apodization: N-B fort;
Phase correction: Mertz;
Laser frequency: 15798.0 cm-1
Number of rejected sample scans: 0
Number of rejected background scans: 0
Bench serial number: ASB1000141;
##RESOLUTION=4.000
##XUNITS=1/CM
##YUNITS=ABSORBANCE
##FIRSTX=649.893372
##LASTX=4000.122314
##FIRSTY=0.074558
##MAXX=4000.122314
##MINX=649.893372
##MAXY=0.250084
##MINY=0.000174
##XFACTOR=1.000000
##YFACTOR=1.000000E-009
##NPOINTS=6950
##DELTAX=0.482117
##ZPD=6100
##XYDATA=(X++(Y..Y))
649.893 74557728 74607728 74719960 74908624 75168280 75480008 75823400 
653.268 76193328 76603848 77084624 77664584 78354720 79139368 79982952 
656.643 80843912 81694656 82534656 83386960 84285384 85255112 86304560 
660.018 87423000 88595200 89812576 91083920 92428520 93865048 95392400 
663.393 96986560 98601144 100187840 101709816 103140912 104464376 105655272 
666.767 106663632 107416440 107840744 107902344 107622280 107056768 
669.660 106252992 105226632 103964576 102447152 100672816 98678120 96537744 
673.035 94341784 92180016 90111264 88155776 86309200 84557920 82896512 
676.410 81331528 79877328 78544368 77333072 76231832 75222928 74289792 
679.785 73424416 72624472 71890160 71217712 70595768 70008392 69442136 
683.159 68891648 68363184 67871344 67433504 67060100 66750644 66493580 
686.534 66271900 66070752 65880292 65698428 65526248 65362676 65201132 
689.909 65029956 64834796 64605236 64339064 64041524 63721968 63389196 
693.284 63045800 62689460 62314792 61918516 61504540 61084244 60673844 
696.659 60288800 59939896 59630072 59355760 59109984 58886692 58682440 
700.034 58496824 58330348 58181972 58048148 57923032 57801252 57679236 
703.408 57556916 57437656 57325496 57223424 57131996 57049200 56972652 
706.783 56901256 56836820 56783312 56746076 56729388 56735768 56767000 
710.158 56827228 56926416 57084304 57327236 57684308 58177916 58810164 
713.533 59553640 60343052 61086456 61673264 61995440 61978012 61589828 
716.908 60857992 59858272 58712632 57565656 56553060 55800980 55401372 
720.282 55402616 55809832 56575028 57600384 58729736 59774576 60538944 
723.657 60839504 60560084 59671468 58245732 56435356 54443456 52480616 
727.032 50704712 49211828 48027536 47123692 46443760 45927132 45528888 
730.407 45218180 44976376 44789732 44642196 44515932 44396640 44275728 
733.782 44154116 44038076 43935412 43849156 43776368 43709856 43643576 
737.156 43575324 43508884 43449624 43401584 43361820 43323012 43275128 
740.531 43212244 43135792 43055404 42984100 42931936 42902092 42889440 
743.906 42885196 42881756 42878100 42880040 42897116 42936144 42996208 
747.281 43068428 43139304 43197348 43237684 43264368 43286768 43314040 
750.656 43349188 43387960 43420952 43440252 43442888 43433660 43421284 
754.031 43414324 43416084 43424136 43432964 43439592 43447064 43465300 
757.405 43506096 43577156 43678564 43801616 43934824 44069024 44204148 
760.780 44348564 44515272 44713552 44944480 45200204 45469468 45745380 
764.155 46032848 46348968 46721212 47179572 47747288 48441304 49269132 
767.530 50230756 51317776 52511204 53781340 55090824 56413816 57759236 
770.905 59200044 60874764 62972860 65685020 69109496 73178544 77585776 
774.279 81828848 85236968 87131208 87046872 84829848 80726424 75277296 
777.654 69220776 63279368 57992668 53704992 50514920 48339596 46985072 
781.029 46232008 45892736 45822548 45935456 46181336 46528060 46955092 
784.404 47449956 48010732 48646572 49374400 50211788 51170060 52254128 
787.779 53466360 54813648 56314104 57998196 59901632 62063396 64517580 
791.154 67292976 70421712 73942896 77903088 82353824 87328920 92825752 
794.528 98776240 105041288 111400792 117550536 123153304 127839688 131247904 
797.903 133096936 133204904 131543728 128246144 123602528 118014824 
800.796 111908632 105720144 99814336 94441016 89749464 85767448 82431688 
804.171 79615040 77173856 74985448 72968912 71105064 69425144 67992728 
807.546 66866384 66076152 65600388 65365836 65253920 65122984 64847916 
810.920 64330144 63519000 62411644 61041912 59466356 57746900 55947944 
814.295 54128600 52339080 50627120 49031256 47579964 46291240 45170568 
817.670 44212588 43405392 42736152 42194332 41773632 41472272 41289672 
821.045 41224928 41276192 41442016 41724424 42130984 42676268 43380196 
824.420 44261748 45335124 46602128 48046448 49627284 51277956 52909356 
827.794 54404588 55640508 56501508 56894232 56776364 56164300 55137692 
831.169 53819068 52360760 50922088 49633264 48593836 47856812 47425452 
834.544 47258476 47274992 47374344 47438316 47355792 47044964 46459100 
837.919 45601972 44521472 43302216 42041000 40826744 39731468 38795148 
841.294 38029372 37424840 36961576 36617028 36370416 36206016 36109792 
844.669 36068280 36069468 36103276 36163592 36249740 36363860 36509076 
848.043 36686176 36892276 37122080 37370564 37635596 37919552 38228156 
851.418 38568624 38945744 39361284 39813792 40301228 40822960 41381620 
854.793 41982416 42631524 43334800 44096824 44922472 45819784 46799956 
858.168 47880340 49082004 50426604 51936560 53633572 55536492 57663724 
861.543 60027732 62627152 65435476 68390288 71387760 74273200 76866688 
864.917 78977224 80420872 81064568 80834688 79733696 77837728 75291088 
868.292 72287904 69029048 65717740 62528640 59585908 56975148 54737344 
871.667 52877808 51378264 50205572 49321616 48684564 48254716 47995784 
875.042 47872312 47854408 47918520 48047632 48234200 48476792 48778572 
878.417 49143148 49572204 50063960 50614388 51218560 51872036 52572380 
881.792 53317800 54105932 54931816 55786552 56657164 57527560 58377952 
885.166 59188236 59940692 60621992 61228776 61770396 62271540 62767140 
888.541 63298420 63904464 64610660 65424964 66334896 67312744 68320288 
891.916 69315800 70263800 71132312 71893840 72524456 72998936 73292288 
895.291 73383256 73254552 72897304 72312328 71511536 70517504 69363024 
898.666 68093296 66759884 65418332 64125240 62926708 61857532 60938240 
902.040 60174120 59559988 59084924 58737400 58508044 58390496 58380452 
905.415 58473548 58664272 58946384 59314812 59766972 60303688 60928288 
908.790 61644508 62454032 63355572 64346172 65423036 66585420 67835904 
912.165 69178696 70617568 72153496 73784488 75508240 77325712 79245728 
915.540 81287176 83475576 85842784 88419864 91231672 94295632 97615760 
918.914 101180512 104951504 108857936 112793352 116603888 120113800 
921.807 123148904 125561000 127277256 128320096 128824128 129009872 
924.700 129168792 129628984 130681608 132570248 135446928 139344976 
927.593 144167792 149674512 155511440 161181888 166103632 169695168 
930.485 171385232 170742416 167551520 161841984 153912288 144272400 
933.378 133602680 122601360 111906480 102058168 93407000 86148648 80345080 
936.753 75953304 72874144 70983904 70166272 70307824 71291112 72985608 
940.128 75209800 77726472 80265672 82517184 84192544 85077328 85048312 
943.502 84109288 82377496 80067528 77432976 74721496 72151736 69868464 
946.877 67948904 66412224 65235360 64373032 63773468 63392340 63191480 
950.252 63140012 63213400 63388504 63644284 63964232 64335296 64749828 
953.627 65204328 65696276 66223084 66780208 67361144 67959752 68571720 
957.002 69195712 69832344 70483672 71150184 71830072 72520072 73215840 
960.377 73915152 74618632 75328888 76049696 76783520 77530520 78288168 
963.751 79053144 79823328 80598792 81381712 82175024 82980048 83795888 
967.126 84619480 85447800 86279496 87116592 87964072 88827880 89712632 
970.501 90619808 91548032 92495056 93460080 94445432 95455880 96497776 
973.876 97576312 98693344 99848024 101038232 102262872 103523264 104822584 
977.251 106163872 107547400 108968472 110418864 111887400 113363424 
980.143 114838560 116304960 117754504 119175904 120552936 121868464 
983.036 123107200 124259752 125326008 126313720 127235992 128104832 
985.929 128930152 129718440 130474656 131206680 131925520 132644624 
988.821 133378032 134136304 134924128 135742720 136592096 137474496 
991.714 138396800 139368224 140396960 141486608 142633632 143828880 
994.607 145061248 146322016 147607808 148919456 150259136 151625552 
997.500 153012432 154409488 155805952 157195008 158576704 159956880 
1000.392 161343168 162740800 164150416 165568752 166992752 168423552 
1003.285 169868176 171337776 172844656 174396016 175993328 177633456 
1006.178 179313840 181035952 182808672 184644064 186552496 188536976 
1009.070 190590112 192695040 194830944 196980368 199129856 201270416 
1011.963 203393392 205485024 207525904 209495856 211378288 213168624 
1014.856 214874528 216513504 218102112 219649248 221151312 222594928 
1017.748 223962896 225241104 226424144 227513072 228511504 229421184 
1020.641 230242304 230978224 231641936 232263184 232887296 233564240 
1023.534 234342528 235254960 236312608 237508080 238821216 240227616 
1026.427 241699088 243205088 244706272 246146864 247460368 248573216 
1029.320 249413760 249928752 250083504 249861456 249258736 248278208 
1032.213 246928368 245225920 243203136 240908752 238398176 235728256 
1035.106 232937648 230038048 227012304 223822128 220422816 216772992 
1037.999 212847792 208641632 204167696 199456640 194556176 189535408 
1040.892 184476256 179472896 174621472 169997776 165652592 161602112 
1043.785 157830064 154297632 150956960 147768512 144705840 141760720 
1046.678 138940144 136260128 133740560 131398696 129249544 127302360 
1049.571 125560416 124019288 122665960 121479352 120430712 119491264 
1052.464 118633944 117837512 117088904 116379840 115703976 115053568 
1055.357 114417232 113781104 113131072 112454104 111738712 110975216 
1058.250 110152336 109256992 108276736 107201016 106027320 104762432 
1061.144 103424240 102036880 100626576 99218960 97833696 96486192 95188592 
1064.519 93950688 92780456 91683504 90660560 89706240 88809504 87956680 
1067.894 87133680 86330384 85542496 84771608 84023000 83303744 82620816 
1071.269 81980776 81389864 80855168 80383992 79983352 79658104 79409872 
1074.645 79236504 79132456 79089992 79099928 79150256 79226088 79306696 
1078.020 79364928 79372368 79300968 79130896 78856072 78486528 78047424 
1081.395 77571960 77099504 76667760 76308688 76051824 75921656 75940240 
1084.770 76129480 76508640 77095032 77904008 78946392 80229680 81754648 
1088.146 83512040 85475640 87593392 89789024 91955064 93961880 95683552 
1091.521 97003712 97842784 98172680 98018680 97458312 96601728 95589272 
1094.896 94563312 93649056 92954936 92552088 92474432 92720152 93253944 
1098.271 94012720 94908000 95842048 96709264 97402584 97830784 97918992 
1101.646 97619040 96917752 95836848 94431504 92775944 90960112 89072848 
1105.022 87188920 85372704 83670488 82111496 80713888 79483360 78416704 
1108.397 77501568 76719352 76046688 75456120 74921384 74416560 73916880 
1111.772 73400440 72845768 72233152 71547400 70778952 69926832 68999688 
1115.147 68014864 66995844 65966672 64951912 63971916 63041972 62174412 
1118.523 61377396 60656316 60013960 59450588 58964032 58549564 58201216 
1121.898 57910048 57663912 57446468 57235180 56999780 56707264 56323456 
1125.273 55819100 55178592 54401504 53505488 52520440 51486436 50445100 
1128.648 49431204 48473196 47587912 46782136 46054544 45397620 44800200 
1132.024 44248100 43727004 43223916 42728252 42234504 41742224 41256188 
1135.399 40784344 40336244 39921148 39546084 39216344 38935488 38705920 
1138.774 38529260 38405956 38335124 38313552 38336352 38398100 38493272 
1142.149 38618016 38770512 38950240 39157020 39389580 39645392 39920752 
1145.525 40211148 40512292 40820052 41130280 41437680 41736316 42019100 
1148.900 42279752 42513956 42720720 42902420 43064036 43211952 43352996 
1152.275 43493096 43638004 43793736 43965584 44159216 44378728 44625524 
1155.650 44897812 45190900 45497908 45810768 46122300 46425656 46713760 
1159.026 46979240 47213224 47405312 47545912 47625956 47638160 47578264 
1162.401 47443120 47231288 46941988 46575864 46135312 45625416 45054036 
1165.776 44431100 43767428 43074428 42362336 41640500 40918412 40204716 
1169.151 39508812 38839968 38205720 37612068 37062388 36557444 36097228 
1172.527 35681416 35311216 34989484 34720212 34507428 34354452 34262692 
1175.902 34232788 34264660 34358932 34517184 34742428 35037972 35407332 
1179.277 35854400 36383564 37000288 37712384 38527960 39455868 40503820 
1182.652 41677264 42980004 44414952 45984628 47691960 49539000 51524636 
1186.028 53641220 55871972 58191212 60560124 62929504 65242528 67429056 
1189.403 69413712 71121184 72476728 73423120 73926824 73983752 73620408 
1192.778 72890288 71867840 70630784 69255512 67808008 66332540 64856032 
1196.153 63386628 61919660 60444072 58949876 57433836 55902528 54373152 
1199.529 52869124 51418992 50049832 48782980 47634016 46610496 45713092 
1202.904 44937388 44275432 43716964 43249136 42857728 42526196 42235560 
1206.279 41967964 41706296 41436872 41151336 40845640 40519968 40176948 
1209.654 39821016 39457536 39092768 38734644 38393032 38078852 37804768 
1213.030 37582916 37424116 37338388 37333692 37417184 37595452 37873996 
1216.405 38257284 38748268 39347936 40055788 40870940 41792860 42822332 
1219.780 43960816 45209652 46569368 48039344 49619188 51309612 53114504 
1223.155 55040272 57095376 59287088 61618924 64088180 66685468 69393504 
1226.531 72185888 75028208 77874392 80663184 83324776 85778184 87936800 
1229.906 89723432 91069416 91924480 92264128 92091488 91443240 90386704 
1233.281 89027296 87497288 85938800 84507968 83349824 82587464 82329344 
1236.656 82655920 83624336 85274632 87626992 90683872 94424136 98802520 
1240.031 103740304 109119072 114795096 120588576 126291472 131694288 
1242.925 136572816 140711792 143933632 146098800 147132784 147032128 
1245.818 145861648 143742608 140830288 137315008 133393880 129258152 
1248.711 125093920 121046152 117209976 113618504 110235440 106964560 
1251.604 103664664 100193008 96425536 92288144 87775848 82950976 77933304 
1254.979 72867248 67912256 63210644 58864228 54937680 51450180 48384444 
1258.354 45697080 43331908 41231632 39340572 37614092 36019280 34532144 
1261.729 33138976 31832010 30606714 29459286 28385516 27379182 26434786 
1265.105 25547328 24714428 23936546 23215592 22553622 21951246 21406922 
1268.480 20917830 20480724 20094098 19757852 19473252 19241344 19061902 
1271.855 18932508 18849208 18808172 18806198 18841286 18911812 19015062 
1275.230 19145970 19297560 19461678 19630400 19797732 19959368 20111416 
1278.606 20250430 20371466 20469158 20539568 20580980 20595050 20584974 
1281.981 20554506 20503718 20429148 20323096 20177464 19987052 19752894 
1285.356 19482608 19190226 18893158 18607534 18346984 18121168 17935352 
1288.731 17792900 17694772 17640384 17626996 17649012 17699396 17770290 
1292.107 17856040 17954000 18064966 18191924 18337686 18503412 18687882 
1295.482 18888314 19102376 19329118 19570328 19829464 20110340 20415846 
1298.857 20748084 21108544 21499242 21922390 22379820 22870212 23386898 
1302.232 23917884 24444510 24945592 25401866 25797044 26121006 26370174 
1305.608 26546074 26654434 26704464 26709328 26685050 26649218 26620508 
1308.983 26613602 26638368 26698016 26790236 26908912 27046770 27198358 
1312.358 27359386 27526332 27695038 27859958 28013950 28150850 28265764 
1315.733 28356266 28422340 28463660 28479226 28466244 28420890 28341196 
1319.109 28229094 28091144 27937760 27780688 27630520 27494526 27376570 
1322.484 27279322 27205730 27161638 27155958 27198534 27300528 27472358 
1325.859 27722690 28059898 28490514 29017508 29636798 30332824 31078264 
1329.234 31831510 32545816 33176850 33688620 34063140 34300772 34419080 
1332.610 34445476 34412408 34352048 34290656 34249856 34246448 34292236 
1335.985 34395908 34562320 34793580 35090844 35455896 35892764 36408644 
1339.360 37011220 37705412 38490700 39358672 40293812 41272728 42267988 
1342.735 43247236 44170476 44996076 45679744 46180008 46466772 46524300 
1346.111 46352768 45965624 45385996 44640948 43755548 42754248 41659832 
1349.486 40494108 39283404 38057656 36847836 35687028 34603404 33617332 
1352.861 32741994 31982352 31338912 30809450 30390104 30075656 29856828 
1356.236 29721908 29655954 29644568 29677064 29747314 29852784 29993174 
1359.612 30166608 30368534 30593380 30837374 31103108 31401206 31750620 
1362.987 32173172 32686296 33301652 34022212 34845924 35768728 36784076 
1366.362 37881660 39038428 40217112 41360624 42394152 43240680 43827164 
1369.737 44096348 44017580 43584372 42816112 41751452 40451372 38994672 
1373.113 37468544 35972124 34597192 33412278 32457150 31736542 31230340 
1376.488 30907458 30742158 30723628 30859570 31174054 31703498 32492608 
1379.863 33585688 35023424 36832296 39008556 41497828 44175720 46860600 
1383.238 49308476 51253756 52463940 52745496 51990712 50196052 47487620 
1386.614 44117072 40415404 36751728 33422980 30606110 28358918 26641396 
1389.989 25364032 24421726 23723272 23195424 22783188 22451344 22177214 
1393.364 21949572 21767790 21636962 21564318 21554220 21605616 21712226 
1396.739 21865100 22054452 22270396 22503370 22742790 22978426 23202344 
1400.115 23409872 23600878 23778110 23945052 24104386 24257438 24406092 
1403.490 24553816 24707938 24879658 25080370 25319036 25599340 25918228 
1406.865 26269208 26645096 27042008 27459156 27898858 28363408 28853812 
1410.240 29368944 29907054 30466870 31048048 31648822 32261886 32872208 
1413.615 33455900 33984228 34433604 34791932 35063764 35268520 35436664 
1416.991 35602572 35796720 36046280 36372828 36791036 37309864 37928624 
1420.366 38636016 39412728 40235796 41085520 41949536 42830160 43744740 
1423.741 44723540 45798284 46990428 48304300 49725952 51231124 52793496 
1427.116 54393316 56013872 57636212 59236008 60776500 62213188 63504888 
1430.492 64623616 65566168 66354432 67034080 67661160 68290040 68970976 
1433.867 69746856 70660680 71766040 73129136 74820520 76897896 79371808 
1437.242 82199568 85301728 88586984 91967600 95350344 98632752 101673000 
1440.617 104294312 106322104 107590696 107986416 107466592 106051856 
1443.510 103816680 100865496 97329568 93344192 89035504 84533968 79965832 
1446.886 75467192 71200776 67330080 63994408 61275776 59177224 57637576 
1450.261 56562192 55865148 55486796 55400356 55601076 56086476 56840980 
1453.636 57838952 59046168 60436420 62002932 63750176 65682284 67777760 
1457.011 69978104 72196536 74351600 76399464 78330512 80156064 81892816 
1460.387 83555856 85152592 86677784 88115192 89426312 90547112 91402584 
1463.762 91917720 92053152 91830440 91337440 90699584 90029032 89405592 
1467.137 88862632 88400816 88005616 87657328 87331992 86991360 86573992 
1470.512 85990336 85125816 83879608 82207056 80159376 77875504 75529728 
1473.888 73264512 71151000 69207216 67431848 65835788 64458920 63361444 
1477.263 62594920 62189172 62139432 62417880 62990636 63836792 64957224 
1480.638 66371956 68108176 70185400 72605952 75355328 78412144 81758728 
1484.013 85393072 89324176 93557032 98077648 102821376 107648768 112355248 
1487.389 116655728 120212728 122692984 123789888 123303008 121201616 
1490.282 117656304 113014528 107697128 102114752 96561664 91190840 86059120 
1493.657 81149760 76426888 71883824 67557440 63536644 59943320 56887508 
1497.032 54430352 52567556 51249168 50401672 49954360 49854340 50060876 
1500.407 50541496 51265948 52199796 53303976 54538152 55849812 57174588 
1503.783 58431776 59497440 60205060 60348196 59713212 58178368 55805316 
1507.158 52847080 49622756 46378164 43228860 40191524 37247004 34385940 
1510.533 31620030 28992110 26558510 24364000 22436374 20776480 19363866 
1513.908 18168084 17156374 16298251 15564029 14927708 14370225 13881634 
1517.284 13465324 13132017 12891215 12741980 12668422 12640722 12625781 
1520.659 12598732 12558655 12531268 12555517 12661156 12851145 13106780 
1524.034 13398000 13700221 14000565 14304097 14628264 14994686 15416688 
1527.409 15893606 16414680 16966558 17541910 18141794 18775026 19452150 
1530.785 20180276 20960598 21787716 22652472 23545888 24460984 25393926 
1534.160 26340002 27292764 28241046 29171592 30066958 30908808 31681400 
1537.535 32367006 32949914 33415642 33751608 33946432 33993116 33897780 
1540.910 33681168 33376030 33015582 32620606 32193154 31717398 31171668 
1544.286 30541372 29833122 29076776 28316050 27589596 26911734 26272130 
1547.661 25640742 24985354 24287258 23553968 22817794 22125050 21511532 
1551.036 20988034 20540436 20140498 19762360 19394424 19044454 18734028 
1554.411 18485746 18308068 18189436 18099648 17997892 17835430 17558506 
1557.787 17120012 16496859 15722036 14889576 14115284 13476500 12989664 
1561.162 12629055 12352600 12118567 11890824 11643698 11365420 11061216 
1564.537 10750873 10461727 10218025 10029150 9888285 9775998 9671025 9555814 
1568.395 9424414 9283236 9148433 9038029 8963675 8928769 8930258 8963100 
1572.252 9022129 9102210 9196454 9293831 9380430 9444019 9479238 9495561 
1576.109 9516762 9573664 9686914 9861134 10087781 10354416 10652761 10982063 
1579.967 11348890 11763345 12233744 12762999 13346437 13973122 14628915 
1583.342 15295825 15952589 16574476 17131076 17591316 17929446 18129910 
1586.717 18194204 18141966 18012328 17855386 17727870 17687766 17782510 
1590.093 18048698 18508704 19166954 20006516 20983478 22030504 23052600 
1593.468 23939346 24587442 24906536 24842572 24388112 23583736 22509372 
1596.843 21263224 19951838 18664880 17468088 16407557 15507162 14774995 
1600.218 14206992 13791260 13511056 13349410 13294026 13338168 13480192 
1603.594 13720842 14058503 14486413 14992183 15556027 16152140 16750999 
1606.969 17315030 17801600 18168396 18373220 18384728 18187088 17783614 
1610.344 17198532 16474592 15670644 14846510 14054225 13330720 12690427 
1613.719 12131004 11637980 11193214 10780389 10390795 10028132 9706431 
1617.094 9444256 9256766 9149042 9115609 9143357 9214052 9307744 9406264 
1620.952 9493359 9560251 9606319 9640465 9677190 9730387 9808329 9911098 
1624.809 10032947 10166601 10307048 10452257 10601251 10752809 10903910 
1628.185 11050577 11190120 11323654 11456379 11595338 11746766 11912278 
1631.560 12088006 12263873 12427127 12564180 12662350 12713149 12714002 
1634.935 12671186 12599140 12518820 12450892 12407728 12391976 12397464 
1638.310 12412977 12425423 12421911 12394737 12341691 12268747 12186477 
1641.686 12107460 12039937 11984789 11934790 11876590 11795212 11676610 
1645.061 11513264 11307534 11073078 10832939 10614086 10440378 10325845 
1648.436 10273628 10277530 10325166 10398532 10472963 10518448 10496723 
1651.811 10370840 10125731 9794467 9461221 9212123 9087391 9070237 9118012 
1655.669 9188297 9252941 9298909 9323113 9329647 9324568 9313025 9296607 
1659.526 9273048 9238286 9188094 9119839 9033361 8931543 8820382 8708878 
1663.384 8606731 8523530 8465819 8434839 8426866 8432879 8440919 8436494 
1667.241 8406596 8342686 8243461 8115935 7974474 7836567 7716580 7623399 
1671.098 7558896 7520057 7499695 7487087 7469659 7432346 7361872 7252730 
1674.956 7112257 6961897 6827744 6730649 6675969 6655108 6650565 6645048 
1678.813 6627788 6597308 6561919 6533765 6521992 6525692 6531444 6514323 
1682.671 6445815 6305434 6095772 5850275 5622169 5455816 5363756 5331117 
1686.528 5330950 5339034 5338329 5320920 5285702 5236033 5177282 5115186 
1690.385 5057021 5009892 4980396 4972319 4984016 5007277 5026685 5023434 
1694.243 4980196 4889845 4762830 4629088 4525183 4473793 4474463 4505430 
1698.100 4535462 4530775 4466261 4336023 4163203 3994698 3874598 3824521 
1701.958 3836054 3885831 3947884 4002089 4035330 4041617 4022488 3985736 
1705.815 3943939 3908565 3887335 3882688 3892450 3911473 3934443 3957514 
1709.673 3979383 4001687 4027638 4060580 4102222 4152264 4207798 4265348 
1713.530 4321633 4374645 4423045 4464654 4495286 4508008 4495353 4454009 
1717.387 4388636 4314170 4250759 4214490 4212348 4240687 4288704 4343553 
1721.245 4393589 4432250 4457557 4471550 4478547 4482899 4486849 4491403 
1725.102 4496156 4501446 4507974 4516680 4526992 4536868 4542293 4540351 
1728.960 4530172 4515173 4501011 4492875 4491804 4491469 4477476 4430141 
1732.817 4332241 4177688 3982861 3783608 3621966 3523447 3488842 3500699 
1736.675 3534170 3568110 3585483 3577732 3544292 3492249 3432898 3378498 
1740.532 3337594 3313487 3305073 3309280 3322635 3341834 3364807 3390319 
1744.389 3418237 3449330 3484466 3524382 3568444 3614516 3659122 3698252 
1748.247 3728462 3747378 3754296 3749751 3735380 3714326 3690967 3671184 
1752.104 3660458 3663031 3679438 3706305 3736082 3758240 3762785 3742131 
1755.962 3695277 3628515 3554380 3486370 3432898 3394894 3365642 3335757 
1759.819 3294623 3236268 3160164 3072728 2983841 2903878 2840806 2797485 
1763.677 2773041 2763671 2764571 2770373 2775375 2774408 2764238 2744998 
1767.534 2721057 2699986 2689750 2693951 2710088 2729660 2740697 2732361 
1771.391 2700252 2649511 2595208 2555478 2542580 2559444 2599875 2653578 
1775.249 2710922 2767039 2821163 2875460 2932065 2990814 3047902 3097622 
1779.106 3135066 3158061 3168909 3173147 3176852 3184396 3195778 3207961 
1782.964 3217207 3220212 3217207 3210465 3204456 3203021 3208061 3220045 
1786.821 3238304 3262040 3291218 3325507 3362436 3397699 3424115 3433633 
1790.678 3419206 3378531 3315724 3241175 3167140 3104430 3057812 3026313 
1794.536 3004993 2988545 2973132 2956918 2939304 2920357 2899709 2876127 
1798.393 2848844 2817527 2782978 2747299 2712622 2680982 2653311 2629743 
1802.251 2610875 2597675 2591875 2594975 2607108 2626909 2651511 2677215 
1806.108 2701186 2722258 2741097 2759136 2777676 2796451 2813759 2827366 
1809.966 2835637 2838272 2837171 2835437 2835170 2838005 2843341 2850178 
1813.823 2857916 2867421 2881063 2902277 2934034 2977269 3030718 3090380 
1817.680 3151920 3210632 3263709 3309848 3348946 3382438 3411625 3438208 
1821.538 3463023 3486170 3505944 3519739 3524015 3516265 3496591 3468935 
1825.395 3440479 3418838 3409254 3412259 3423247 3433967 3435303 3421978 
1829.253 3394694 3361101 3333220 3322669 3335490 3370617 3420742 3477152 
1833.110 3532166 3581540 3625341 3665804 3706573 3749818 3796644 3846550 
1836.968 3899404 3956243 4019946 4093459 4179963 4280405 4393890 4517483 
1840.825 4646904 4777771 4905125 5024607 5132620 5228521 5315051 5398947 
1844.682 5489907 5595754 5720495 5862029 6013219 6164259 6304829 6427689 
1848.540 6529829 6611606 6675801 6724928 6759052 6775778 6771066 6741855 
1852.397 6687308 6610765 6517620 6413767 6303686 6189096 6069966 5945495 
1856.255 5816189 5684203 5553063 5425653 5303043 5183921 5065871 4947451 
1860.112 4829097 4714092 4607186 4512494 4431547 4363232 4304532 4252766 
1863.969 4206761 4167652 4137043 4115501 4101018 4088341 4071484 4045831 
1867.827 4011318 3973063 3939626 3919331 3916422 3929796 3953602 3980587 
1871.684 4005633 4026100 4042152 4055062 4065530 4072855 4075330 4070815 
1875.542 4058775 4040313 4017706 3992592 3965673 3935245 3898802 3854239 
1879.399 3801590 3742465 3680374 3618124 3556618 3494687 3430226 3361902 
1883.257 3290751 3221146 3158228 3107500 3071426 3048636 3035055 3025412 
1887.114 3015403 3003458 2990146 2977369 2967493 2962089 2961655 2966359 
1890.971 2977135 2994317 3017839 3046433 3076565 3104029 3125721 3140473 
1894.829 3150752 3161599 3178054 3203689 3238104 3278598 3320532 3360767 
1898.686 3398835 3436706 3477419 3523146 3573355 3625408 3674827 3718603 
1902.544 3756034 3788421 3818170 3847018 3874798 3899304 3918093 3930130 
1906.401 3935981 3938556 3940528 3943170 3944641 3941899 3931534 3912878 
1910.259 3888973 3865605 3849124 3844210 3850862 3865872 3883892 3899571 
1914.116 3909668 3912677 3908130 3894657 3870218 3832410 3780968 3719372 
1917.973 3655446 3599113 3558189 3534671 3523547 3515864 3501301 3473244 
1921.831 3430894 3379466 3327477 3282771 3248920 3224952 3206693 3190203 
1925.688 3174282 3160698 3152254 3150719 3153923 3156459 3152454 3138170 
1929.546 3114675 3087010 3063184 3049470 3047902 3055776 3066921 3075631 
1933.403 3078434 3075531 3068924 3060348 3049703 3034855 3013501 2985976 
1937.260 2956418 2932232 2920957 2926161 2945376 2971063 2992982 3002691 
1941.118 2997887 2982640 2965659 2955751 2957786 2970429 2988011 3003725 
1944.975 3013735 3018706 3022343 3029583 3043630 3064185 3088345 3112405 
1948.833 3134298 3153789 3172613 3192106 3211900 3230526 3245381 3255229 
1952.690 3260137 3262474 3264076 3264810 3261806 3250355 3226120 3188201 
1956.548 3139972 3089079 3045065 3014002 2999188 2997720 3004693 3014602 
1960.405 3025212 3036357 3049570 3065019 3080770 3093250 3099090 3097488 
1964.262 3090614 3083639 3081370 3086176 3097321 3110837 3123385 3134932 
1968.120 3148282 3167907 3197146 3234165 3272723 3303638 3318963 3315257 
1971.977 3294089 3262240 3226754 3193341 3164837 3143610 3133864 3145312 
1975.835 3189269 3276829 3411191 3583077 3771943 3949857 4092723 4186754 
1979.692 4230516 4234063 4212081 4178324 4140555 4100717 4057704 4008777 
1983.550 3954137 3896529 3839363 3785814 3737385 3694409 3657183 3628582 
1987.407 3612077 3612077 3630286 3664401 3707909 3752625 3792298 3824922 
1991.264 3852901 3881317 3914616 3953502 3994899 4033089 4064092 4086836 
1995.122 4104497 4122860 4146075 4175213 4207162 4236237 4256614 4265883 
1998.979 4264745 4255778 4241390 4221415 4192642 4151260 4095298 4026969 
2002.837 3952666 3882521 3823585 3781636 3756368 3744805 3743067 3749450 
2006.694 3764256 3788354 3819975 3852968 3878275 3887536 3876102 3846550 
2010.552 3808409 3773113 3750620 3745506 3754831 3772177 3791396 3809078 
2014.409 3826460 3847954 3876002 3909601 3944173 3973565 3993427 4005299 
2018.266 4015565 4032588 4063457 4109648 4166481 4226735 4282614 4329129 
2022.124 4366646 4397104 4422342 4442861 4456754 4461373 4458059 4450427 
2025.981 4444535 4445673 4454377 4466361 4473090 4467164 4446544 4417455 
2029.839 4391916 4383046 4400350 4444602 4509046 4581603 4653000 4718144 
2033.696 4779178 4840723 4907438 4979424 5052027 5118069 5172353 5214202 
2037.553 5246965 5276747 5309080 5345508 5383583 5419446 5448938 5471351 
2041.411 5488464 5503061 5515913 5525612 5528128 5519001 5496987 5464808 
2045.268 5429142 5398444 5380630 5380026 5396431 5427833 5469707 5517323 
2049.126 5565044 5606394 5633414 5638919 5618813 5574072 5512826 5446756 
2052.983 5390695 5355303 5344434 5354129 5374290 5393311 5401832 5397740 
2056.841 5383683 5365568 5348862 5335344 5323705 5311193 5295731 5278491 
2060.698 5263231 5253740 5251761 5255887 5261152 5261420 5254042 5240225 
2064.555 5225369 5216582 5219600 5235999 5262896 5293953 5322497 5344032 
2068.413 5356880 5361676 5360335 5354061 5342992 5327797 5309583 5290633 
2072.270 5274567 5263902 5259006 5258267 5257630 5253606 5244383 5231002 
2076.128 5216281 5203336 5193209 5184290 5172587 5154950 5129334 5097585 
2079.985 5064195 5034998 5014718 5004797 5004160 5009691 5017802 5026115 
2083.843 5033054 5038417 5041467 5041568 5037612 5029802 5019277 5008819 
2087.700 5000607 4995714 4992261 4986496 4973827 4951942 4921512 4887399 
2091.557 4856136 4834156 4824741 4826919 4836468 4848631 4859722 4868902 
2095.415 4877279 4886963 4898725 4911225 4921747 4928349 4931432 4934046 
2099.272 4941117 4956332 4981100 5012573 5045657 5074386 5095909 5110291 
2103.130 5120986 5132553 5147708 5166820 5187878 5207997 5225469 5241499 
2106.987 5258502 5280235 5308141 5342120 5379389 5417701 5455681 5494638 
2110.844 5537122 5585316 5638650 5694140 5745776 5787076 5814980 5829622 
2114.702 5834592 5835902 5839294 5847991 5863339 5884666 5910998 5942270 
2118.559 5978851 6020879 6067076 6114119 6157134 6191482 6214539 6226471 
2122.417 6230437 6230908 6231648 6234807 6240286 6245665 6248757 6247916 
2126.274 6242539 6232690 6217967 6197397 6169569 6133509 6088917 6037778 
2130.132 5983319 5929371 5879662 5836708 5802489 5779017 5768171 5771361 
2133.989 5787915 5815551 5848025 5877882 5898302 5906564 5904280 5897664 
2137.846 5894608 5900250 5915331 5934880 5951776 5958931 5953590 5937534 
2141.704 5917178 5900082 5890846 5890208 5895447 5901493 5905087 5904784 
2145.561 5900653 5893633 5882785 5864985 5835734 5793389 5738087 5674904 
2149.419 5610589 5550076 5495242 5443972 5390426 5328803 5256859 5175169 
2153.276 5086622 4994306 4898926 4799044 4695100 4592988 4508109 4463650 
2157.134 4486983 4599283 4805946 5091249 5420117 5752055 6047387 6281599 
2160.991 6446555 6546883 6593776 6601244 6582843 6549339 6511195 6478335 
2164.848 6457888 6454020 6465253 6484658 6502484 6509513 6499760 6472820 
2168.706 6432834 6385588 6336331 6287919 6239681 6190239 6138785 6086431 
2172.563 6036468 5992423 5957251 5932461 5916406 5906665 5899948 5893432 
2176.421 5884364 5870191 5849032 5820588 5787411 5755547 5733186 5728989 
2180.278 5748160 5790131 5846917 5906733 5956311 5987451 5998370 5994708 
2184.135 5985167 5978616 5980564 5991617 6009658 6031932 6056996 6086162 
2187.993 6120974 6162511 6207985 6252522 6289970 6315890 6328867 6330783 
2191.850 6326312 6319420 6311855 6302946 6291819 6277229 6260858 6246639 
2195.708 6237631 6236824 6243143 6253732 6264220 6272455 6278406 6284557 
2199.565 6293870 6307451 6322244 6332868 6333070 6318243 6289499 6251413 
2203.423 6211917 6178038 6154177 6139491 6131358 6125713 6119395 6113346 
2207.280 6109583 6110322 6117043 6129241 6144632 6161974 6180895 6202943 
2211.137 6230437 6264892 6305703 6350183 6394667 6435827 6472416 6504704 
2214.995 6533765 6560069 6582136 6597275 6602489 6596972 6582136 6562154 
2218.852 6542006 6525692 6514727 6508202 6503123 6497372 6490645 6484288 
2222.710 6480791 6481732 6486811 6493470 6498582 6499457 6495286 6488190 
2226.567 6481161 6476587 6475746 6477596 6480118 6481396 6480791 6479109 
2230.425 6477562 6477327 6478134 6478706 6477663 6474233 6469591 6465892 
2234.282 6465421 6469457 6477427 6487215 6496934 6505477 6513751 6523977 
2238.139 6538507 6557883 6580185 6601984 6619075 6628966 6632061 6630783 
2241.997 6629336 6631556 6638857 6650599 6665101 6680040 6694172 6708002 
2245.854 6722572 6738557 6755787 6772783 6787658 6799674 6808694 6816267 
2249.712 6824177 6833298 6842723 6851239 6856961 6859452 6860530 6863694 
2253.569 6872446 6889378 6914526 6944759 6975701 7002638 7022337 7033618 
2257.427 7037457 7035033 7028029 7016983 7002167 6983849 6962974 6941561 
2261.284 6922000 6907254 6899107 6899175 6908163 6926411 6953816 6989843 
2265.141 7032608 7079318 7125797 7167801 7201824 7226855 7243498 7254751 
2268.999 7263916 7273249 7283559 7294476 7303776 7309538 7311290 7309437 
2272.856 7305629 7301586 7299092 7299294 7302361 7308460 7317120 7327364 
2276.714 7338046 7347550 7354053 7356851 7355705 7352301 7350144 7352402 
2280.571 7362074 7380306 7406426 7438042 7471952 7505257 7535970 7562875 
2284.428 7585094 7601818 7612744 7616722 7613722 7604954 7592141 7578283 
2288.286 7566381 7558727 7556367 7559436 7566786 7576833 7588398 7600402 
2292.143 7611766 7622219 7631459 7639653 7647375 7655435 7664709 7675838 
2296.001 7688654 7702144 7715399 7727272 7737289 7746228 7755166 7764847 
2299.858 7775540 7786166 7794566 7798445 7796252 7787246 7772707 7754559 
2303.716 7734996 7715871 7698266 7682279 7668014 7655300 7644475 7635741 
2307.573 7629300 7624444 7620331 7615913 7610552 7604111 7597536 7591703 
2311.430 7587387 7584858 7583037 7580947 7578013 7573765 7568977 7564763 
2315.288 7561964 7560986 7561593 7562571 7562875 7562032 7560008 7557986 
2319.145 7556974 7558458 7563313 7571641 7582869 7595210 7605865 7610720 
2323.003 7604921 7584420 7546084 7489616 7417616 7336125 7251887 7172247 
2326.860 7103129 7047291 7004928 6973816 6951190 6934423 6922135 6913920 
2330.718 6910049 6910587 6914998 6922202 6931629 6942874 6956442 6972974 
2334.575 6992840 7015199 7038602 7060829 7080429 7096898 7111381 7125763 
2338.432 7141561 7159211 7177906 7195861 7211223 7223183 7232448 7240971 
2342.290 7250675 7263511 7279617 7298924 7321669 7349369 7385227 7433525 
2346.147 7498212 7580980 7680391 7791766 7908096 8021825 8125455 8213307 
2350.005 8281858 8330155 8359236 8372376 8374268 8369134 8361331 8353866 
2353.862 8348191 8344847 8343631 8344442 8348056 8355893 8369775 8392205 
2357.719 8424940 8468658 8523057 8586520 8656821 8731157 8806755 8881183 
2361.577 8952310 9019219 9081267 9139127 9194051 9247865 9302294 9358524 
2365.434 9416896 9477104 9537998 9598087 9656219 9710903 9760884 9804566 
2369.292 9840492 9867506 9885437 9895742 9901030 9904996 9912081 9926556 
2373.149 9951169 9988360 10039425 10104941 10185630 10282313 10394935 
2376.524 10523133 10665766 10820981 10986345 11160032 11340285 11526329 
2379.900 11717661 11913811 12113763 12316329 12519434 12720894 12918385 
2383.275 13109717 13291976 13462351 13617509 13754220 13869866 13963130 
2386.650 14033897 14083898 14115388 14131065 14133186 14123431 14102655 
2390.025 14071576 14030440 13979658 13919814 13851223 13774193 13689381 
2393.401 13597509 13500050 13399161 13297579 13198002 13103160 13015406 
2396.776 12936443 12868211 12812547 12771256 12746177 12738227 12747303 
2400.151 12772246 12810977 12861623 12923130 12995195 13078847 13175186 
2403.526 13285247 13408696 13544794 13692356 13850470 14018805 14197988 
2406.902 14388412 14590193 14802215 15022675 15248944 15479005 15712073 
2410.277 15948154 16188078 16432196 16679617 16928214 17174230 17413246 
2413.652 17640626 17852036 18043516 18211930 18354242 18468422 18553760 
2417.027 18611132 18643366 18654018 18647896 18628322 18597782 18556974 
2420.403 18505902 18443808 18371076 18288748 18198972 18104344 18007250 
2423.778 17909766 17813680 17720380 17632136 17551466 17481540 17425938 
2427.153 17388206 17370928 17376240 17405830 17460498 17540634 17645630 
2430.528 17774122 17923404 18090700 18273060 18468042 18674876 18893436 
2433.904 19124432 19368888 19627212 19899388 20185724 20486352 20802272 
2437.279 21135016 21485908 21855900 22245180 22652368 23076044 23514650 
2440.654 23967812 24435466 24918852 25419676 25939296 26479122 27040140 
2444.029 27622646 28226408 28850766 29493330 30151194 30820370 31497314 
2447.405 32178346 32861448 33545632 34231072 34917736 35604696 36289720 
2450.780 36969296 37638916 38293720 38929036 39539984 40122176 40670800 
2454.155 41180808 41646008 42060564 42418156 42711800 42935816 43084344 
2457.530 43153100 43139344 43041684 42860400 42596952 42253056 41830544 
2460.906 41331144 40757228 40111968 39400136 38628848 37806212 36941372 
2464.281 36044336 35124400 34190488 33251460 32315102 31389878 30484356 
2467.656 29606752 28765188 27967692 27220442 26528394 25894876 25320864 
2471.031 24805594 24346442 23939906 23580904 23264318 22984890 22737412 
2474.406 22517330 22320866 22144088 21984076 21837226 21700664 21571908 
2477.782 21448798 21330384 21216354 21106910 21001700 20900272 20801194 
2481.157 20702244 20601824 20498822 20392960 20285564 20178504 20073694 
2484.532 19972480 19875766 19783616 19696376 19614488 19538406 19469094 
2487.907 19406896 19351116 19300644 19253744 19208616 19164668 19122042 
2491.283 19081636 19044626 19011462 18981798 18954626 18928426 18901984 
2494.658 18874332 18845610 18815334 18783572 18749390 18711716 18669412 
2498.033 18622268 18570220 18514444 18456598 18397552 18337652 18276652 
2501.408 18213658 18148220 18080406 18011086 17942188 17875342 17812334 
2504.784 17754378 17701638 17654222 17611812 17574306 17540944 17510966 
2508.159 17483438 17456738 17429180 17399518 17366274 17328720 17286134 
2511.534 17238040 17183812 17123112 17055702 16981650 16901860 16817192 
2514.909 16728789 16637716 16544392 16449194 16352711 16255733 16159911 
2518.285 16067514 15981017 15902577 15833706 15774947 15726434 15687304 
2521.660 15656697 15633615 15617127 15606376 15600160 15597893 15598683 
2525.035 15602323 15608574 15617779 15630042 15645258 15663395 15684143 
2528.410 15706919 15731828 15758798 15787626 15818242 15849788 15881646 
2531.786 15912957 15943514 15973281 16003190 16033890 16065899 16099527 
2535.161 16134154 16169265 16204622 16240701 16278230 16318651 16363136 
2538.536 16412031 16465301 16521813 16580535 16640436 16701171 16762294 
2541.911 16823840 16885428 16946336 17005874 17063248 17118150 17170954 
2545.287 17222456 17273758 17325684 17378688 17432594 17487094 17541462 
2548.662 17594836 17646422 17695152 17740294 17781300 17818134 17851346 
2552.037 17882004 17911456 17940772 17969988 17998928 18026350 18050976 
2555.412 18072082 18090044 18105312 18119200 18132190 18143968 18153296 
2558.788 18158308 18157028 18148288 18131600 18107522 18076710 18039994 
2562.163 17997444 17948888 17894296 17833668 17767874 17698636 17627582 
2565.538 17556884 17488232 17422868 17361722 17305652 17255242 17211218 
2568.913 17174264 17144206 17120976 17104192 17093370 17088304 17088958 
2572.289 17095678 17108638 17127972 17153168 17183640 17218734 17257966 
2575.664 17300928 17347824 17398520 17452980 17510758 17571374 17634034 
2579.039 17698188 17763594 17829872 17897024 17964668 18032706 18100718 
2582.414 18169018 18238018 18308828 18382552 18460300 18543004 18630776 
2585.790 18723132 18818968 18916968 19015132 19111898 19205638 19295100 
2589.165 19379698 19459600 19535356 19608250 19679664 19750362 19820690 
2592.540 19890370 19958950 20025704 20090664 20154208 20217590 20281778 
2595.915 20347610 20415916 20486420 20558814 20632956 20708952 20787360 
2599.291 20869258 20955972 21048614 21148062 21254872 21368842 21489460 
2602.666 21615960 21746818 21880954 22017154 22155070 22294810 22437072 
2606.041 22583046 22733536 22889178 23049700 23213950 23380394 23547250 
2609.416 23712740 23874998 24032242 24182430 24323140 24452114 24567526 
2612.792 24667746 24752696 24822574 24878430 24921134 24951278 24969072 
2616.167 24974546 24967806 24949522 24921028 24884150 24841308 24794754 
2619.542 24746592 24698432 24651824 24607744 24566894 24529800 24495898 
2622.917 24464594 24435114 24406898 24379842 24354678 24333126 24317112 
2626.292 24308702 24309192 24319004 24337858 24364772 24398698 24438900 
2629.668 24484716 24535830 24592034 24652840 24717724 24785914 24856956 
2633.043 24930222 25005782 25083600 25163750 25246372 25331294 25418622 
2636.418 25508322 25600676 25696142 25795076 25897408 26003072 26111154 
2639.793 26220846 26330462 26438766 26544350 26646470 26744352 26838414 
2643.169 26929006 27017326 27104534 27191972 27280556 27370960 27463568 
2646.544 27558422 27655696 27755290 27857768 27963202 28072056 28184190 
2649.919 28299606 28418202 28539942 28665186 28794502 28928674 29068202 
2653.294 29213658 29365152 29522446 29685366 29853528 30026870 30205678 
2656.670 30389786 30579302 30774380 30974670 31179642 31389058 31602212 
2660.045 31818212 32036032 32254356 32472328 32688976 32904446 33118914 
2663.420 33333168 33548206 33764572 33982404 34201636 34421660 34642552 
2666.795 34864268 35087648 35313512 35542844 35776100 36013380 36254492 
2670.171 36499020 36746752 36997404 37250692 37506252 37763380 38020984 
2673.546 38277764 38532628 38784492 39032628 39276296 39514836 39747516 
2676.921 39973496 40192396 40404348 40610440 40812368 41012500 41213524 
2680.296 41417956 41628508 41847544 42077756 42321972 42583064 42863360 
2683.672 43164996 43488372 43833284 44198316 44581756 44981632 45396224 
2687.047 45824132 46264148 46715200 47176468 47647328 48127580 48617372 
2690.422 49117360 49628212 50149900 50682484 51225344 51777808 52339496 
2693.797 52910440 53490536 54080524 54680184 55289404 55907168 56532792 
2697.173 57165556 57804844 58450460 59102352 59759708 60421640 61086188 
2700.548 61751680 62416348 63078904 63738204 64393052 65041692 65681740 
2703.923 66309920 66922432 67515520 68085352 68628144 69140416 69618136 
2707.298 70056976 70453000 70802192 71101824 71350072 71546744 71692248 
2710.674 71787968 71835584 71836680 71793288 71707144 71579832 71412360 
2714.049 71204944 70956904 70667264 70334664 69958208 69538336 69076712 
2717.424 68575992 68039472 67471088 66874660 66253768 65612636 64955644 
2720.799 64287536 63613816 62940040 62271996 61615452 60975524 60357332 
2724.175 59765188 59202856 58672960 58177612 57717876 57294040 56906320 
2727.550 56554528 56239048 55960456 55719076 55515520 55349732 55220956 
2730.925 55127724 55068668 55042152 55046628 55081116 55144356 55235064 
2734.300 55351764 55492664 55655384 55837716 56037240 56251568 56478676 
2737.676 56715872 56960300 57208492 57456908 57701524 57938860 58165376 
2741.051 58378480 58576292 58757848 58923196 59073844 59211896 59340264 
2744.426 59462404 59581464 59700284 59821044 59945412 60074456 60208484 
2747.801 60347544 60491220 60638488 60788164 60938960 61089888 61240292 
2751.177 61390448 61541456 61695112 61853672 62020552 62199116 62392900 
2754.552 62605604 62840232 63098556 63380876 63685596 64009956 64349324 
2757.927 64699596 65056316 65415524 65773792 66127576 66472344 66803156 
2761.302 67114160 67398952 67651832 67867584 68042064 68172496 68256696 
2764.677 68293768 68283368 68226760 68126480 67986376 67811656 67607696 
2768.053 67380304 67134816 66876128 66608748 66337480 66066852 65801516 
2771.428 65545784 65303056 65075560 64864420 64670028 64491676 64328648 
2774.803 64180164 64044788 63921088 63806392 63697340 63589460 63477852 
2778.178 63356496 63219652 63061124 62874852 62656008 62400476 62106748 
2781.554 61775056 61408424 61012284 60593036 60158288 59715152 59269920 
2784.929 58827616 58392508 57967256 57553740 57153200 56766316 56393324 
2788.304 56033888 55687436 55353232 55030268 54717912 54415740 54123496 
2791.679 53841312 53569656 53308960 53059912 52822720 52597324 52382852 
2795.055 52177904 51980552 51788148 51597728 51406684 51212108 51011512 
2798.430 50802920 50584976 50356796 50118212 49869428 49610944 49343144 
2801.805 49066052 48779756 48483536 48177148 47860360 47534160 47200036 
2805.180 46860192 46517256 46174332 45833852 45498276 45169980 44851412 
2808.556 44544748 44252648 43977172 43720044 43482404 43264368 43065428 
2811.931 42884612 42720468 42571696 42436716 42314412 42203828 42104408 
2815.306 42016324 41940560 41878156 41830836 41800628 41788772 41796360 
2818.681 41824304 41873012 41943404 42037020 42155448 42300788 42474640 
2822.057 42677656 42909080 43166496 43446476 43744376 44055240 44374508 
2825.432 44697356 45019672 45337260 45645732 45940796 46218080 46472856 
2828.807 46701104 46898948 47062832 47190248 47279164 47329304 47340868 
2832.182 47315744 47256960 47168048 47053380 46918364 46768184 46608652 
2835.558 46445380 46283020 46125916 45976892 45837608 45708712 45591264 
2838.933 45485912 45394860 45321076 45268744 45242412 45247232 45288196 
2842.308 45370808 45500888 45685704 45934352 46257292 46666720 47174884 
2845.683 47791448 48521844 49363080 50302216 51311884 52352240 53372760 
2849.059 54310816 55105152 55698512 56043724 56113132 55898800 55414396 
2852.434 54689728 53769604 52707748 51557432 50372724 49202220 48083460 
2855.809 47046476 46110144 45282608 44563768 43945824 43416888 42961932 
2859.184 42565408 42213248 41892280 41592108 41304684 41023496 40745148 
2862.560 40467556 40190724 39916208 39646188 39383560 39131240 38892180 
2865.935 38669736 38466772 38286740 38132604 38007132 37911920 37847168 
2869.310 37811744 37803032 37816948 37849412 37895396 37950324 38009880 
2872.685 38070460 38129924 38186832 38242084 38297340 38356440 38423220 
2876.061 38501708 38595492 38707296 38838732 38990580 39162388 39353084 
2879.436 39560928 39783320 40017096 40259024 40505964 40755772 41006820 
2882.811 41258668 41511240 41764476 42018148 42271644 42523712 42773408 
2886.186 43019844 43262904 43502252 43738108 43970316 44198500 44422220 
2889.562 44640908 44854200 45062452 45266388 45467036 45665940 45864308 
2892.937 46063464 46264408 46467948 46674320 46883740 47095808 47310568 
2896.312 47527576 47747140 47969216 48193808 48420004 48646168 48869260 
2899.687 49086012 49292848 49486864 49666812 49833080 49987708 50133496 
2903.063 50274056 50412944 50553632 50700100 50856632 51027904 51219792 
2906.438 51437380 51685872 51969908 52293596 52660536 53074816 53540984 
2909.813 54063636 54647416 55294896 56007008 56780856 57610412 58484428 
2913.188 59386948 60298968 61195888 62050020 62834568 63522840 64093672 
2916.563 64534648 64842144 65022716 65089764 65061784 64956220 64786212 
2919.939 64558520 64271936 63918056 63484372 62958764 62331660 61599912 
2923.314 60768004 59847964 58858156 57819456 56755064 55686720 54632796 
2926.689 53609012 52627136 51695204 50818828 50000792 49242636 48544592 
2930.064 47906756 47329340 46813136 46359288 45969196 45644040 45384748 
2933.440 45191156 45062600 44997692 44993944 45047972 45155348 45309748 
2936.815 45502988 45725424 45965804 46212364 46454752 46683728 46893300 
2940.190 47080596 47244992 47388056 47512648 47621632 47717368 47800660 
2943.565 47870460 47923776 47955188 47957520 47923552 47846900 47723912 
2946.941 47555784 47348444 47113204 46863624 46615476 46382884 46176212 
2950.316 46001684 45860184 45748360 45659496 45584932 45515752 45443124 
2953.691 45359956 45260872 45142296 45002800 44842260 44661696 44462448 
2957.066 44246120 44014500 43768744 43510456 43241160 42962920 42677988 
2960.442 42388708 42097508 41806644 41518532 41235308 40959700 40694708 
2963.817 40443368 40208932 39994096 39800972 39630800 39483884 39359468 
2967.192 39256420 39172320 39104120 39047996 38999640 38953932 38905768 
2970.567 38850652 38784748 38705412 38611572 38503300 38382248 38251456 
2973.943 38115204 37979140 37849268 37731504 37630176 37546676 37478368 
2977.318 37417800 37353376 37269568 37150484 36981096 36749564 36450224 
2980.693 36083328 35655840 35179152 34669288 34143996 33619768 33112374 
2984.068 32634322 32193940 31796608 31445194 31140448 30882838 30673026 
2987.444 30512008 30399806 30334068 30307954 30307386 30312324 30297152 
2990.819 30232248 30092134 29857112 29518366 29079964 28558486 27980378 
2994.194 27374558 26770958 26193958 25659128 25174072 24738978 24348826 
2997.569 23996000 23672848 23373294 23092538 22827642 22577078 22339388 
3000.945 22113580 21898342 21692024 21492802 21298786 21108474 20920436 
3004.320 20734252 20550198 20369276 20193014 20023206 19861268 19707920 
3007.695 19563500 19427338 19298876 19176858 19060484 18948604 18840558 
3011.070 18735308 18632090 18530488 18430532 18332676 18237948 18147460 
3014.446 18062652 17984250 17912770 17848308 17790622 17739536 17694738 
3017.821 17656018 17622544 17593146 17566198 17539460 17510620 17477746 
3021.196 17439182 17394034 17341720 17281962 17214908 17140690 17059804 
3024.571 16973588 16883636 16792808 16703824 16619883 16543532 16476450 
3027.947 16419223 16371118 16330726 16295189 16261168 16225051 16183401 
3031.322 16133089 16072156 15999580 15915466 15820958 15718291 15609536 
3034.697 15497306 15384075 15272212 15163980 15061333 14965946 14879289 
3038.072 14802111 14734820 14677375 14629464 14590501 14559457 14535439 
3041.448 14516733 14501795 14488743 14475965 14462261 14446882 14429514 
3044.823 14410298 14389131 14366253 14341560 14315431 14288448 14261705 
3048.198 14236471 14213772 14194326 14177242 14161187 14143661 14122439 
3051.573 14095535 14062028 14021576 13974799 13922449 13865351 13804189 
3054.948 13739924 13673413 13605851 13539017 13474005 13411839 13353168 
3058.324 13297784 13245482 13195987 13148888 13103980 13061057 13019571 
3061.699 12978569 12937535 12896027 12854354 12813468 12774806 12739694 
3065.074 12708714 12681454 12656994 12633797 12610670 12587032 12563293 
3068.449 12540544 12519673 12501667 12486355 12473295 12461872 12451370 
3071.825 12441516 12432685 12425082 12419115 12414921 12412193 12410795 
3075.200 12410421 12410898 12412160 12414069 12416183 12417853 12418160 
3078.575 12416251 12411512 12403636 12392828 12379396 12363612 12346259 
3081.950 12327681 12308524 12289402 12270928 12253239 12236505 12220317 
3085.326 12204334 12188044 12171620 12155570 12140407 12127051 12115943 
3088.701 12106949 12099829 12093934 12088858 12084804 12081874 12080545 
3092.076 12080953 12082862 12085383 12087665 12088994 12089198 12089232 
3095.451 12090050 12093150 12099624 12110015 12124155 12141327 12160545 
3098.827 12180719 12200790 12219737 12236846 12251944 12264827 12276143 
3102.202 12287186 12298639 12311694 12326727 12343430 12360781 12377725 
3105.577 12392964 12405852 12416455 12425150 12432583 12439402 12446358 
3108.952 12453688 12461804 12471352 12483014 12497405 12515239 12536657 
3112.328 12561384 12588670 12617253 12646112 12674017 12700219 12723999 
3115.703 12745256 12764466 12782313 12799785 12818076 12837869 12859166 
3119.078 12880941 12902001 12920570 12936067 12948664 12959724 12971331 
3122.453 12985738 13004446 13027526 13053852 13081032 13106883 13129661 
3125.829 13148854 13165316 13180583 13196670 13215183 13236874 13261504 
3129.204 13288253 13315550 13341995 13366460 13388603 13408490 13427047 
3132.579 13445673 13465632 13488121 13513927 13542914 13574705 13608449 
3135.954 13643288 13678678 13714207 13749671 13784898 13819444 13852591 
3139.330 13883550 13912048 13937777 13961351 13983832 14005903 14028558 
3142.705 14052411 14077703 14104982 14134659 14167520 14204049 14244483 
3146.080 14288481 14334814 14381939 14428589 14473910 14517966 14561684 
3149.455 14606196 14652527 14701057 14751033 14801632 14851653 14900275 
3152.831 14947392 14993452 15039242 15085517 15133067 15181823 15231922 
3156.206 15283298 15336017 15390597 15447211 15506440 15568459 15632858 
3159.581 15699603 15768144 15837898 15908524 15979435 16050290 16121019 
3162.956 16191276 16261788 16332757 16404839 16478378 16553376 16629832 
3166.332 16707335 16785266 16863072 16940134 17016038 17089990 17161130 
3169.707 17228248 17290136 17346066 17395380 17438492 17475882 17508448 
3173.082 17536942 17561852 17583070 17600460 17613814 17622992 17628480 
3176.457 17631204 17632620 17634172 17637866 17645008 17656188 17671926 
3179.833 17691630 17714236 17738638 17763284 17787206 17809918 17831460 
3183.208 17852348 17873616 17896196 17921056 17949164 17981348 18018026 
3186.583 18059612 18105762 18155818 18208162 18261238 18313354 18363472 
3189.958 18411486 18457982 18504624 18552722 18603454 18657340 18713930 
3193.333 18772154 18830904 18889006 18945696 19000628 19053800 19105110 
3196.709 19155284 19204772 19254712 19306358 19360610 19417844 19477724 
3200.084 19538614 19598994 19656816 19711110 19762046 19810736 19859256 
3203.459 19909414 19962628 20019390 20079142 20140950 20203740 20266920 
3206.834 20330108 20393168 20455820 20518100 20579310 20639140 20697624 
3210.210 20755036 20811900 20868982 20927182 20986990 21048650 21111848 
3213.585 21176448 21242172 21308322 21374692 21440896 21506172 21570378 
3216.960 21633374 21695264 21756118 21816006 21874716 21931936 21986968 
3220.335 22039882 22091196 22142378 22195172 22251736 22313784 22381634 
3223.711 22454762 22531462 22609538 22686754 22761714 22833264 22901822 
3227.086 22967912 23032334 23095822 23159180 23222686 23286378 23350426 
3230.461 23414698 23479150 23543998 23609274 23675578 23742974 23811502 
3233.836 23880600 23949604 24017500 24083372 24146734 24207758 24267460 
3237.212 24327100 24387972 24451168 24517282 24586424 24658522 24733088 
3240.587 24810050 24888956 24969282 25049796 25129202 25205744 25278400 
3243.962 25347172 25412826 25477470 25543812 25613890 25689428 25770708 
3247.337 25856578 25945278 26035192 26124456 26212188 26298178 26382392 
3250.713 26465424 26547766 26630018 26712746 26796402 26881488 26968246 
3254.088 27056680 27146612 27237478 27328790 27419732 27509282 27596764 
3257.463 27681266 27762462 27840210 27914722 27986492 28056682 28126246 
3260.838 28196458 28267744 28340384 28414132 28488248 28562200 28635208 
3264.214 28706778 28776588 28844498 28910578 28974932 29038232 29101008 
3267.589 29163902 29227302 29291346 29355404 29419042 29481308 29541312 
3270.964 29598558 29653188 29704948 29754624 29802140 29847566 29890938 
3274.339 29932256 29971554 30009792 30047464 30085600 30124842 30165578 
3277.715 30207880 30251644 30296834 30343022 30390424 30438578 30487624 
3281.090 30536892 30585914 30634054 30680954 30726758 30771856 30817098 
3284.465 30863308 30911086 30960934 31012390 31064848 31117454 31169676 
3287.840 31221156 31271894 31322390 31373314 31425140 31477862 31530838 
3291.216 31583540 31634924 31684570 31732618 31779814 31827412 31876974 
3294.591 31929356 31984884 32043204 32103494 32164610 32226126 32287836 
3297.966 32350764 32415270 32482468 32552316 32624390 32697476 32770328 
3301.341 32841832 32911200 32978260 33043574 33108260 33173594 33241264 
3304.717 33312634 33388448 33469286 33554580 33643576 33735204 33828392 
3308.092 33923140 34020100 34120340 34225156 34335160 34449960 34567984 
3311.467 34687016 34804892 34920536 35034416 35148288 35264852 35386912 
3314.842 35516196 35653360 35797904 35948008 36102484 36259932 36419564 
3318.218 36580980 36743652 36907140 37070580 37233468 37395516 37557048 
3321.593 37718960 37882164 38047456 38214548 38382860 38550736 38716824 
3324.968 38879388 39037264 39190232 39338356 39482720 39624268 39764804 
3328.343 39905312 40046340 40187668 40327916 40465152 40596724 40720436 
3331.719 40834464 40938148 41031288 41113892 41186092 41247516 41297252 
3335.094 41335372 41361940 41378012 41385700 41387048 41383732 41376592 
3338.469 41365036 41348016 41323564 41290328 41247624 41195088 41133048 
3341.844 41061516 40980200 40888888 40786816 40673276 40548156 40411476 
3345.219 40264004 40106332 39939640 39764948 39583468 39396004 39203288 
3348.595 39005440 38801956 38592196 38375916 38152648 37923092 37688352 
3351.970 37450088 37209716 36968504 36726956 36484964 36243040 36001316 
3355.345 35760524 35521952 35286416 35054456 34825784 34599492 34374568 
3358.720 34150588 33927728 33707132 33490796 33280436 33077400 32882250 
3362.096 32694190 32512210 32334662 32159972 31987206 31815610 31645224 
3365.471 31476368 31310278 31147996 30991002 30840256 30695782 30556906 
3368.846 30421556 30287632 30152898 30015934 29876492 29735604 29594622 
3372.221 29455032 29317756 29182896 29049674 28917236 28784872 28652056 
3375.597 28519208 28386968 28256038 28127378 28001510 27879566 27762036 
3378.972 27649270 27541370 27437414 27335494 27233106 27127670 27017220 
3382.347 26900734 26778712 26652812 26525152 26398236 26273398 26151480 
3385.722 26032482 25916188 25802074 25689956 25579482 25470514 25362416 
3389.098 25254626 25146370 25037160 24926958 24815978 24704990 24594946 
3392.473 24486958 24381384 24278672 24178578 24080676 23984304 23888616 
3395.848 23792636 23695906 23598046 23499924 23402282 23306760 23214404 
3399.223 23125594 23040020 22956278 22872064 22785736 22696038 22602764 
3402.599 22507104 22410730 22315844 22223628 22134780 22048456 21963164 
3405.974 21876842 21787264 21693278 21594648 21492000 21387222 21282988 
3409.349 21181806 21085970 20996588 20913240 20834530 20758060 20681012 
3412.724 20601582 20518518 20431614 20341984 20250638 20158686 20066616 
3416.100 19974668 19882426 19789824 19696860 19603950 19511858 19421102 
3419.475 19332062 19244288 19157848 19071734 18985674 18899526 18813536 
3422.850 18728354 18644646 18563062 18484224 18408304 18335268 18265040 
3426.225 18196934 18130460 18064898 17999410 17933348 17866294 17797802 
3429.601 17727248 17654464 17579136 17501272 17421524 17340996 17261276 
3432.976 17184364 17111256 17042572 16977688 16914846 16852186 16787538 
3436.351 16720282 16651144 16581774 16514791 16452223 16395170 16342733 
3439.726 16292574 16241217 16185498 16123356 16054690 15981292 15905740 
3443.102 15831266 15760034 15692353 15626986 15561214 15492602 15419367 
3446.477 15341613 15260715 15179764 15101847 15029192 14962550 14901029 
3449.852 14842636 14784970 14726045 14664625 14600781 14534480 14466817 
3453.227 14398585 14329986 14261466 14193196 14125485 14058366 13992148 
3456.603 13926452 13861143 13795672 13729083 13661205 13591355 13519259 
3459.978 13444887 13367895 13288663 13208010 13127133 13047945 12972457 
3463.353 12902411 12838654 12780777 12726933 12674700 12621585 12565851 
3466.728 12506509 12444005 12379396 12313364 12246900 12179560 12111446 
3470.104 12042015 11971300 11899848 11828169 11756911 11686175 11615654 
3473.479 11544839 11473253 11400964 11328653 11257409 11188352 11122297 
3476.854 11059788 11000481 10944140 10889844 10836709 10783922 10730053 
3480.229 10673984 10614323 10550733 10483383 10413465 10343218 10274578 
3483.604 10209409 10148150 10090223 10034067 9978053 9920895 9862320 9802364 
3487.462 9742111 9682341 9623189 9564383 9505009 9444900 9383816 9322605 
3491.319 9262554 9205118 9151478 9102007 9056095 9012623 8969831 8925996 
3495.177 8879966 8830965 8779605 8726694 8673993 8623495 8576720 8534816 
3499.034 8498019 8465110 8434162 8402677 8367512 8327453 8281385 8229987 
3502.892 8175186 8119783 8066649 8017977 7975182 7937959 7905396 7875299 
3506.749 7845440 7813794 7778846 7739785 7697187 7651928 7605325 7559166 
3510.606 7514663 7472929 7434941 7401438 7373061 7349774 7331307 7316075 
3514.464 7301957 7286255 7266477 7240938 7209303 7172853 7134150 7095989 
3518.321 7061098 7031194 7006107 6984254 6963345 6940483 6912877 6879078 
3522.179 6838111 6790755 6738456 6683573 6628528 6575677 6526197 6480656 
3526.036 6438349 6398164 6358891 6319252 6278406 6236320 6193096 6148564 
3529.894 6103030 6056761 6010094 5964070 5920168 5879427 5842887 5810145 
3533.751 5779722 5748831 5714821 5675676 5630762 5581255 5529672 5479471 
3537.608 5433235 5392741 5358154 5328434 5301701 5276479 5251258 5225469 
3541.466 5198810 5171648 5144187 5116527 5088600 5059267 5027657 4992429 
3545.323 4952009 4906097 4855332 4801926 4748828 4699454 4656047 4619410 
3549.181 4587965 4558498 4527494 4491536 4449456 4402024 4352054 4303127 
3553.038 4258655 4220579 4188962 4162802 4140656 4120853 4102690 4085665 
3556.896 4069243 4052754 4034694 4013927 3989081 3960423 3928425 3895827 
3560.753 3865170 3839430 3820577 3809412 3805434 3806270 3808042 3805902 
3564.610 3793736 3766261 3718904 3650634 3564135 3466564 3368480 3279500 
3568.468 3207460 3155959 3123552 3105698 3096687 3091081 3084474 3074563 
3572.325 3060648 3043264 3023377 3002191 2980738 2959187 2937703 2916754 
3576.183 2895806 2875226 2854714 2834303 2814259 2794650 2775642 2757602 
3580.040 2739996 2723558 2708288 2694851 2684282 2677481 2675414 2677881 
3583.897 2682982 2686983 2684716 2669980 2637743 2585675 2515718 2434075 
3587.755 2351349 2278664 2224741 2193902 2185377 2194169 2213151 2234533 
3591.612 2251785 2259978 2256015 2239362 2211186 2174155 2131966 2088981 
3595.470 2048997 2015375 1989910 1972602 1962017 1954628 1946507 1934093 
3599.327 1915089 1889630 1859780 1830299 1805477 1789673 1784949 1791436 
3603.185 1807540 1830565 1857451 1884372 1907767 1923176 1927037 1915355 
3607.042 1887367 1844707 1792967 1740368 1695793 1664859 1648627 1642940 
3610.899 1640745 1634160 1617630 1589894 1554811 1519431 1491236 1475743 
3614.757 1474180 1483789 1498385 1510720 1514178 1503006 1474513 1428535 
3618.614 1368768 1301664 1236066 1181375 1144897 1129814 1135229 1157156 
3622.472 1189183 1225367 1261819 1297377 1333104 1370596 1409487 1445689 
3626.329 1471155 1473947 1441965 1368435 1257266 1126659 1002566 910781 
3630.187 864266 860979 887606 927251 965305 991440 1001835 998547 987422 
3634.526 974936 966102 962151 961686 961586 958697 951624 941297 930339 
3638.866 921208 916127 915297 917787 921606 925059 928413 932962 941529 
3643.205 957037 981112 1013227 1050193 1086531 1115895 1132107 1130578 
3647.063 1108786 1067630 1009607 938275 858821 777158 700687 638066 598216 
3651.402 586238 603757 646163 704902 767930 822568 858124 866723 846670 
3655.742 803282 748081 694547 653961 632890 631762 646528 671682 701981 
3660.082 732946 761756 786817 807763 824859 838935 851119 863270 877347 
3664.421 896205 922436 958431 1005322 1062582 1126758 1192273 1252315 
3668.279 1302428 1344072 1388146 1456360 1577490 1775932 2066808 2451202 
3672.136 2921224 3462823 4059845 4692621 5326858 5908580 6367700 6627553 
3675.993 6638588 6396483 5939482 5325985 4617266 3871589 3138637 2464331 
3679.851 1887733 1431028 1098422 874823 734141 647955 592973 557075 536141 
3684.190 530534 540122 560923 584015 598979 595429 567957 517232 450558 
3688.530 378787 312599 258887 219601 193479 178463 173557 178430 193181 
3692.870 216386 245460 276624 305901 330505 348577 360316 367413 372254 
3697.209 377063 383463 391323 399349 404257 402102 389499 364726 329145 
3701.549 287698 248145 218109 203225 205545 223181 251361 284615 318369 
3705.888 350169 379417 407209 434272 460741 484623 502105 508839 500446 
3710.228 474705 432017 376798 316578 260810 218441 196131 196794 218275 
3714.568 255505 300696 346289 384889 412482 427805 433078 432448 430690 
3718.907 431486 435500 441967 448866 454704 459314 464190 471056 480875 
3723.247 492418 502901 507280 501740 484756 457756 426379 398553 382767 
3727.586 384922 407010 446545 497228 550804 598149 632160 649116 649548 
3731.926 638299 622736 608535 597353 585574 566431 533785 486215 428966 
3736.266 373514 333025 315915 323906 352855 395170 444588 497593 553857 
3740.605 614408 677688 737892 782701 795414 760262 670553 538828 397392 
3744.945 289257 244830 269098 345294 445881 543904 617195 653331 649880 
3749.284 613777 557307 493579 432481 378489 334020 303050 290284 300629 
3753.624 335611 391821 460409 530634 592409 637900 663585 669890 660067 
3757.964 638133 607373 570810 531928 495769 469298 459016 468502 495968 
3762.303 534648 574294 603989 616996 611554 593006 570943 555947 555416 
3766.643 569815 594035 619119 636971 641517 631861 611886 588295 568189 
3770.982 556710 555847 564175 578607 595329 611189 624097 633620 640621 
3775.322 646893 654061 662390 670553 675166 672279 658673 634084 602031 
3779.662 569782 545695 535975 542477 562184 588594 613545 630401 635777 
3784.001 629605 615171 597685 581759 570346 564440 563412 566066 570711 
3788.341 576450 581958 586304 589058 590485 592144 596557 606643 624495 
3792.680 649515 678949 706992 727470 734971 728100 709714 687644 672279 
3797.020 672312 691726 728067 773008 813871 836179 828610 785356 711705 
3801.360 623035 543207 494011 486116 517696 575853 642745 699326 730789 
3805.699 728897 695244 640655 582986 539657 520250 525193 547221 577678 
3810.039 609331 639725 670653 706428 750969 803713 859883 909022 939703 
3814.378 940931 908490 847732 774900 711838 677323 680078 716186 772544 
3818.718 829606 868482 873728 838204 766370 676626 594433 541681 529506 
3823.058 555151 606444 667003 721629 761092 781240 785190 780344 775863 
3827.397 778884 791398 811414 833490 852181 863270 865826 862174 856696 
3831.737 854737 860680 877081 903444 936847 972179 1002964 1022493 1024652 
3836.076 1005821 966766 912674 852679 798335 758669 738257 735734 745625 
3840.416 760860 774535 782369 782502 775432 762951 747982 734340 725711 
3844.756 725644 736863 760628 795846 839831 889067 939968 990843 1041623 
3849.095 1093506 1147189 1200413 1245669 1270392 1258529 1194300 1071151 
3852.953 900621 714360 553193 449729 415202 439778 503033 583351 665742 
3857.292 741011 805838 860680 906963 945879 977725 1002001 1018806 1028471 
3861.632 1032224 1030696 1023390 1008876 985496 954181 919614 890362 875786 
3865.971 882493 910184 951391 992238 1017511 1014256 977293 912740 838570 
3870.311 777124 745260 747882 777025 818186 854538 874657 874956 860614 
3874.651 843184 835183 846073 877978 926520 982042 1033918 1071882 1088457 
3878.990 1080950 1052019 1010271 967231 935552 924262 936283 967298 1007215 
3883.330 1043151 1061585 1052783 1014489 954413 888967 837507 816261 831200 
3887.669 877081 941164 1007813 1062117 1092742 1095234 1072048 1032058 
3891.527 987057 948668 924495 917190 926089 948403 981511 1023223 1071450 
3895.866 1123536 1175694 1222875 1259526 1280761 1283685 1268665 1239256 
3899.724 1201776 1162604 1127157 1097692 1073643 1052086 1029966 1005023 
3903.581 977393 949797 926255 911147 906930 914102 931003 955044 982607 
3907.921 1010968 1038169 1063146 1085501 1105265 1122739 1138319 1152538 
3911.778 1166259 1180213 1194665 1209252 1222310 1231381 1233607 1226928 
3915.636 1210913 1187290 1159747 1133004 1111245 1096761 1089719 1088690 
3919.493 1092045 1098721 1108521 1122107 1139548 1159614 1179382 1194533 
3923.351 1200879 1196061 1180279 1157654 1133967 1115862 1107790 1111610 
3927.208 1125728 1147189 1171442 1194433 1213505 1226563 1232145 1229387 
3931.065 1218190 1198985 1173967 1146890 1122274 1104468 1096429 1098256 
3934.923 1107723 1120845 1133402 1142106 1145694 1144930 1142139 1140046 
3938.780 1140811 1145395 1152970 1161807 1169349 1173734 1173601 1169216 
3942.638 1162006 1154365 1149149 1148451 1153767 1164498 1178718 1193669 
3946.495 1205563 1211976 1211345 1204102 1191974 1177621 1163800 1152305 
3950.353 1143867 1138651 1136027 1135794 1137887 1142305 1148418 1155262 
3954.210 1161043 1163966 1162604 1157056 1148319 1138884 1130977 1126791 
3958.067 1127489 1132970 1142505 1154564 1168086 1181841 1194765 1205962 
3961.925 1214501 1219519 1220515 1218123 1213272 1207956 1204135 1203138 
3965.782 1205829 1212076 1220948 1231315 1241848 1251817 1260457 1267402 
3969.640 1272121 1274613 1275111 1273616 1271257 1268831 1267468 1267634 
3973.497 1269994 1274148 1280163 1287407 1296280 1306549 1318447 1331741 
3977.354 1345800 1359627 1371892 1381166 1386385 1386551 1381498 1371726 
3981.212 1358497 1343773 1329714 1318946 1313130 1313097 1318248 1327088 
3985.069 1337558 1347230 1354475 1358464 1359228 1357101 1352415 1345834 
3988.927 1337325 1327221 1316520 1306516 1298873 1295317 1296579 1302296 
3992.784 1311402 1322303 1333204 1343075 1351052 1356702 1359727 1359395 
3996.642 1354774 1345402 1331708 1314692 1297211 1281658 1270525 1264776 
4000.499 1263846 
##END=
