
##TITLE=mdmaHCL00394_8
##JCAMP-DX=5.01  $$ Nicolet v. 1
##DATATYPE=INFRARED SPECTRUM
##ORIGIN=UniL
##OWNER=Nicolet
##LONGDATE=2011/08/24
##TIME=09:20:16
##SPECTROMETER/DATA SYSTEM=Nicolet iS5
##DATA PROCESSING=
Ratio against background
%Transmittance->Absorbance
Truncated
ElementMultiply or ElementDivide
##COMMENTS=
Number of sample scans: 32
Collection length: 51.20 sec
Sample gain: 2.0
Background collected on: Mer Aout 24 09:18:40 2011 (GMT+02:00);
Number of background scans: 32
Background gain: 2.0
Sample spacing:  1.000
Number of scan points: 12415
Resolution points: 8192
Number of FFT points: 65536
Apodization: N-B fort;
Phase correction: Mertz;
Laser frequency: 15798.0 cm-1
Number of rejected sample scans: 0
Number of rejected background scans: 0
Bench serial number: ASB1000141;
##RESOLUTION=4.000
##XUNITS=1/CM
##YUNITS=ABSORBANCE
##FIRSTX=649.893372
##LASTX=4000.122314
##FIRSTY=0.081861
##MAXX=4000.122314
##MINX=649.893372
##MAXY=0.277053
##MINY=0.000966
##XFACTOR=1.000000
##YFACTOR=1.000000E-009
##NPOINTS=6950
##DELTAX=0.482117
##ZPD=6100
##XYDATA=(X++(Y..Y))
649.893 81861416 81951040 82095232 82310088 82592720 82926184 83292336 
653.268 83686160 84123128 84633768 85247200 85976280 86807776 87708576 
656.643 88639248 89574600 90513856 91478368 92497760 93591512 94759560 
660.018 95985360 97248856 98540200 99870376 101263792 102745512 104323472 
663.393 105981984 107683968 109389576 111069296 112701688 114269696 
666.285 115737896 117028736 118028440 118617744 118730176 118388480 
669.178 117675816 116675232 115428528 113935712 112179152 110155496 
672.071 107898728 105485632 103012152 100577536 98250568 96059424 94005072 
675.446 92077072 90269048 88585000 87035048 85623472 84343520 83176672 
678.820 82099240 81090120 80138736 79243704 78407744 77631816 76910952 
682.195 76235776 75598096 74996160 74436344 73930552 73490336 73118664 
685.570 72808592 72543760 72305944 72080968 71862480 71651416 71451776 
688.945 71263240 71079184 70885512 70665592 70407256 70106232 69768256 
692.320 69403376 69023032 68634240 68238240 67833072 67417560 66993600 
695.694 66568776 66153272 65756560 65385716 65043500 64729288 64442128 
699.069 64180812 63945004 63733600 63542516 63365808 63195392 63024960 
702.444 62851264 62676600 62506988 62349484 62208632 62084344 61971172 
705.819 61861392 61749308 61632900 61516944 61410676 61325420 61271388 
709.194 61255212 61281348 61354384 61483200 61684228 61980156 62394580 
712.569 62945016 63628472 64412840 65228240 65978824 66550932 66833808 
715.943 66752428 66277736 65441952 64329876 63074304 61831516 60747920 
719.318 59957584 59556340 59591988 60064296 60915668 62035152 63250652 
722.693 64357312 65145276 65421148 65066284 64057612 62480816 60505276 
726.068 58351988 56244700 54347504 52755932 51490092 50514960 49768200 
729.443 49186524 48725636 48357444 48066136 47838984 47659124 47506580 
732.817 47364408 47222128 47079488 46943428 46821328 46715864 46622744 
736.192 46533260 46439740 46340120 46239492 46145888 46066116 46000396 
739.567 45942492 45882756 45814372 45737096 45658616 45590120 45539668 
742.942 45508724 45490992 45476716 45457916 45433744 45411084 45400748 
746.317 45411084 45443604 45491580 45544232 45592256 45632480 45668368 
749.692 45707316 45754176 45807676 45858856 45896492 45913064 45909012 
753.066 45893472 45879112 45875908 45885628 45901868 45913288 45911812 
756.441 45897780 45881320 45877380 45898960 45951920 46033512 46136048 
759.816 46252908 46384396 46537760 46723168 46946568 47206092 47490984 
763.191 47789452 48095120 48415152 48769560 49189120 49706560 50347608 
766.566 51131068 52065896 53152100 54379648 55725368 57152896 58617552 
769.940 60088532 61576352 63164272 65009824 67324856 70319784 74098880 
773.315 78578360 83408472 88024040 91678352 93625464 93367232 90760832 
776.690 86109584 80034224 73360264 66878328 61165792 56577668 53199548 
780.065 50923840 49527564 48767300 48438820 48388704 48527956 48805708 
783.440 49189900 49659864 50203900 50822324 51527584 52340352 53281124 
786.815 54361584 55584956 56950480 58462288 60138612 62012756 64126128 
790.189 66524900 69249880 72335064 75816456 79735768 84142952 89092000 
793.564 94619832 100722408 107324448 114270432 121313544 128110040 134277072 
796.939 139394400 143051936 144933152 144839616 142753152 138842096 
799.832 133455144 127065840 120168544 113261912 106754920 100919208 95904816 
803.206 91721528 88275136 85401296 82922616 80692104 78616600 76676856 
806.581 74913664 73403584 72215936 71385880 70889872 70647656 70529696 
809.956 70383016 70074152 69498280 68601528 67380304 65869220 64127468 
813.331 62220836 60221200 58195876 56204688 54304284 52539360 50941160 
816.706 49527748 48302224 47256960 46378128 45652432 45069840 44625048 
820.081 44315612 44140216 44095980 44179460 44388456 44725852 45201456 
823.455 45833668 46645988 47660788 48893732 50345596 51996424 53797128 
826.830 55668716 57505848 59171568 60522452 61427012 61782960 61550008 
830.205 60758172 59511424 57959684 56283136 54664176 53246776 52135308 
833.580 51378860 50970296 50853352 50929800 51082912 51179080 51095660 
836.955 50744784 50079204 49108752 47891368 46525444 45121012 43777248 
840.329 42573340 41550836 40720324 40068252 39570728 39201076 38936356 
843.704 38759680 38656660 38613780 38619140 38661584 38734356 38835472 
847.079 38966148 39129172 39325228 39552580 39807724 40088052 40393948 
850.454 40729424 41100632 41513212 41968988 42465320 42996684 43557780 
853.829 44146228 44764640 45419692 46119760 46873516 47688484 48572864 
857.204 49538036 50598752 51775604 53092524 54573244 56241648 58120412 
860.578 60230108 62591172 65217616 68108808 71234504 74523424 77856552 
863.953 81055704 83915144 86216744 87752976 88376168 88008296 86659696 
867.328 84424568 81473640 78031872 74329384 70596192 67027272 63758424 
870.703 60880824 58433592 56416340 54801996 53548516 52610192 51938876 
874.078 51490984 51227356 51110272 51107996 51195260 51354396 51577652 
877.452 51865312 52222704 52654964 53164716 53749052 54400792 55110684 
880.827 55870124 56673248 57517160 58399592 59317284 60263220 61224656 
884.202 62184852 63121052 64009236 64827716 65560424 66203668 66769080 
887.577 67287056 67799728 68355696 69001232 69766432 70660872 71671384 
890.952 72766944 73904312 75036560 76122688 77125544 78012848 78756352 
894.327 79326704 79694768 79835992 79729480 79363936 78738600 77864880 
897.701 76766400 75480040 74057808 72560480 71054560 69607872 68275856 
901.076 67099312 66100916 65284072 64639420 64150280 63800604 63577800 
904.451 63473940 63484944 63607028 63835256 64163572 64586548 65101624 
907.826 65709808 66415272 67222720 68134344 69149048 70263296 71473184 
911.201 72777408 74177984 75679416 77286272 78999920 80819320 82742624 
914.575 84772096 86918824 89205344 91662016 94326056 97233320 100411616 
917.950 103879128 107637856 111670920 115931104 120334624 124758440 
920.843 129027488 132943048 136310016 138964640 140829648 141937008 
923.736 142446160 142612480 142769952 143291424 144505392 146684416 
926.628 149995920 154472224 159996448 166283904 172918608 179315696 
929.521 184789104 188656816 190257024 189106752 184992032 178001856 
932.414 168542656 157257072 144966448 132483568 120525608 109676064 
935.306 100290712 92545688 86467192 81972888 78925728 77171680 76573960 
938.681 77004384 78331656 80408752 83027984 85915944 88762304 91214792 
942.056 92953048 93749656 93489752 92206936 90060504 87314776 84265720 
945.431 81191456 78327848 75822736 73747144 72108624 70871816 69980480 
948.806 69373672 69000568 68818456 68792640 68896032 69103712 69394360 
952.181 69751448 70162808 70621776 71125320 71671344 72257224 72878376 
955.555 73528400 74201336 74892952 75600976 76325200 77065584 77821120 
958.930 78588808 79364968 80146384 80932288 81724568 82527280 83343680 
962.305 84175568 85021352 85877504 86740168 87607328 88479536 89360200 
965.680 90252000 91156376 92071376 92993064 93917992 94845168 95777680 
969.055 96721688 97684336 98670760 99682640 100718440 101775984 102854672 
972.429 103958096 105091976 106263488 107477752 108736072 110036632 
975.322 111376208 112753440 114170048 115630464 117138896 118696344 
978.215 120298256 121935144 123593632 125260520 126924384 128574040 
981.108 130198120 131781936 133306224 134751200 136100128 137343728 
984.000 138483472 139530080 140499920 141408352 142268656 143090688 
986.893 143882784 144656320 145426928 146211712 147028048 147888240 
989.786 148797296 149754960 150758880 151808480 152907232 154061040 
992.678 155275024 156549376 157878256 159250672 160654672 162082736 
995.571 163533248 165009184 166513904 168046336 169598784 171159184 
998.464 172715024 174258880 175791232 177319584 178853440 180399136 
1001.356 181958272 183528192 185106688 186697008 188309072 189957936 
1004.249 191658656 193420528 195245136 197128432 199065872 201057712 
1007.142 203111232 205236928 207443200 209729056 212082704 214481856 
1010.035 216901344 219320784 221726160 224108752 226460304 228766320 
1012.927 231005488 233155376 235198256 237130304 238962864 240718496 
1015.820 242419056 244076464 245688640 247240816 248714320 250094144 
1018.713 251374816 252558864 253650816 254652592 255563024 256383984 
1021.605 257127584 257825280 258525824 259283744 260152048 261164992 
1024.498 262332880 263645168 265077888 266603376 268192144 269812928 
1027.391 271425376 272970144 274374368 275555936 276433472 276945856 
1030.284 277053024 276735872 275990624 274821376 273238816 271262464 
1033.177 268929024 266292784 263415760 260360688 257169904 253855440 
1036.070 250397120 246751584 242869232 238704720 234233024 229451776 
1038.963 224381072 219060896 213550784 207933776 202305088 196771152 
1041.856 191438176 186386448 181666832 177290128 173231520 169441296 
1044.750 165861472 162444880 159159712 155996048 152960480 150070256 
1047.643 147346528 144807600 142469904 140343856 138433520 136734832 
1050.536 135234304 133909480 132729304 131662296 130679768 129759624 
1053.429 128889576 128062872 127274424 126517416 125779912 125046056 
1056.322 124299368 123523528 122704544 121830648 120888640 119864184 
1059.215 118743336 117515184 116176608 114735160 113210312 111628416 
1062.108 110018192 108408008 106820128 105272064 103778344 102351096 
1065.001 101000560 99734120 98553336 97453008 96420200 95438992 94492456 
1068.376 93568080 92660392 91770928 90906728 90076608 89290480 88557008 
1071.751 87883744 87278440 86748656 86300680 85939088 85665168 85476000 
1075.127 85364912 85322928 85338824 85397424 85480720 85564560 85618512 
1078.502 85611696 85514408 85307128 84985488 84562632 84067792 83539024 
1081.877 83020480 82554408 82176224 81917912 81806088 81863496 82112336 
1085.252 82571720 83258904 84188920 85373504 86819792 88528368 90487816 
1088.628 92666872 95004560 97412328 99767264 101922896 103740224 105094424 
1092.003 105905320 106153216 105879984 105184416 104198992 103085160 
1094.896 102000496 101078968 100430776 100122864 100180864 100591656 
1097.789 101308472 102257128 103338600 104447016 105468904 106289896 
1100.682 106813096 106957480 106670824 105938048 104782424 103264160 
1103.575 101465520 99486728 97427960 95373664 93396816 91548768 89861312 
1106.950 88352408 87025944 85875280 84884640 84031520 83289008 82626704 
1110.326 82014792 81425160 80829784 80204736 79526928 78776336 77938736 
1113.701 77007352 75985912 74887760 73736424 72560328 71387832 70246280 
1117.076 69157552 68137016 67195880 66341036 65575452 64899892 64312436 
1120.451 63808964 63383176 63027328 62731608 62481732 62259228 62038132 
1123.827 61783992 61459456 61025516 60450280 59717016 58827384 57803596 
1127.202 56681592 55508856 54333536 53195316 52125032 51139864 50244892 
1130.577 49436068 48703096 48032568 47409304 46818820 46248780 45689864 
1133.952 45137592 44592628 44060448 43549392 43069156 42629040 42235856 
1137.328 41894724 41609032 41380852 41211700 41101944 41050704 41054816 
1140.703 41109232 41208608 41347472 41522180 41730916 41973148 42247756 
1144.078 42552836 42883876 43235340 43601008 43975192 44352968 44730336 
1147.453 45102592 45464208 45808704 46129340 46421416 46683136 46916148 
1150.829 47125280 47317700 47500888 47681940 47867948 48065544 48280748 
1154.204 48519324 48785056 49079036 49399052 49739664 50093408 50451092 
1157.579 50804372 51144936 51464012 51752796 52000832 52196732 52329516 
1160.954 52389060 52367528 52259400 52061528 51771948 51390872 50920264 
1164.330 50365204 49733272 49035744 48285744 47496712 46682436 45855208 
1167.705 45025624 44204332 43400592 42623632 41882244 41183392 40532044 
1171.080 39930852 39380368 38880512 38431440 38034764 37693664 37412452 
1174.455 37194628 37042616 36957320 36938272 36985172 37098656 37280728 
1177.831 37535116 37866112 38277904 38775148 39362768 40046668 40835084 
1181.206 41736752 42760900 43915948 45207632 46640416 48217912 49943988 
1184.581 51823128 53859200 56052620 58396368 60872512 63452540 66092164 
1187.956 68734608 71313920 73749224 75954488 77844504 79336368 80368448 
1191.332 80906336 80949496 80531224 79713840 78581656 77220168 75712512 
1194.707 74127800 72510952 70886800 69260256 67623648 65963784 64270748 
1198.082 62543912 60795140 59048180 57334160 55688568 54143840 52724840 
1201.457 51448760 50322568 49345520 48510244 47805728 47218356 46731548 
1204.833 46327696 45986728 45686444 45406156 45126636 44832820 44515824 
1208.208 44172052 43802828 43412128 43006268 42592636 42178924 41774980 
1211.583 41391932 41041852 40738416 40494612 40322060 40231724 40232632 
1214.958 40332644 40539172 40857872 41293244 41847256 42519804 43309284 
1218.333 44214016 45233844 46370240 47626216 49004772 50507736 52135568 
1221.709 53888008 55765828 57772864 59915780 62203816 64645344 67245120 
1225.084 70001424 72904784 75937320 79069600 82263032 85464872 88604864 
1228.459 91602608 94365176 96793400 98798696 100302776 101248432 101608016 
1231.834 101385424 100622680 99397288 97829128 96068976 94277928 92632632 
1235.210 91295536 90404696 90080560 90411424 91460008 93269224 95861264 
1238.585 99238192 103377024 108228536 113706704 119681264 125993904 
1241.478 132444920 138802544 144832448 150282784 154911424 158518032 
1244.371 160945040 162108672 162005456 160709248 158357728 155126768 
1247.264 151231344 146893216 142326304 137736992 133284480 129069552 
1250.157 125122648 121396616 117777624 114104544 110217888 105982832 
1253.050 101325208 96249328 90835240 85225192 79584280 74090584 68898984 
1256.426 64116216 59807052 55986164 52629492 49686312 47093556 44788960 
1259.801 42712496 40817064 39067752 37439180 35916444 34490784 33156536 
1263.176 31909388 30744184 29654854 28635704 27681936 26791364 25963884 
1266.551 25200654 24502526 23868452 23295748 22780186 22318740 21909878 
1269.927 21554602 21255046 21013176 20828622 20699014 20619856 20586814 
1273.302 20596370 20646158 20734252 20857510 21010324 21185146 21373334 
1276.677 21566652 21758800 21944972 22120692 22280964 22419138 22528810 
1280.052 22604964 22646224 22655438 22637496 22597216 22535406 22447958 
1283.427 22325820 22159396 21942428 21676142 21369366 21038286 20703218 
1286.803 20382404 20091044 19839626 19633624 19475644 19365980 19303068 
1290.178 19282700 19298218 19341832 19405232 19482852 19573136 19678070 
1293.553 19801372 19946392 20113776 20301256 20505316 20723234 20954686 
1296.928 21202646 21472504 21769288 22096846 22456856 22849956 23276870 
1300.304 23739126 24237712 24771180 25332524 25908732 26480180 27024344 
1303.679 27520542 27951718 28307704 28585166 28786324 28917590 28988674 
1307.054 29013434 29008404 28992182 28984246 29000256 29050134 29136584 
1310.429 29255654 29399684 29560038 29730282 29906308 30085030 30263298 
1313.805 30435842 30595550 30735470 30849788 30935492 30991892 31018938 
1317.180 31015380 30978618 30905250 30793658 30645966 30470244 30278040 
1320.555 30082902 29897150 29728934 29582810 29461558 29368342 29309214 
1323.930 29293580 29332572 29438152 29621758 29892466 30259104 30728038 
1327.306 31302090 31976290 32733596 33544090 34363056 35139848 35826800 
1330.681 36385116 36795292 37057552 37190188 37222060 37187120 37119300 
1334.056 37045972 36990584 36972256 37004512 37098296 37259712 37491480 
1337.431 37793924 38167840 38616752 39147880 39770792 40492832 41316892 
1340.807 42236984 43238996 44299612 45389344 46472856 47505768 48440820 
1344.182 49228048 49819556 50180544 50291464 50151088 49772920 49181736 
1347.557 48406928 47475536 46413820 45245944 43995284 42689976 41362992 
1350.932 40049064 38785364 37604232 36528392 35572580 34741928 34035724 
1354.308 33450640 32982480 32625462 32371216 32207928 32121294 32096426 
1357.683 32121866 32190620 32299432 32447082 32631286 32847122 33088844 
1361.058 33352990 33642932 33970760 34357284 34826288 35396580 36080448 
1364.433 36880952 37795620 38819060 39944144 41157856 42432732 43724660 
1367.809 44967484 46074992 46960116 47541700 47759048 47582884 47013352 
1371.184 46080520 44834732 43350288 41718368 40036204 38410336 36936324 
1374.559 35682424 34684540 33941200 33425984 33102072 32940262 32928288 
1377.934 33075112 33407808 33967244 34804748 35971624 37516372 39472600 
1381.310 41841016 44566336 47515012 50488608 53217336 55405400 56791544 
1384.685 57157468 56379744 54452056 51511988 47837356 43793736 39788408 
1388.060 36147928 33066600 30607140 28724972 27322086 26283466 25510220 
1391.435 24922922 24462560 24090832 23783222 23527384 23321758 23171830 
1394.811 23085444 23067484 23117524 23229538 23394624 23602734 23843460 
1398.186 24106244 24378474 24647474 24902360 25136084 25346996 25537242 
1401.561 25710732 25870926 26020660 26163304 26304234 26452780 26621950 
1404.936 26824316 27069408 27360266 27693130 28060320 28454392 28871410 
1408.312 29311800 29778752 30275660 30803866 31361528 31945724 32553672 
1411.687 33183358 33831976 34490892 35143584 35765092 36325384 36800736 
1415.062 37179644 37469048 37691420 37880648 38074656 38306244 38603640 
1418.437 38987932 39472196 40062876 40757156 41541792 42395980 43295812 
1421.813 44221208 45160420 46117328 47112612 48180372 49355468 50661300 
1425.188 52100788 53657376 55303816 57011152 58759516 60533044 62314524 
1428.563 64080120 65791800 67400608 68859808 70136016 71222128 72140000 
1431.938 72937240 73674304 74409712 75197824 76085224 77118816 78358288 
1435.313 79878360 81760448 84073624 86834400 89999472 93481984 97179144 
1438.689 100989944 104805040 108503584 111918440 114841672 117069128 
1441.582 118409328 118735064 118005824 116259304 113598104 110158744 
1444.475 106105408 101601072 96790128 91814400 86805344 81900984 77266680 
1447.850 73070328 69455936 66507868 64227836 62549344 61371100 60601344 
1451.225 60178000 60074568 60288384 60818272 61647868 62748344 64080460 
1454.601 65612332 67333216 69243856 71345616 73613304 75984760 78369520 
1457.976 80684208 82886408 84969776 86949872 88848368 90684728 92470088 
1461.351 94201152 95862256 97412080 98779728 99879512 100621808 100951776 
1464.726 100879248 100488736 99909992 99264640 98643440 98088984 97608048 
1468.102 97190336 96817832 96465832 96091088 95621776 94952976 93950856 
1471.477 92498624 90546992 88160648 85507392 82795184 80193016 77784848 
1474.852 75590912 73607224 71841920 70336152 69153008 68347088 67948680 
1478.227 67951040 68321768 69022208 70028048 71339336 72976944 74970208 
1481.603 77340200 80089640 83202880 86657104 90433864 94532368 98963744 
1484.978 103735136 108831328 114179528 119620592 124919960 129749360 
1487.871 133720144 136449616 137589648 136920320 134421760 130307200 
1490.764 124988480 118951608 112661440 106442488 100456168 94755072 89310672 
1494.139 84075552 79037120 74233216 69761488 65757872 62345544 59593776 
1497.514 57498360 56004180 55029440 54496492 54347844 54540820 55042380 
1500.890 55822344 56845472 58070604 59454004 60937168 62448332 63897632 
1504.265 65146776 66010380 66258088 65648824 64041488 61497244 58291660 
1507.640 54777376 51228660 47776912 44443360 41209772 38067384 35030680 
1511.015 32147910 29482302 27083304 24981600 23177354 21647512 20357680 
1514.391 19270888 18353448 17572202 16898104 16309569 15795358 15358604 
1517.766 15011218 14763854 14615790 14550480 14534960 14532219 14513957 
1521.141 14477609 14450136 14474902 14585532 14787199 15060269 15372781 
1524.516 15697679 16020861 16347792 16698143 17096504 17558230 18083376 
1527.892 18659968 19272828 19912846 20580180 21283892 22035840 22844124 
1531.267 23711128 24631518 25594806 26589084 27604428 28634216 29671918 
1534.642 30711252 31742350 32752890 33725572 34640540 35480024 36222404 
1538.017 36847804 37337664 37675740 37849484 37853752 37699916 37415092 
1541.393 37037456 36604088 36136620 35635552 35082152 34452256 33730516 
1544.768 32926678 32076024 31228952 30428840 29691326 29003446 28330198 
1548.143 27634122 26892204 26111224 25325642 24586320 23933394 23380288 
1551.518 22912440 22499532 22113232 21739432 21385272 21072614 20825352 
1554.894 20652588 20543076 20464574 20373478 20215022 19927174 19451906 
1558.269 18756308 17871958 16904994 15993530 15234222 14652527 14223323 
1561.644 13899527 13633749 13383989 13120440 12828484 12511863 12190737 
1565.019 11893616 11645944 11457467 11320559 11213818 11113255 10999156 
1568.395 10863955 10713683 10565704 10440175 10351024 10303723 10296496 
1571.770 10325065 10384822 10470552 10574768 10684681 10783277 10853832 
1575.145 10886787 10889096 10885393 10911521 10994432 11143850 11353583 
1578.520 11609972 11902607 12228088 12591296 13001784 13469459 13999984 
1581.896 14592694 15240502 15932411 16652245 17378344 18083652 18732576 
1585.271 19287444 19715410 19993852 20118982 20107842 19999058 19845556 
1588.646 19708614 19652690 19732052 19990176 20455162 21135294 22015446 
1592.021 23050398 24169258 25270078 26233306 26946422 27309524 27262282 
1595.396 26793972 25946296 24804156 23473238 22068746 20688484 19404436 
1598.772 18267392 17303824 16523017 15920863 15484464 15196097 15037184 
1602.147 14994686 15061333 15235079 15516467 15903505 16388116 16956016 
1605.522 17584312 18243202 18898522 19507318 20022302 20397162 20588066 
1608.897 20563746 20310944 19837164 19172182 18364888 17480644 16584562 
1612.273 15732687 14963820 14292591 13715028 13214124 12768731 12358668 
1615.648 11971641 11608133 11280329 11007618 10806646 10685836 10642336 
1619.023 10664510 10734944 10833686 10942101 11043338 11126955 11191242 
1622.398 11243536 11297128 11365011 11455971 11570360 11703807 11850097 
1625.774 12005021 12166032 12331567 12499110 12664158 12821795 12969692 
1629.149 13110194 13250641 13400358 13567561 13755040 13959093 14169130 
1632.524 14370534 14547670 14684264 14767178 14788845 14750794 14666030 
1635.899 14557915 14454006 14374198 14326458 14306631 14302692 14298618 
1639.275 14278688 14232602 14157524 14060419 13954406 13855020 13772996 
1642.650 13710548 13660247 13607218 13534163 13423732 13265329 13057881 
1646.025 12812991 12553675 12308830 12107562 11968780 11900564 11899746 
1649.400 11955394 12049271 12155060 12239436 12258249 12164907 11933086 
1652.776 11587239 11212662 10907546 10727846 10666106 10682304 10732532 
1656.151 10785824 10825873 10847377 10853016 10848192 10837593 10822510 
1659.526 10801007 10768603 10720985 10654255 10566927 10460540 10339961 
1662.901 10214633 10095886 9996294 9925268 9886352 9876896 9887403 9904555 
1666.759 9911573 9892793 9837273 9742077 9613805 9467114 9321184 9192324 
1670.616 9090775 9019895 8977104 8955049 8942772 8926164 8888455 8813958 
1674.474 8694950 8537926 8365824 8207600 8087747 8014500 7979940 7966407 
1678.331 7955676 7936238 7906847 7876480 7858564 7863356 7889841 7923010 
1682.188 7933943 7888897 7760192 7544635 7274361 7008060 6799203 6668297 
1686.046 6604844 6581901 6573895 6561112 6533294 6487753 6426444 6354285 
1689.903 6277263 6203649 6142280 6101787 6087708 6099569 6129208 6159756 
1693.761 6169804 6138516 6055048 5927826 5787882 5675912 5619685 5622606 
1697.618 5663524 5709180 5721368 5668392 5538196 5350237 5153341 4999133 
1701.476 4917491 4905125 4940112 4994976 5046730 5079817 5085650 5064095 
1705.333 5022897 4974799 4932773 4905762 4897351 4905695 4925970 4952244 
1709.190 4980430 5008551 5037344 5069358 5107542 5153643 5207495 5267390 
1713.048 5330682 5395089 5458936 5520309 5575717 5618477 5638449 5625929 
1716.905 5576321 5495511 5401531 5318874 5267189 5255182 5278659 5325751 
1720.763 5381167 5431658 5469539 5492055 5502121 5504772 5505746 5508866 
1724.620 5515175 5524403 5536014 5549640 5564977 5580650 5593874 5601057 
1728.478 5599748 5590451 5578133 5569609 5571387 5584410 5601493 5606394 
1732.335 5576019 5488699 5334371 5126887 4903349 4711077 4582540 4523141 
1736.192 4517516 4541121 4570586 4586592 4578287 4543230 4487318 4422744 
1740.050 4362764 4318353 4293957 4289206 4300182 4322268 4350983 4382812 
1743.907 4416216 4451096 4488557 4529904 4576178 4626643 4678855 4729198 
1747.765 4773249 4807822 4829935 4838311 4832381 4812345 4779982 4739850 
1751.622 4699320 4666497 4648143 4646871 4659966 4678990 4692119 4687463 
1755.479 4656181 4597006 4517249 4431313 4354631 4296869 4258957 4233494 
1759.337 4208802 4172905 4117475 4041283 3949657 3853169 3763521 3690666 
1763.194 3639575 3610840 3601586 3606998 3620830 3635498 3644186 3641880 
1767.052 3627814 3606865 3588356 3581841 3592732 3618926 3650634 3673824 
1770.909 3674660 3646391 3593000 3530094 3477853 3451100 3454640 3483130 
1774.767 3526554 3575293 3624739 3674626 3727727 3786014 3848288 3909133 
1778.624 3961259 3997942 4016903 4021217 4018742 4018709 4026902 4044360 
1782.481 4067136 4089177 4105165 4112591 4113126 4110250 4108979 4112457 
1786.339 4122827 4140388 4165411 4198062 4237843 4282413 4326284 4361726 
1790.196 4378929 4369457 4329597 4262570 4179327 4093124 4016936 3957782 
1794.054 3915653 3886867 3865839 3849057 3834181 3820376 3807139 3793368 
1797.911 3776957 3756034 3729297 3697149 3661494 3625308 3591129 3560727 
1801.769 3534604 3512624 3494921 3482095 3475248 3474880 3481126 3492950 
1805.626 3509284 3529259 3552175 3578534 3607733 3639007 3669614 3696280 
1809.483 3716297 3728462 3734177 3736884 3741028 3750018 3765760 3787719 
1813.341 3814326 3844277 3877105 3913212 3953870 3999346 4048775 4099813 
1817.198 4149052 4193814 4232423 4264912 4291950 4314839 4334785 4352589 
1821.056 4368788 4383648 4397137 4407882 4413973 4412902 4402928 4384820 
1824.913 4362697 4343687 4334952 4341010 4361157 4389439 4415313 4428133 
1828.771 4420702 4393121 4353493 4315743 4294092 4297204 4325649 4373005 
1832.628 4430242 4488825 4543565 4592988 4638900 4684114 4730873 4780183 
1836.485 4832146 4887030 4947083 5015523 5096143 5192136 5304451 5431692 
1840.343 5570313 5715727 5863339 6008012 6145070 6271111 6384445 6487147 
1844.200 6585198 6687880 6803241 6935972 7084808 7243431 7402112 7550164 
1848.058 7679817 7786234 7868956 7929827 7971132 7993643 7995668 7974541 
1851.915 7927836 7855696 7761575 7651220 7530778 7405516 7278235 7149510 
1855.772 7019139 6887594 6756124 6626779 6500735 6377653 6255715 6133139 
1859.630 6009691 5887756 5771731 5667083 5577026 5501987 5438838 5383146 
1863.487 5331855 5284596 5243813 5213162 5194484 5186302 5182915 5176209 
1867.345 5159008 5128496 5087963 5045188 5009556 4988105 4982609 4990250 
1871.202 5005534 5023802 5041534 5057357 5070866 5081292 5086824 5086321 
1875.060 5078342 5063558 5043847 5021623 4998361 4973693 4945206 4909783 
1878.917 4865686 4813451 4755762 4696406 4638398 4582172 4525887 4466328 
1882.774 4401890 4333279 4264678 4202077 4150859 4113829 4090080 4075665 
1886.632 4065397 4055564 4044159 4031083 4017405 4004296 3992525 3983094 
1890.489 3978380 3981155 3995066 4022120 4061818 4109781 4159322 4203717 
1894.347 4238245 4262604 4280573 4298107 4320796 4351552 4389941 4433355 
1898.204 4479150 4526121 4574203 4624265 4676745 4730236 4781892 4828695 
1902.062 4869070 4903785 4935453 4966756 4998931 5030875 5059569 5082030 
1905.919 5096713 5104759 5109453 5113879 5119746 5125244 5127188 5121925 
1909.776 5108112 5087628 5064463 5043478 5028059 5018137 5011802 5006540 
1913.634 5001210 4996551 4994172 4994909 4996551 4993568 4979659 4949764 
1917.491 4904388 4849770 4796499 4753953 4726954 4712517 4703005 4688435 
1921.349 4661975 4622490 4573901 4524045 4479015 4442058 4410961 4381574 
1925.206 4350715 4318587 4289306 4268526 4260161 4263875 4274717 4285759 
1929.063 4290845 4287231 4276524 4263173 4251261 4242327 4235535 4228241 
1932.921 4219241 4209705 4203516 4204821 4215661 4234564 4256815 4277126 
1936.778 4292786 4305302 4319390 4340374 4370394 4405974 4439447 4461608 
1940.636 4465323 4450427 4422275 4391447 4367449 4356605 4358881 4370361 
1944.493 4386125 4402627 4419898 4439547 4462879 4488523 4512662 4531378 
1948.351 4541790 4545138 4545407 4548319 4558096 4575374 4597442 4619912 
1952.208 4638900 4654038 4667300 4682305 4701095 4723537 4747153 4768458 
1956.065 4786046 4799547 4811642 4824273 4837038 4846587 4847860 4836770 
1959.923 4813283 4781858 4749263 4722767 4706153 4698014 4694296 4690410 
1963.780 4684717 4678889 4676946 4682573 4695267 4711613 4725078 4730404 
1967.638 4728495 4722733 4721058 4727892 4742965 4760150 4770100 4765410 
1971.495 4744272 4712349 4679960 4657688 4651995 4663248 4688066 4723336 
1975.353 4769430 4831108 4914475 5022260 5148580 5280067 5397538 5486719 
1979.210 5539639 5557963 5549673 5524370 5488263 5442026 5384085 5313139 
1983.067 5231606 5147607 5072207 5015556 4982877 4972487 4978352 4991926 
1986.925 5008149 5025244 5045021 5069559 5098356 5127792 5152771 5170441 
1990.782 5181540 5192170 5210445 5242405 5288922 5344166 5398846 5444475 
1994.640 5477156 5499000 5516517 5537223 5564407 5596694 5628480 5652447 
1998.497 5664565 5664498 5655938 5643921 5631736 5619820 5605118 5584577 
2002.354 5555714 5519873 5480881 5442261 5406999 5375598 5347587 5322497 
2006.212 5302573 5290062 5287212 5292813 5300594 5300494 5284897 5249615 
2010.069 5198776 5142645 5094299 5063994 5055680 5065737 5085885 5108749 
2013.927 5130172 5151262 5176645 5209641 5249313 5290566 5325314 5347453 
2017.784 5357316 5360838 5368419 5389688 5429712 5487256 5556788 5630192 
2021.642 5701123 5767231 5827775 5882349 5929976 5967329 5992423 6004551 
2025.499 6006601 6003409 5999915 5997933 5994976 5985637 5964843 5931353 
2029.356 5889905 5848730 5816693 5799601 5796847 5802925 5810951 5817298 
2033.214 5824014 5838118 5867671 5918287 5988661 6072049 6159251 6241429 
2037.071 6316058 6383874 6448438 6511767 6572818 6627384 6670821 6700431 
2040.929 6717491 6726712 6733711 6741720 6749831 6754138 6749696 6734485 
2044.786 6710324 6683606 6661433 6649691 6649825 6658843 6670921 6679804 
2048.644 6681015 6672301 6652719 6621766 6578739 6524245 6460915 6394701 
2052.501 6333507 6286810 6260993 6257429 6271615 6295147 6318209 6333574 
2056.358 6338852 6335490 6326816 6315789 6303384 6288793 6271615 6252791 
2060.216 6236320 6227043 6229362 6243883 6267884 6294542 6317840 6333809 
2064.073 6342551 6347392 6352267 6359463 6367835 6374391 6375131 6368911 
2067.931 6357412 6345442 6337440 6336028 6339458 6343391 6341946 6331288 
2071.788 6311553 6286003 6259715 6237026 6219749 6206237 6193801 6179248 
2075.646 6161772 6141474 6120000 6098124 6075578 6051184 6024373 5995783 
2079.503 5967967 5944789 5929035 5921209 5919059 5918757 5915734 5908479 
2083.360 5897798 5887588 5881072 5880871 5886547 5895514 5903676 5908311 
2087.218 5908109 5903374 5894708 5881912 5863675 5838387 5805678 5767937 
2091.075 5729996 5698236 5678362 5673259 5681921 5700250 5723113 5746649 
2094.933 5769380 5791240 5812898 5833484 5850476 5859511 5857059 5842584 
2098.790 5818372 5789896 5762665 5741243 5727243 5719790 5717540 5719890 
2102.647 5728485 5745843 5774249 5814074 5862399 5915062 5967060 6015201 
2106.505 6059483 6102224 6146515 6194003 6244219 6294508 6341576 6383167 
2110.362 6418811 6450489 6480555 6510825 6541467 6571271 6598755 6623381 
2114.220 6645922 6668802 6694408 6724423 6759186 6797587 6838246 6880592 
2118.077 6924626 6971493 7021024 7072010 7121586 7166588 7203846 7232380 
2121.935 7253235 7269374 7283492 7297947 7313009 7328443 7342865 7355907 
2125.792 7367803 7379093 7389473 7397866 7402584 7401202 7392911 7378588 
2129.649 7360558 7341652 7323388 7306169 7288479 7269205 7248417 7228843 
2133.507 7214761 7210516 7217826 7235143 7257042 7277797 7292454 7299665 
2137.364 7301653 7302361 7304955 7309639 7314424 7315435 7310448 7299834 
2141.222 7286187 7273754 7264691 7258255 7250944 7238175 7218096 7192459 
2145.079 7166655 7146714 7136609 7135598 7137956 7136036 7123574 7099896 
2148.937 7068911 7037861 7012505 6994288 6980281 6962233 6933178 6889715 
2152.794 6833466 6770090 6706387 6646932 6594079 6547926 6510422 6487483 
2156.651 6489569 6528349 6611976 6739634 6898905 7069989 7231774 7368140 
2160.509 7471918 7544702 7591129 7617498 7627243 7622455 7605763 7581352 
2164.366 7556030 7536004 7526328 7527103 7534284 7540555 7539409 7527272 
2168.224 7503943 7472761 7437839 7402315 7368780 7337878 7311459 7291679 
2172.081 7282245 7285547 7301619 7327027 7354660 7377273 7388698 7386238 
2175.938 7370668 7344449 7310313 7269340 7221397 7166554 7106632 7046247 
2179.796 6991931 6950213 6925501 6918128 6925737 6943985 6969977 7001898 
2183.653 7040017 7084572 7133746 7183903 7229146 7265499 7292118 7311492 
2187.511 7328375 7347752 7371173 7396551 7419672 7435547 7442255 7442659 
2191.368 7441345 7444379 7455536 7473637 7494807 7513214 7524743 7528081 
2195.226 7524979 7518877 7512067 7505730 7497605 7485672 7469491 7450614 
2199.083 7433222 7420683 7415156 7415358 7418223 7419436 7416976 7411550 
2202.940 7406258 7404977 7410235 7421088 7433896 7444109 7447446 7442053 
2206.798 7428975 7410404 7389609 7368410 7348190 7330498 7317390 7311324 
2210.655 7314458 7327364 7347010 7369152 7387755 7398607 7401135 7398776 
2214.513 7397158 7401876 7416032 7439188 7467570 7496560 7521945 7542342 
2218.370 7557885 7569786 7578519 7583273 7582801 7576058 7564527 7550804 
2222.228 7538465 7530171 7526159 7524608 7522349 7517799 7511528 7506774 
2226.085 7507145 7515236 7529564 7545781 7556873 7557042 7543690 7518641 
2229.942 7487121 7455098 7427593 7405719 7388530 7373903 7360322 7348122 
2233.800 7338754 7334205 7334946 7339495 7345831 7352402 7360086 7371376 
2237.657 7390047 7418728 7456513 7498987 7539240 7571000 7589950 7596356 
2241.515 7593388 7586342 7579935 7576631 7577035 7580677 7587454 7597974 
2245.372 7613519 7634595 7659988 7686765 7710475 7727440 7736514 7738841 
2249.229 7738166 7737795 7740156 7745418 7751624 7756954 7760530 7763869 
2253.087 7769367 7779959 7796590 7817506 7839705 7858902 7872161 7877796 
2256.944 7876648 7869563 7857721 7841560 7821521 7798445 7775203 7755402 
2260.802 7742855 7740190 7747105 7760799 7776957 7791732 7803708 7813997 
2264.659 7826007 7843246 7867336 7897265 7929388 7959152 7982910 7999043 
2268.517 8008189 8012340 8013522 8013656 8012982 8012037 8010619 8009674 
2272.374 8010147 8012273 8015479 8018450 8019124 8016762 8011733 8006265 
2276.231 8002316 8002383 8006467 8013353 8020744 8026549 8030094 8032322 
2280.089 8035629 8041840 8051696 8064522 8078024 8090177 8099731 8106921 
2283.946 8113065 8119445 8127176 8135211 8142740 8148074 8150471 8150100 
2287.804 8148277 8146183 8144563 8143753 8143686 8144732 8148142 8155839 
2291.661 8169918 8191393 8219925 8253085 8287059 8318705 8345489 8366837 
2295.519 8383828 8398218 8411765 8425413 8439163 8452406 8464704 8475989 
2299.376 8486261 8495484 8503121 8507919 8508325 8503188 8492207 8476159 
2303.233 8456933 8436460 8416663 8398624 8382915 8370180 8360419 8354035 
2307.091 8351400 8352346 8356365 8362074 8367782 8372208 8374538 8374673 
2310.948 8372951 8369708 8365080 8359034 8351907 8344206 8337383 8333161 
2314.806 8333060 8337484 8345253 8354305 8361770 8365182 8363222 8356265 
2318.663 8345861 8334512 8324683 8318334 8316644 8319921 8327217 8336640 
2322.521 8345016 8348394 8342956 8325527 8295232 8253727 8205202 8155029 
2326.378 8108744 8070430 8041772 8022095 8008932 7999887 7993339 7988817 
2330.235 7987061 7988917 7994857 8004004 8014905 8026077 8037013 8048118 
2334.093 8060708 8076100 8095038 8117419 8142166 8167927 8193688 8219114 
2337.950 8244373 8269396 8294117 8317861 8340051 8360318 8378862 8396360 
2341.808 8413420 8429805 8444805 8457001 8465887 8472645 8481057 8497005 
2345.665 8526943 8576450 8648168 8741265 8851525 8972740 9097880 9219603 
2349.522 9331983 9429933 9509785 9569667 9610010 9633487 9644429 9648698 
2353.380 9652086 9659065 9672109 9691895 9717477 9747635 9781251 9818191 
2357.237 9858829 9904318 9955779 10014400 10080490 10154492 10235903 
2360.613 10323572 10415094 10507280 10596702 10680539 10756817 10825669 
2363.988 10888995 10949339 11008876 11068965 11129164 11187809 11242583 
2367.363 11290836 11330864 11361373 11381100 11389161 11385522 11371031 
2370.738 11348345 11321852 11296992 11279852 11275670 11288082 11318485 
2374.114 11367018 11432566 11514046 11610277 11720282 11843287 11977908 
2377.489 12122928 12277131 12439913 12611522 12792481 12983382 13183930 
2380.864 13392327 13605611 13820231 14032220 14238354 14435885 14622609 
2384.239 14796283 14954423 15094060 15212911 15309244 15383114 15435709 
2387.615 15469356 15486696 15489134 15477906 15453356 15415658 15365710 
2390.990 15304988 15235251 15158422 15075569 14987210 14893176 14793609 
2394.365 14689301 14582106 14474423 14369712 14270950 14181043 14102757 
2397.740 14038790 13991634 13963678 13956732 13970966 14005083 14056346 
2401.115 14121480 14197681 14283208 14378412 14484324 14602289 14733345 
2404.491 14877232 15032930 15199048 15374566 15559187 15753232 15957229 
2407.866 16171673 16396305 16630761 16874438 17127352 17389172 17659916 
2411.241 17938080 18220880 18504348 18782880 19051376 19304488 19538060 
2414.616 19748802 19933868 20090456 20216478 20310526 20372472 20404144 
2417.992 20408936 20391364 20356152 20307368 20247964 20179546 20102808 
2421.367 20018384 19926724 19828840 19726020 19619828 19512136 19405442 
2424.742 19302340 19206848 19123046 19055082 19006546 18980238 18977678 
2428.117 18999312 19044836 19113628 19204804 19317546 19450796 19603500 
2431.493 19774844 19964606 20172986 20400878 20648486 20915570 21200454 
2434.868 21500356 21811756 22132444 22461112 22798936 23148312 23512762 
2438.243 23895198 24297418 24720284 25163750 25627316 26111610 26616876 
2441.618 27143860 27692918 28263960 28856184 29469072 30102184 30755744 
2444.994 31429950 32124504 32838364 33568540 34312496 35066888 35828852 
2448.369 36596844 37368648 38142228 38914068 39679768 40434348 41173048 
2451.744 41891988 42588324 43259716 43903556 44515824 45091712 45624056 
2455.119 46106164 46530940 46891380 47181976 47397292 47532052 47581960 
2458.495 47542992 47411964 47187328 46868128 46454968 45949084 45353700 
2461.870 44672824 43912792 43082184 42190976 41250284 40272000 39267296 
2465.245 38246280 37219028 36193660 35178544 34182276 33212974 32279662 
2468.620 31391018 30554488 29776518 29061648 28411940 27827846 27307760 
2471.996 26848496 26444926 26090744 25779114 25502488 25254170 25028490 
2475.371 24821312 24630152 24453202 24289080 24136470 23993616 23858196 
2478.746 23728312 23601998 23477680 23354308 23231144 23107704 22983912 
2482.121 22860364 22738110 22618298 22502008 22389762 22281452 22176132 
2485.497 22073034 21971634 21872348 21776708 21686520 21603284 21528002 
2488.872 21460216 21398778 21342286 21289808 21240988 21196104 21155504 
2492.247 21119292 21086492 21055850 21025694 20994746 20962162 20927426 
2495.622 20890432 20850592 20807486 20759936 20707286 20649566 20587406 
2498.998 20521920 20454362 20385426 20315004 20242618 20167988 20091252 
2502.373 20013700 19937198 19863870 19795478 19732748 19675574 19623396 
2505.748 19575666 19531890 19491618 19454644 19420132 19386558 19352122 
2509.123 19315158 19274352 19229292 19179662 19125540 19066472 19001284 
2512.499 18928632 18847618 18758246 18662010 18561298 18458916 18357042 
2515.874 18257128 18159310 18063240 17968986 17876722 17788136 17704780 
2519.249 17628686 17560850 17501512 17450116 17405900 17368100 17336202 
2522.624 17310272 17290308 17275758 17266688 17262552 17263378 17269414 
2526.000 17280896 17298032 17320134 17346204 17374516 17403518 17432182 
2529.375 17459844 17486852 17513518 17539876 17565680 17590454 17613780 
2532.750 17636312 17658984 17683764 17712338 17745922 17784408 17827006 
2536.125 17872268 17918984 17966396 18014572 18064000 18115158 18168326 
2539.500 18223264 18279486 18336408 18393786 18451380 18509326 18567522 
2542.876 18625518 18683006 18739876 18796096 18852462 18909494 18967882 
2546.251 19027212 19086794 19145276 19201516 19254748 19305112 19353576 
2549.626 19400556 19446744 19491792 19535148 19576046 19613900 19648912 
2553.001 19682124 19714682 19747726 19781640 19816112 19850240 19882634 
2556.377 19911912 19936888 19956696 19970502 19977548 19977094 19968282 
2559.752 19950242 19922248 19884230 19836054 19778450 19712464 19640348 
2563.127 19564470 19487010 19410256 19334938 19261432 19188876 19116224 
2566.502 19042896 18969716 18898522 18832046 18773780 18726002 18689818 
2569.878 18664880 18649764 18642676 18642190 18647310 18658204 18675118 
2573.253 18698778 18729150 18766410 18810108 18859696 18914338 18973178 
2576.628 19034586 19096974 19158642 19218450 19275944 19331716 19387146 
2580.003 19443764 19502918 19565232 19630852 19699806 19771966 19847776 
2583.379 19928006 20013074 20103294 20197942 20295458 20394314 20493022 
2586.754 20590532 20686712 20781938 20876144 20969082 21060196 21148374 
2590.129 21232950 21313784 21391188 21465856 21538620 21609796 21679486 
2593.504 21747724 21814646 21880746 21946992 22014296 22083492 22155038 
2596.880 22228824 22304890 22383448 22465124 22550970 22642244 22739752 
2600.255 22843880 22954182 23070628 23192628 23320464 23454460 23595316 
2603.630 23743010 23897018 24056126 24218900 24384152 24551080 24719582 
2607.005 24890184 25062888 25237558 25413212 25588410 25761216 25929836 
2610.381 26092540 26248230 26395384 26532762 26658556 26771064 26868656 
2613.756 26950160 27014928 27063344 27096034 27114162 27119348 27112716 
2617.131 27095682 27069408 27034816 26992890 26944730 26891462 26834820 
2620.506 26776596 26718558 26662536 26609690 26560586 26515328 26473028 
2623.882 26433554 26396650 26363026 26333876 26310958 26295820 26289800 
2627.257 26293392 26306840 26329826 26361830 26402708 26451584 26507930 
2630.632 26570732 26638684 26710312 26784772 26861218 26939688 27020818 
2634.007 27104782 27192324 27283202 27377312 27474122 27573462 27675262 
2637.383 27779628 27886810 27996456 28108500 28222058 28336068 28449544 
2640.758 28561386 28671098 28778146 28882140 28983218 29081700 29178360 
2644.133 29273802 29369124 29465138 29562558 29661914 29763422 29867476 
2647.508 29974536 30085386 30200564 30320638 30445756 30575320 30708834 
2650.884 30845484 30985166 31128062 31275026 31426710 31583860 31746700 
2654.259 31915128 32088832 32267704 32451938 32642250 32839652 33045080 
2657.634 33258796 33480666 33709852 33944928 34184572 34427504 34672908 
2661.009 34919460 35166792 35414232 35661344 35907628 36153040 36397368 
2664.385 36640856 36883620 37126012 37368684 37612396 37857872 38106200 
2667.760 38357924 38613384 38872468 39134756 39400028 39667828 39939096 
2671.135 40214276 40494252 40779432 41069204 41361940 41655380 41946760 
2674.510 42233956 42514836 42788472 43054124 43311808 43561148 43802496 
2677.885 44036316 44263728 44486708 44707968 44931176 45159908 45397840 
2681.261 45648200 45913688 46196480 46498152 46819556 47161068 47522700 
2684.636 47903868 48303780 48722036 49157804 49610832 50080208 50565024 
2688.011 51064392 51576572 52100492 52634992 53179584 53734392 54299852 
2691.386 54876396 55464240 56063704 56674416 57296160 57928828 58572160 
2694.762 59226212 59890756 60565836 61251056 61945952 62650420 63364124 
2698.137 64086720 64817100 65553716 66294716 67037792 67780976 68522880 
2701.512 69262392 69998264 70729384 71453456 72167536 72868072 73551248 
2704.887 74212976 74849840 75458128 76033664 76571984 77067608 77515512 
2708.263 77911144 78251432 78535040 78762160 78934352 79053496 79121480 
2711.638 79139760 79109464 79031280 78905584 78732600 78511976 78243256 
2715.013 77925888 77559792 77145440 76684208 76178128 75630000 75042784 
2718.388 74419824 73765048 73082008 72376128 71652936 70918592 70179912 
2721.764 69442832 68713528 67997456 67299712 66625012 65977940 65362796 
2725.139 64782792 64240396 63737088 63273496 62849960 62466580 62124104 
2728.514 61823072 61564060 61347516 61172888 61038980 60944072 60886200 
2731.889 60863784 60875032 60918564 60992836 61096028 61226024 61380296 
2735.265 61557184 61754696 61971708 62206992 62458548 62723728 62998488 
2738.640 63278212 63557432 63831188 64095132 64345672 64580284 64797288 
2742.015 64995660 65175728 65338568 65486716 65623812 65753944 65881564 
2745.390 66010064 66142164 66279544 66422492 66571048 66724644 66882656 
2748.766 67044324 67208720 67374648 67541032 67706928 67872352 68038032 
2752.141 68205680 68377760 68557680 68748856 68955136 69180208 69427128 
2755.516 69698232 69994448 70315696 70659896 71024048 71404360 71796056 
2758.891 72194144 72593424 72988432 73372744 73739920 74083192 74395800 
2762.267 74672184 74907448 75097848 75240816 75334008 75376176 75366880 
2765.642 75306424 75196960 75041840 74846032 74615408 74355960 74074472 
2769.017 73777136 73470440 73160624 72853256 72553432 72265008 71990264 
2772.392 71730512 71485720 71255816 71040904 70841352 70657952 70491272 
2775.768 70340624 70204248 70078120 69957240 69835112 69704296 69557000 
2779.143 69385568 69182536 68941736 68658728 68331728 67962080 67554424 
2782.518 67115784 66654176 66178276 65695428 65211760 64731560 64258108 
2785.893 63793772 63340580 62899708 62472132 62058048 61656500 61266888 
2789.269 60888408 60520700 60164072 59819372 59488052 59170504 58867644 
2792.644 58578948 58303596 58040116 57787360 57543940 57308372 57079276 
2796.019 56855180 56634100 56414416 56194468 55972368 55746732 55515784 
2799.394 55278116 55032148 54776588 54510316 54232536 53942480 53639980 
2802.770 53324692 52996420 52655712 52302864 51939732 51568624 51192984 
2806.145 50816780 50443724 50077384 49720456 49374844 49041900 48722964 
2809.520 48418852 48131208 47861508 47610908 47380072 47169304 46977652 
2812.895 46804168 46647572 46506600 46380120 46267612 46168472 46082656 
2816.271 46010412 45952952 45911592 45888612 45886364 45907392 45953724 
2819.646 46027360 46129120 46259836 46420016 46609832 46829300 47077896 
2823.021 47354168 47656056 47979576 48320556 48673892 49033888 49395116 
2826.396 49752260 50099992 50433152 50746644 51035100 51293388 51516540 
2829.771 51700504 51842020 51939360 51992392 52002512 51972636 51906800 
2833.147 51809612 51686692 51543664 51386508 51221320 51053620 50888484 
2836.522 50729852 50580436 50442084 50315536 50201520 50100848 50015400 
2839.897 49948560 49904292 49888196 49905964 49964248 50069948 50229864 
2843.272 50452616 50748100 51127268 51603212 52189224 52895920 53729480 
2846.648 54686608 55752116 56894196 58065948 59207716 60247272 61113688 
2850.023 61742168 62080752 62100820 61797400 61190012 60316404 59230504 
2853.398 57995504 56672644 55323008 54000408 52745868 51591312 50555904 
2856.773 49647124 48863100 48193996 47625660 47140348 46720216 46349192 
2860.149 46012220 45697964 45397216 45102812 44810524 44517728 44223812 
2863.524 43929328 43636576 43348452 43068428 42800684 42549840 42320180 
2866.899 42116200 41941396 41798364 41688388 41611148 41565164 41547556 
2870.274 41554300 41581208 41623180 41674892 41731136 41787092 41839448 
2873.650 41886512 41929284 41970776 42016216 42071880 42143800 42236584 
2877.025 42353460 42495428 42661828 42850636 43059024 43283620 43520968 
2880.400 43767936 44021684 44280092 44541996 44806996 45075284 45347372 
2883.775 45623392 45902936 46184908 46467948 46750656 47031412 47309240 
2887.151 47582884 47851152 48112552 48366036 48610704 48846604 49074544 
2890.526 49296560 49514716 49730896 49946740 50162656 50378380 50593464 
2893.901 50807688 51021124 51234404 51448460 51664488 51883424 52106092 
2897.276 52333028 52564304 52799108 53036360 53273672 53508488 53737540 
2900.652 53958572 54170072 54372104 54565992 54753960 54938960 55124228 
2904.027 55312584 55507424 55712448 55931924 56171312 56436112 56732032 
2907.402 57064768 57439472 57861400 58336184 58869884 59468560 60138460 
2910.777 60883796 61706148 62602924 63566448 64583204 65632984 66691568 
2914.153 67727880 68708176 69600560 70374248 71006336 71484896 71809192 
2917.528 71989760 72044944 71997704 71868424 71671224 71411152 71083248 
2920.903 70674440 70167288 69546112 68800056 67927752 66937624 65848364 
2924.278 64685828 63477316 62252264 61036380 59849832 58708956 57624712 
2927.654 56603864 55650296 54765872 53950468 53203744 52524476 51911688 
2931.029 51364652 50883304 50467836 50119404 49838988 49627844 49486752 
2934.404 49415760 49413384 49476504 49599688 49774964 49991980 50238936 
2937.779 50502492 50769808 51029772 51273144 51494196 51690612 51862592 
2941.155 52012820 52144572 52261868 52367416 52462256 52545044 52611576 
2944.530 52655340 52667644 52639816 52564416 52437696 52260672 52040572 
2947.905 51789752 51523556 51259460 51013412 50797260 50618480 50478628 
2951.280 50374732 50299500 50243552 50196572 50148112 50089056 50012132 
2954.656 49911836 49785032 49630480 49448280 49239740 49006812 48751620 
2958.031 48476644 48184516 47878488 47562180 47239708 46915300 46593016 
2961.406 46276496 45968496 45671056 45385812 45113844 44856408 44615096 
2964.781 44391352 44187092 44004268 43844244 43707764 43594556 43503096 
2968.156 43429740 43369764 43316896 43264588 43205912 43135428 43049292 
2971.532 42945728 42825292 42690376 42545164 42394552 42244764 42102144 
2974.907 41972456 41860536 41768816 41695792 41635068 41576068 41503512 
2978.282 41398824 41244348 41024556 40728952 40354496 39904984 39391900 
2981.657 38831016 38241652 37644376 37057336 36496428 35974180 35498108 
2985.033 35072924 34700184 34380412 34113636 33900644 33742296 33638632 
2988.408 33586400 33577168 33593812 33612432 33602980 33531490 33369020 
2991.783 33094458 32699656 32191624 31591628 30931828 30246848 29571354 
2995.158 28932996 28348518 27825336 27361784 26950690 26581828 26245378 
2998.534 25933460 25639794 25360730 25093780 24837238 24589686 24349982 
3001.909 24116892 23889702 23667844 23451102 23239394 23032718 22831378 
3005.284 22635786 22446388 22264118 22089560 21923366 21765734 21616448 
3008.659 21475012 21340618 21212632 21090214 20972732 20859524 20750066 
3012.035 20643588 20539498 20437518 20337574 20240292 20146746 20058182 
3015.410 19976194 19902128 19836746 19780460 19732850 19692770 19658584 
3018.785 19627904 19598024 19566134 19529742 19486974 19436384 19377654 
3022.160 19310688 19236218 19155006 19067754 18975254 18878660 18779524 
3025.536 18680238 18583672 18492800 18410828 18339518 18279246 18228448 
3028.911 18184356 18142518 18098196 18047418 17987220 17916050 17834222 
3032.286 17743056 17644456 17540322 17432076 17320892 17207494 17092852 
3035.661 16977928 16864656 16755132 16651385 16555475 16468776 16392004 
3039.037 16325084 16267566 16218757 16177554 16142854 16113728 16088832 
3042.412 16067274 16048227 16031105 16015496 16000921 15986688 15971838 
3045.787 15955305 15935883 15912682 15885770 15855769 15823912 15791750 
3049.162 15760379 15730349 15701080 15671330 15639557 15604384 15564407 
3052.538 15519077 15467983 15410887 15348031 15279934 15207387 15131798 
3055.913 15055056 14978979 14905486 14835642 14770092 14708735 14651225 
3059.288 14597457 14547019 14499877 14455651 14413689 14372863 14331869 
3062.663 14289646 14245818 14200591 14155026 14110493 14068051 14028558 
3066.039 13992695 13960359 13931926 13907704 13887655 13871782 13859432 
3069.414 13849238 13839489 13828338 13814724 13798375 13780383 13762086 
3072.789 13745601 13732161 13722415 13716293 13713250 13712463 13713215 
3076.164 13714960 13717216 13719303 13720705 13720671 13718277 13713284 
3079.540 13705385 13694579 13680969 13664762 13645716 13624175 13600278 
3082.915 13574433 13547289 13519465 13491710 13464436 13438324 13413719 
3086.290 13391404 13372166 13356756 13345344 13337417 13332087 13327816 
3089.665 13323306 13317566 13310869 13303798 13297443 13292694 13289995 
3093.041 13288765 13288389 13288048 13287706 13288082 13290200 13295701 
3096.416 13304994 13318113 13333898 13350469 13366255 13380060 13391063 
3099.791 13399708 13406578 13412728 13419051 13426056 13434292 13444033 
3103.166 13455721 13469289 13484806 13501861 13519943 13538129 13555836 
3106.542 13572039 13586466 13598808 13608824 13616893 13623389 13628655 
3109.917 13633578 13639151 13646127 13655666 13668659 13685619 13706889 
3113.292 13732503 13761812 13793757 13827140 13860391 13891897 13920669 
3116.667 13945954 13967819 13986981 14003885 14019387 14033999 14047688 
3120.042 14060180 14071508 14081879 14091907 14102791 14115592 14131133 
3123.418 14149720 14170978 14193915 14217332 14239861 14260815 14279887 
3126.793 14297145 14313274 14329232 14346081 14364404 14384816 14406942 
3130.168 14430371 14453800 14476444 14497547 14517246 14536262 14556133 
3133.543 14577925 14603077 14632000 14664728 14700749 14739482 14780000 
3136.919 14821413 14862900 14903086 14940361 14973490 15001272 15023669 
3140.294 15041746 15057457 15073271 15091486 15113648 15140203 15171254 
3143.669 15205910 15243659 15284361 15327882 15374086 15422525 15472309 
3147.044 15521996 15570417 15616680 15660957 15704172 15747700 15792608 
3150.420 15839754 15888967 15939457 15990298 16040388 16089108 16136458 
3153.795 16182678 16228663 16275272 16323468 16374078 16427686 16484469 
3157.170 16544117 16605871 16668634 16731268 16793324 16854426 16915226 
3160.545 16976896 17040402 17106466 17175298 17246694 17320134 17395380 
3163.921 17472192 17550778 17631240 17713580 17797320 17881762 17966188 
3167.296 18049802 18132190 18213070 18291962 18368656 18442010 18510950 
3170.671 18573886 18630014 18678716 18720676 18756862 18788934 18818240 
3174.046 18845576 18871080 18894058 18913438 18928184 18937702 18942166 
3177.422 18942962 18942026 18941820 18944656 18951996 18964316 18981242 
3180.797 19001736 19024478 19048712 19073950 19100298 19128310 19158296 
3184.172 19190190 19223714 19258282 19293576 19329672 19367088 19406272 
3187.547 19447920 19492000 19538060 19585510 19633694 19682924 19733786 
3190.923 19787224 19843926 19904176 19967450 20032504 20097812 20162192 
3194.298 20224672 20285424 20344622 20402336 20458946 20514418 20568716 
3197.673 20622150 20675244 20729074 20784338 20841414 20900306 20960458 
3201.048 21021140 21082108 21143644 21205918 21269764 21335466 21402676 
3204.424 21470696 21538586 21605270 21670256 21733860 21795974 21857156 
3207.799 21917508 21977070 22036152 22095520 22156046 22219304 22285986 
3211.174 22356342 22429118 22502812 22575400 22645526 22712902 22778298 
3214.549 22843322 22909472 22977728 23048232 23120074 23192138 23263410 
3217.925 23333436 23401968 23468938 23534554 23598500 23660706 23721068 
3221.300 23780316 23839750 23900728 23964554 24031892 24102496 24175214 
3224.675 24248680 24321912 24394246 24466102 24538214 24611530 24686508 
3228.050 24762868 24839800 24916430 24991848 25065170 25136400 25205816 
3231.426 25273730 25341342 25409138 25477894 25547994 25619408 25691538 
3234.801 25764170 25836288 25907818 25978800 26049686 26121500 26194836 
3238.176 26270264 26347534 26425772 26504128 26581580 26657884 26733040 
3241.551 26807258 26881030 26954812 27028892 27103724 27179556 27257342 
3244.927 27337612 27420968 27507410 27596484 27687374 27779026 27871158 
3248.302 27963556 28056682 28151170 28247092 28344344 28441866 28538668 
3251.677 28633934 28727416 28819428 28910826 29002382 29094348 29186512 
3255.052 29278338 29368802 29457514 29544222 29629312 29713038 29796354 
3258.427 29879260 29962218 30045120 30128180 30211610 30295910 30381042 
3261.803 30466940 30553208 30639282 30724412 30808278 30890452 30970790 
3265.178 31049400 31125996 31200112 31271964 31341724 31410250 31478432 
3268.553 31547512 31617784 31689168 31760816 31831152 31898688 31962418 
3271.928 32022160 32078162 32131750 32183736 32234978 32285798 32336236 
3275.304 32386318 32436014 32485504 32535244 32585744 32637466 32690584 
3278.679 32744818 32799698 32854446 32908198 32960172 33009612 33056412 
3282.054 33100892 33144020 33187184 33231896 33279792 33331558 33387088 
3285.429 33445164 33504256 33562564 33618588 33671576 33721740 33769944 
3288.805 33817292 33865108 33914080 33964884 34017628 34072136 34128292 
3292.180 34185896 34244836 34304896 34365856 34427436 34489528 34552308 
3295.555 34615816 34680736 34747348 34815948 34886208 34957736 35029352 
3298.930 35099864 35168016 35233160 35295076 35354596 35413192 35472832 
3302.306 35535468 35602896 35676524 35757212 35845044 35939408 36039480 
3305.681 36143388 36249344 36355500 36460208 36562524 36662092 36759480 
3309.056 36856024 36953640 37053872 37157952 37266684 37380348 37499068 
3312.431 37622908 37751956 37886864 38027780 38174784 38327232 38484440 
3315.807 38645108 38808188 38972924 39138924 39306544 39476296 39648768 
3319.182 39824792 40004776 40188944 40377512 40570096 40766000 40963996 
3322.557 41162812 41360624 41556488 41749592 41939648 42127152 42312328 
3325.932 42495392 42676304 42854440 43029316 43200716 43368300 43532140 
3329.308 43692560 43849556 44002800 44151472 44294840 44431944 44562080 
3332.683 44684724 44798952 44904204 44998976 45082300 45153324 45211784 
3336.058 45257932 45292648 45316956 45331524 45336560 45332076 45317804 
3339.433 45293752 45260212 45217740 45167040 45108036 45040252 44962816 
3342.809 44874300 44773788 44660740 44534800 44396232 44245348 44082412 
3346.184 43907920 43722424 43527160 43323816 43114128 42899240 42679852 
3349.559 42455496 42225152 41987420 41741388 41487144 41225728 40958864 
3352.934 40688232 40415660 40141840 39867392 39592724 39318512 39045240 
3356.310 38774240 38506488 38243024 37984312 37730528 37481584 37237260 
3359.685 36997476 36761536 36529256 36300204 36073896 35850368 35630052 
3363.060 35413404 35201432 34994980 34794480 34599528 34409608 34223180 
3366.435 34039916 33859344 33681424 33507008 33336316 33169628 33006572 
3369.811 32846510 32688688 32532174 32376680 32222096 32068494 31915982 
3373.186 31764880 31615324 31467888 31322956 31181316 31043244 30908666 
3376.561 30777120 30647388 30518372 30389110 30259210 30129068 29998714 
3379.936 29868898 29739224 29609308 29478258 29345370 29210220 29073552 
3383.312 28936324 28799920 28665186 28532724 28402600 28274390 28147918 
3386.687 28023316 27901084 27781712 27665550 27552278 27440590 27329390 
3390.062 27216842 27101890 26984428 26864956 26744634 26625298 26508142 
3393.437 26394152 26283640 26175974 26070198 25965502 25861008 25756646 
3396.813 25652412 25549154 25447430 25348472 25252168 25158658 25066856 
3400.188 24975914 24884430 24791772 24697696 24602380 24506556 24410650 
3403.563 24315008 24219320 24122634 24024118 23922786 23818606 23711968 
3406.938 23603992 23496148 23390114 23287008 23187560 23091768 22999214 
3410.313 22908844 22819854 22730952 22641512 22550970 22459018 22365378 
3413.689 22269978 22172472 22072860 21971042 21867330 21762494 21657334 
3417.064 21552932 21450086 21349352 21250590 21153174 21056476 20959868 
3420.439 20863348 20767478 20673298 20582298 20495556 20413624 20336046 
3423.814 20261920 20189750 20117386 20043504 19967000 19887352 19805118 
3427.190 19721166 19636882 19553482 19472074 19393140 19316334 19241136 
3430.565 19166434 19091608 19016204 18940090 18864020 18788380 18713548 
3433.940 18639422 18565344 18490724 18415012 18338238 18261102 18184876 
3437.315 18111116 18040856 17974822 17912596 17852934 17794072 17733840 
3440.691 17670718 17603496 17532180 17457360 17380654 17303202 17226420 
3444.066 17151066 17076412 17001842 16925802 16847502 16766978 16685678 
3447.441 16605493 16528800 16457522 16392279 16332136 16274927 16218208 
3450.816 16159808 16097980 16032686 15964413 15894260 15823156 15751617 
3454.192 15679231 15605998 15531165 15454832 15377484 15299497 15221524 
3457.567 15144218 15067816 14992457 14917865 14843768 14769750 14694682 
3460.942 14618120 14539379 14458152 14375192 14291871 14209663 14130517 
3464.317 14055457 13984585 13917419 13852488 13788113 13723304 13657444 
3467.693 13590364 13521994 13452337 13380914 13307795 13232468 13155138 
3471.068 13076217 12997277 12919204 12843125 12769653 12698649 12629738 
3474.443 12562270 12495802 12429787 12363953 12297821 12231427 12164532 
3477.818 12097137 12029615 11962206 11895047 11827761 11759873 11690429 
3481.194 11619296 11546609 11473696 11402665 11335456 11273324 11216606 
3484.569 11163602 11112134 11059619 11004254 10945295 10883525 10820404 
3487.944 10757326 10695277 10633745 10571714 10508264 10442415 10375218 
3491.319 10307964 10242485 10181051 10124341 10072249 10023216 9975612 
3494.695 9927607 9878319 9827579 9776066 9725033 9675293 9627219 9580777 
3498.552 9535220 9489634 9443172 9394888 9343730 9289465 9231516 9169955 
3502.409 9105527 9039788 8975277 8914902 8861840 8818150 8784338 8759014 
3506.267 8738459 8718513 8694714 8663514 8623968 8577193 8526301 8475618 
3510.124 8428724 8387476 8352346 8321238 8291314 8260447 8226847 8190177 
3513.982 8151451 8111984 8073062 8035932 8001034 7968635 7939445 7913764 
3517.839 7892068 7874658 7860724 7848712 7836432 7821082 7800233 7772268 
3521.697 7736817 7694387 7646903 7596525 7545477 7495279 7447109 7400629 
3525.554 7355402 7310111 7263680 7215603 7165308 7113099 7059818 7006343 
3529.411 6953479 6902373 6853191 6806708 6763023 6722539 6685087 6649994 
3533.269 6616215 6582406 6546883 6508572 6467069 6423284 6378729 6335894 
3537.126 6296088 6260724 6229833 6202574 6177332 6152295 6126015 6097654 
3540.984 6066606 6032974 5997261 5959737 5921075 5881677 5841544 5800877 
3544.841 5759442 5717137 5674233 5631568 5590820 5553667 5521349 5494068 
3548.698 5469875 5445549 5417466 5382207 5337759 5284763 5226173 5166384 
3552.556 5110392 5061915 5022595 4992228 4969236 4951305 4936693 4924294 
3556.413 4912967 4902445 4891353 4878318 4862402 4842968 4820219 4795393 
3560.271 4770468 4747052 4726920 4710541 4698114 4688937 4682004 4675272 
3564.128 4666229 4650789 4624567 4583277 4524145 4447949 4359551 4267222 
3567.986 4180565 4107707 4053290 4017505 3997039 3986840 3981490 3976507 
3571.843 3968783 3956979 3940830 3920668 3896796 3870018 3841068 3810515 
3575.700 3779764 3749417 3720542 3693841 3669146 3646524 3625909 3607566 
3579.558 3591964 3579937 3571752 3567943 3568545 3572954 3580672 3590661 
3583.415 3601586 3611008 3615919 3612010 3594503 3559458 3504908 3432698 
3587.273 3348980 3263776 3188401 3132062 3099724 3091181 3101526 3122851 
3591.130 3146380 3164203 3170244 3161165 3136835 3100025 3055643 3009064 
3594.988 2966092 2930998 2905913 2890936 2884099 2881497 2878662 2871124 
3598.845 2855748 2831401 2799652 2764405 2731327 2705920 2692284 2692217 
3602.702 2705120 2727959 2756902 2788081 2817327 2840873 2855148 2856348 
3606.560 2841373 2809057 2760903 2701919 2640277 2585442 2543913 2518884 
3610.417 2507319 2502587 2496522 2482192 2456767 2422713 2386863 2357246 
3614.275 2341588 2343254 2359944 2385997 2412351 2429877 2430576 2409286 
3618.132 2365607 2304079 2233534 2164964 2109224 2073466 2059717 2065609 
3621.990 2085518 2113053 2143387 2174521 2207523 2245590 2291121 2343587 
3625.847 2397058 2440006 2455801 2428344 2346885 2214517 2051560 1890329 
3629.704 1764155 1692101 1674205 1696258 1738372 1781821 1812597 1824775 
3633.562 1820050 1805177 1788375 1776864 1773504 1777030 1783318 1788342 
3637.419 1789374 1786279 1781389 1777796 1777729 1781821 1788708 1796427 
3641.277 1803514 1809969 1818387 1832062 1855022 1889297 1934459 1987214 
3645.134 2041140 2089547 2124607 2139557 2130234 2093809 2030354 1942446 
3648.991 1835623 1719178 1605990 1511418 1449246 1427305 1446620 1499615 
3652.849 1573632 1651854 1717681 1757335 1761627 1729790 1670014 1598740 
3656.706 1534028 1491103 1477006 1490804 1525051 1569708 1615734 1656311 
3660.564 1687244 1708067 1720608 1727960 1733549 1741067 1752844 1770776 
3664.421 1796926 1832661 1879447 1937388 2004856 2076962 2147116 2207723 
3668.279 2254216 2290055 2329329 2398957 2532781 2758469 3091482 3530529 
3672.136 4063022 4670047 5330514 6020173 6699354 7309033 7774899 8019158 
3675.993 7995094 7704505 7191718 6520378 5754338 4953584 4169592 3450031 
3679.851 2836771 2353514 2004889 1774236 1633428 1549989 1498983 1466999 
3683.708 1450276 1450509 1468595 1500446 1535658 1561029 1562659 1531934 
3687.566 1468096 1379604 1280860 1186891 1108388 1049528 1008743 982640 
3691.423 968759 965737 972711 988584 1010703 1034981 1058397 1078359 1094503 
3695.763 1108720 1124300 1144133 1169282 1198819 1228689 1253777 1268066 
3699.620 1266438 1246666 1209451 1159315 1104368 1053979 1016448 997285 
3703.478 997784 1016050 1047735 1087859 1132572 1178983 1225433 1271323 
3707.335 1315689 1356403 1389808 1411182 1415238 1397952 1357500 1296413 
3711.192 1220914 1141774 1070553 1017710 990013 988584 1009972 1047270 
3715.050 1092244 1137522 1177056 1207922 1230118 1246035 1258795 1271356 
3718.907 1284848 1298241 1309042 1314825 1314559 1309142 1302129 1296978 
3722.765 1296978 1302362 1310704 1316885 1316154 1305021 1283652 1256801 
3726.622 1232245 1219652 1226131 1254807 1302960 1363250 1425277 1478236 
3730.479 1514145 1529041 1525516 1510753 1494361 1482991 1477239 1469958 
3734.337 1451108 1411880 1349457 1271423 1192007 1128519 1092742 1088092 
3738.194 1111012 1154996 1214069 1284981 1367438 1460516 1558801 1651355 
3742.052 1719510 1739936 1693298 1573001 1398983 1215531 1079289 1028072 
3745.909 1066468 1170677 1304655 1434020 1530371 1577590 1571837 1520662 
3749.767 1438907 1343640 1248394 1161309 1088125 1035147 1008876 1015385 
3753.624 1054843 1121078 1202473 1284217 1354209 1403670 1429466 1434120 
3757.481 1423116 1402606 1375981 1345368 1311800 1278302 1250953 1236531 
3761.339 1240452 1263481 1300268 1341314 1375548 1394528 1395094 1381465 
3765.196 1362685 1349955 1350985 1366740 1391204 1414274 1425909 1418695 
3769.054 1391504 1349091 1301431 1259559 1231813 1222409 1230916 1253212 
3772.911 1283951 1317949 1350819 1380435 1405797 1427504 1446154 1461414 
3776.769 1471653 1473848 1464805 1442730 1409653 1370729 1334600 1310205 
3780.626 1302860 1312731 1334999 1361588 1383892 1395925 1395559 1384556 
3784.483 1367970 1351351 1338788 1331974 1330046 1331243 1333935 1337624 
3788.341 1342510 1349024 1357001 1365544 1374385 1383360 1393797 1407925 
3792.198 1427870 1453667 1483124 1511086 1530936 1537620 1529373 1509689 
3796.056 1487679 1475410 1482625 1513313 1562758 1619160 1665324 1682521 
3799.913 1656444 1582245 1469426 1342576 1235601 1177953 1182339 1243177 
3803.771 1339918 1446553 1535225 1584839 1583775 1534028 1451274 1361389 
3807.628 1290531 1254110 1254475 1282755 1326291 1374186 1421122 1467398 
3811.485 1517004 1573167 1635457 1697256 1746855 1770742 1757967 1706670 
3815.343 1627142 1542607 1480763 1462611 1494195 1565386 1654348 1734181 
3819.200 1779925 1773737 1709930 1599472 1470157 1357799 1290465 1279531 
3823.058 1318414 1387747 1464472 1528642 1568245 1579984 1570108 1550754 
3826.915 1536755 1538717 1560165 1596778 1639747 1678429 1704009 1712425 
3830.772 1704907 1687144 1667520 1654548 1654548 1669881 1699119 1736609 
3834.630 1775101 1804978 1817355 1806542 1770642 1713855 1646266 1582112 
3838.487 1533862 1509490 1509556 1528243 1556174 1582844 1600403 1604061 
3842.345 1592787 1569176 1538916 1508791 1485617 1475444 1481428 1504236 
3846.202 1541809 1589961 1644736 1702978 1764122 1829467 1901477 1981289 
3850.060 2065010 2142554 2195801 2202761 2140590 1998198 1786013 1543040 
3853.917 1321538 1166890 1098522 1108089 1171807 1263248 1361987 1454931 
3857.774 1535924 1604327 1661466 1709531 1749450 1781721 1806342 1823544 
3861.632 1833293 1834957 1827104 1807673 1775899 1734414 1691402 1658506 
3865.489 1647264 1664825 1709198 1769212 1826505 1862442 1861145 1817621 
3869.347 1740235 1651455 1578920 1541643 1544436 1576559 1619526 1653750 
3873.204 1667087 1657242 1633129 1610380 1604560 1625712 1674571 1742697 
3877.062 1816157 1880445 1922511 1933527 1911395 1861544 1796161 1731586 
3880.919 1684084 1664859 1676866 1714088 1763257 1808505 1833460 1826805 
3884.776 1786446 1721939 1652985 1601933 1586569 1612309 1671810 1748585 
3888.634 1824110 1880845 1905904 1894955 1852360 1790738 1725498 1672110 
3892.491 1640446 1633794 1650723 1686712 1736776 1796261 1860745 1925672 
3896.349 1986215 2036546 2071902 2088482 2085185 2064977 2033817 1999563 
3900.206 1969007 1946340 1931230 1919382 1904107 1879480 1842510 1794897 
3904.063 1742631 1694762 1659903 1643339 1646033 1665025 1694994 1729923 
3907.921 1765153 1797525 1826006 1850164 1870529 1887800 1902576 1915422 
3911.778 1927902 1941681 1958056 1977494 1998930 2019070 2033550 2037978 
3915.636 2029389 2007852 1976063 1939151 1902842 1871893 1849099 1835855 
3919.493 1831896 1836920 1850230 1871228 1897384 1925107 1949702 1965812 
3923.351 1970072 1961751 1943578 1921113 1901145 1889064 1887434 1894921 
3927.208 1908333 1923409 1936888 1946906 1953330 1956658 1957091 1954229 
3931.065 1946906 1934525 1917785 1899248 1882908 1872725 1871161 1878316 
3934.923 1891860 1907668 1921812 1931829 1937288 1939484 1941448 1945309 
3938.780 1952232 1961252 1970039 1974865 1972934 1962516 1944144 1920647 
3942.638 1896652 1877151 1866835 1867800 1879813 1900413 1925040 1948670 
3946.495 1967076 1977128 1978526 1972568 1962017 1949735 1938020 1928268 
3950.353 1920514 1915122 1911761 1910995 1913492 1919083 1927403 1936422 
3954.210 1944177 1948604 1948404 1943878 1936289 1927869 1920281 1915056 
3958.067 1912327 1911828 1913026 1915954 1920281 1926404 1933760 1941881 
3961.925 1949469 1955593 1959854 1962683 1965678 1970771 1979358 1992074 
3965.782 2007752 2024695 2040508 2053059 2061481 2065842 2067374 2067640 
3969.640 2067940 2069072 2071003 2073267 2074698 2074698 2072334 2067907 
3973.497 2061947 2055888 2051461 2050262 2053558 2061248 2072800 2086118 
3977.354 2099236 2110456 2118580 2123808 2127037 2129402 2131766 2134762 
3981.212 2137959 2140689 2142454 2142854 2142021 2140356 2137959 2134862 
3985.069 2131166 2127037 2122875 2119646 2117881 2117981 2119812 2122143 
3988.927 2123674 2123075 2119746 2114119 2107293 2101133 2096272 2093276 
3992.784 2091112 2088815 2086018 2082189 2078494 2075797 2075198 2076729 
3996.642 2079393 2081623 2081790 2078893 2073100 2065177 2057020 2050195 
4000.499 2046001 
##END=
