
##TITLE=mdmaHCL00394_5
##JCAMP-DX=5.01  $$ Nicolet v. 1
##DATATYPE=INFRARED SPECTRUM
##ORIGIN=UniL
##OWNER=Nicolet
##LONGDATE=2011/08/24
##TIME=09:09:28
##SPECTROMETER/DATA SYSTEM=Nicolet iS5
##DATA PROCESSING=
Ratio against background
%Transmittance->Absorbance
Truncated
ElementMultiply or ElementDivide
##COMMENTS=
Number of sample scans: 32
Collection length: 51.18 sec
Sample gain: 2.0
Background collected on: Mer Aout 24 09:07:49 2011 (GMT+02:00);
Number of background scans: 32
Background gain: 2.0
Sample spacing:  1.000
Number of scan points: 12415
Resolution points: 8192
Number of FFT points: 65536
Apodization: N-B fort;
Phase correction: Mertz;
Laser frequency: 15798.0 cm-1
Number of rejected sample scans: 0
Number of rejected background scans: 0
Bench serial number: ASB1000141;
##RESOLUTION=4.000
##XUNITS=1/CM
##YUNITS=ABSORBANCE
##FIRSTX=649.893372
##LASTX=4000.122314
##FIRSTY=0.074671
##MAXX=4000.122314
##MINX=649.893372
##MAXY=0.264842
##MINY=0.002397
##XFACTOR=1.000000
##YFACTOR=1.000000E-009
##NPOINTS=6950
##DELTAX=0.482117
##ZPD=6100
##XYDATA=(X++(Y..Y))
649.893 74671000 74821312 74996392 75218512 75495504 75822296 76189184 
653.268 76594520 77049088 77575720 78192864 78904744 79692904 80524008 
656.643 81363656 82194400 83025824 83888816 84823328 85855496 86990592 
660.018 88212000 89496088 90827400 92210696 93665752 95215288 96866688 
663.393 98603104 100384768 102166184 103910320 105587456 107174600 108636792 
666.767 109905384 110885080 111478608 111633944 111369880 110752944 
669.660 109847096 108683640 107261296 105570512 103618736 101452504 99155960 
673.035 96825160 94550792 92387160 90347208 88417832 86579936 84826352 
676.410 83166480 81619800 80201784 78914400 77743440 76665272 75655904 
679.785 74702760 73803928 72965856 72195288 71493688 70855272 70270352 
683.159 69730048 69229792 68770584 68355272 67984704 67655552 67360144 
686.534 67090260 66841416 66614388 66414000 66245504 66109256 65997264 
689.909 65894632 65781124 65638652 65455088 65224812 64949408 64632840 
693.284 64280084 63894712 63481608 63047908 62603384 62160728 61731396 
696.659 61322064 60935340 60568656 60218648 59885048 59571920 59287128 
700.034 59040324 58836948 58676336 58550132 58446064 58350700 58253764 
703.408 58151360 58044700 57938708 57837740 57744060 57656456 57572276 
706.783 57489204 57407476 57331208 57267088 57223540 57208456 57229812 
710.158 57296764 57421620 57623500 57926288 58354716 58926232 59639196 
713.533 60462432 61326948 62137064 62777632 63135684 63133308 62738768 
716.908 61982024 60945824 59761608 58583764 57557332 56814768 56452036 
720.282 56518412 57016896 57894980 59046664 60303952 61463384 62312920 
723.657 62653860 62360040 61400296 59854316 57889904 55730344 53606728 
727.032 51691920 50090660 48829028 47874496 47162136 46623004 46206360 
730.407 45877600 45616912 45411228 45245652 45103588 44971896 44843476 
733.782 44719284 44606064 44509948 44430808 44361848 44291688 44211376 
737.156 44119600 44023776 43935964 43867116 43821300 43793004 43770904 
740.531 43743200 43703480 43653836 43601700 43554848 43517892 43489176 
743.906 43463764 43437944 43413336 43396676 43398728 43426704 43480496 
747.281 43551848 43627932 43696808 43752912 43798980 43842852 43892812 
750.656 43951472 44014680 44073904 44121692 44155728 44180968 44206352 
754.031 44239772 44283724 44333920 44382104 44421816 44452684 44481716 
757.405 44520336 44578420 44660444 44764092 44883268 45013388 45155384 
760.780 45316036 45504640 45726712 45981352 46260832 46556976 46867056 
764.155 47200592 47577336 48025500 48574272 49245640 50055368 51011024 
767.530 52112632 53350208 54700816 56127576 57583700 59034968 60486880 
770.905 62016576 63775660 65971808 68814960 72414168 76698008 81337240 
774.279 85791504 89341232 91261928 91064304 88596736 84137768 78276424 
777.654 71804896 65488644 59892500 55369756 52013756 49730524 48313004 
781.029 47532308 47195012 47154568 47323280 47648216 48091676 48625412 
784.404 49229868 49897860 50636688 51465208 52405244 53471944 54673756 
787.779 56014472 57500516 59149048 60990092 63060468 65402232 68054664 
791.154 71053120 74438112 78256464 82561384 87407032 92826200 98808224 
794.528 105270248 112054456 118917192 125528352 131526368 136518160 
797.421 140121904 142042720 142093552 140253776 136676192 131684424 
800.314 125722112 119256120 112760488 106625128 101108992 96352728 92361336 
803.689 89039856 86225864 83747512 81465920 79298304 77236400 75331640 
807.063 73669752 72326104 71340272 70690240 70295864 70027544 69732536 
810.438 69279384 68567112 67548112 66225284 64639844 62855356 60938352 
813.813 58956708 56970916 55031772 53186624 51473564 49920348 48544892 
817.188 47352136 46336768 45486244 44786756 44225904 43795312 43490972 
820.563 43311004 43254408 43321472 43514116 43839076 44308564 44941136 
823.938 45758192 46779036 48015284 49463468 51101248 52878964 54720056 
827.312 56524152 58162308 59499528 60412240 60803256 60633496 59929360 
830.687 58787440 57349132 55786740 54276800 52961044 51944400 51278328 
834.062 50957892 50927116 51085668 51311512 51464012 51413324 51065696 
837.437 50371792 49342924 48042452 46576856 45065540 43615876 42313900 
840.812 41205728 40302976 39591852 39045532 38634532 38332880 38121500 
844.186 37984964 37910040 37885820 37903316 37957808 38048252 38176344 
847.561 38343120 38547328 38783336 39044228 39324900 39624048 39946068 
850.936 40298540 40689612 41123656 41600500 42116092 42665888 43248040 
854.311 43864844 44521804 45226456 45985436 46804168 47688784 48649096 
857.686 49699500 50861512 52161124 53624012 55276192 57141520 59240756 
861.060 61593800 64214164 67100704 70223216 73510984 76844344 80044344 
864.435 82902920 85199392 86723616 87326928 86932264 85553136 83287928 
867.810 80311512 76852408 73142040 69409904 65848744 62592244 59727812 
871.185 57292000 55281804 53668024 52406888 51452264 50756960 50279488 
874.560 49984140 49836832 49808592 49876116 50021648 50236556 50519724 
877.935 50876004 51310952 51828392 52427116 53100648 53838384 54628664 
881.309 55460928 56326212 57217604 58128632 59052164 59978276 60894548 
884.684 61784756 62630860 63415656 64125164 64755520 65315804 65831976 
888.059 66342236 66891552 67524344 68270928 69142136 70126752 71195192 
891.434 72304424 73406752 74460296 75427424 76276496 76981712 77517208 
894.809 77858024 77982544 77871856 77514520 76908496 76063472 75001072 
898.183 73757040 72382312 70936960 69486376 68097440 66824144 65706296 
901.558 64765520 64004928 63414352 62976384 62673500 62490724 62418492 
904.933 62450664 62582828 62810368 63129516 63537448 64034880 64625420 
908.308 65315380 66110752 67014360 68025512 69140344 70354920 71666768 
911.683 73077416 74590232 76208688 77934016 79764720 81698936 83739120 
915.058 85895752 88190608 90652968 93318432 96221664 99390040 102841272 
918.432 106576968 110579712 114800408 119152576 123510536 127696544 
921.325 131510632 134758432 137280000 139003296 139966752 140336816 
924.218 140373840 140415088 140833360 141953968 144042720 147257408 
927.110 151619728 157002720 163116256 169546208 175721296 180981600 
930.003 184678576 186189280 185062752 181099840 174383968 165293440 
932.896 154428400 142560112 130457656 118806272 108171832 98907656 91198232 
936.271 85086400 80507808 77343520 75454144 74713184 74999544 76187328 
939.646 78135272 80643112 83446704 86245952 88696264 90480632 91368024 
943.020 91232288 90090472 88083904 85459344 82501400 79482648 76640408 
946.395 74127960 72024800 70346864 69065480 68128728 67477976 67063236 
949.770 66841500 66778236 66845940 67019620 67277072 67600920 67977736 
953.145 68399216 68861592 69362672 69900296 70470656 71068496 71688384 
956.520 72326376 72980592 73651344 74338936 75042944 75761024 76489352 
959.894 77223616 77961776 78704400 79454400 80215576 80990576 81779408 
963.269 82580056 83388888 84203160 85022200 85846816 86678672 87518600 
966.644 88365760 89217592 90072448 90930288 91794016 92668760 93560768 
970.019 94473848 95409608 96366784 97343912 98340736 99360008 100406440 
973.394 101485528 102600720 103752088 104937872 106155800 107405744 
976.286 108691216 110018192 111391592 112812856 114277720 115776128 
979.179 117294608 118819816 120340656 121847360 123330872 124779816 
982.072 126179232 127513544 128769088 129938440 131022944 132031040 
984.964 132975728 133869024 134720288 135536416 136323744 137091568 
987.857 137854224 138627936 139429344 140270112 141155312 142084144 
990.750 143053744 144062752 145114064 146213296 147366112 148573808 
993.643 149831552 151129792 152457312 153806336 155174640 156564816 
996.535 157980112 159420688 160880880 162350864 163819808 165281216 
999.428 166735328 168188192 169648288 171121472 172609408 174110736 
1002.321 175624288 177154240 178710800 180308240 181960496 183675648 
1005.213 185453200 187286768 189169072 191097712 193077168 195117184 
1008.106 197226816 199408208 201653824 203946528 206264992 208591344 
1010.999 210911616 213216208 215495856 217735184 219912928 222006640 
1013.891 223997520 225879872 227661936 229362816 231002608 232594256 
1016.784 234138960 235627232 237045104 238381200 239630400 240793072 
1019.677 241870224 242859520 243757056 244562064 245285232 245956224 
1022.570 246622768 247338320 248156288 249112864 250221312 251475360 
1025.462 252854400 254332896 255881840 257469808 259056352 260583520 
1028.355 261982496 263175312 264085360 264654224 264841712 264625792 
1031.249 263998176 262957600 261509568 259670528 257474448 254974432 
1034.142 252232400 249312080 246258304 243086912 239782976 236308240 
1037.035 232617600 228668384 224435696 219915264 215123008 210093136 
1039.928 204878992 199556016 194212352 188947920 183863376 179034784 
1042.821 174510240 170298560 166373664 162684656 159172320 155788720 
1045.714 152502592 149306000 146210224 143238928 140420816 137781360 
1048.607 135343472 133122232 131124480 129347904 127780048 126398864 
1051.500 125173968 124073784 123068576 122134248 121256104 120424984 
1054.393 119634824 118879152 118148064 117428552 116706528 115968224 
1057.286 115200336 114391704 113529632 112600504 111591616 110492488 
1060.179 109299864 108019680 106667480 105264888 103836160 102404824 
1063.072 100990152 99607864 98271720 96993560 95783632 94649376 93592208 
1066.448 92607072 91681624 90800080 89946288 89108120 88280088 87464248 
1069.823 86667744 85899840 85171288 84491864 83870168 83315176 82835552 
1073.198 82438464 82129304 81909712 81776768 81723888 81741248 81816608 
1076.573 81934032 82074624 82213664 82320496 82364112 82314896 82152320 
1079.948 81871456 81484120 81018688 80512080 80007816 79547624 79166640 
1083.324 78896832 78764784 78793736 79006680 79424360 80065424 80946664 
1086.699 82080352 83474168 85128120 87030512 89150584 91429328 93781816 
1090.074 96090136 98213096 100015480 101374168 102208024 102493208 102265344 
1093.449 101616096 100671064 99585112 98511136 97580336 96901976 96544992 
1096.825 96538408 96875184 97515336 98391808 99411912 100473872 101466024 
1100.200 102273144 102795768 102948816 102675416 101956504 100811544 
1103.093 99298200 97497008 95508144 93432392 91356008 89353968 87480096 
1106.468 85768456 84238360 82894664 81731608 80734000 79880272 79145048 
1109.844 78499032 77914192 77363320 76819424 76258608 75658280 74997536 
1113.219 74261008 73440344 72536280 71559040 70528376 69469624 68408448 
1116.594 67370200 66376128 65441452 64578012 63793236 63091352 62474232 
1119.969 61941440 61490260 61116396 60813588 60573076 60381772 60221696 
1123.344 60067112 59883376 59633112 59276944 58781900 58130224 57322020 
1126.720 56377292 55330764 54228332 53117272 52036948 51018444 50079652 
1130.095 49226452 48455712 47758160 47121220 46530608 45972580 45435068 
1133.470 44908544 44387976 43873240 43368592 42881064 42419724 41992892 
1136.845 41606844 41266716 40975576 40735540 40548376 40414860 40334532 
1140.221 40305012 40322244 40381476 40477956 40608548 40772076 40968512 
1143.596 41197892 41459184 41749152 42063120 42395320 42739584 43090492 
1146.971 43442484 43789412 44124404 44439908 44728792 44986116 45210388 
1150.346 45404132 45573268 45725868 45870788 46015976 46168880 46335328 
1153.722 46520652 46728628 46961596 47219760 47500632 47799732 48111144 
1157.097 48428340 48745060 49055256 49351644 49626096 49868460 50067304 
1160.472 50211824 50292356 50301548 50234624 50088836 49862664 49555568 
1163.847 49168784 48705688 48172300 47578228 46935416 46255820 45552184 
1167.223 44835356 44114724 43399424 42698020 42019320 41372324 40764796 
1170.598 40202244 39687648 39221240 38801776 38427964 38100120 37820528 
1173.973 37593284 37423000 37313980 37268992 37289968 37378040 37534648 
1177.348 37761936 38062864 38440308 38897360 39437580 40065200 40786200 
1180.724 41609360 42544068 43600600 44788076 46112500 47578448 49189196 
1184.099 50947940 52858344 54922752 57140008 59500820 61985008 64561716 
1187.474 67184472 69795112 72327200 74699968 76829192 78631648 80027728 
1190.849 80959112 81394864 81337800 80823952 79917832 78704960 77271824 
1194.225 75701696 74063904 72403568 70746000 69096792 67448992 65789992 
1197.600 64109536 62405980 60689200 58980200 57306972 55702540 54197136 
1200.975 52814636 51571796 50475764 49526336 48717032 48037528 47475016 
1204.350 47013984 46637500 46326296 46058524 45813600 45572128 45318540 
1207.726 45043600 44743484 44419100 44074528 43715608 43349076 42981832 
1211.101 42622568 42281432 41969424 41699840 41485360 41337740 41268064 
1214.476 41285664 41398384 41613992 41938620 42376836 42931060 43601628 
1217.851 44387280 45286432 46298980 47426192 48670852 50035816 51522696 
1221.227 53131504 54861504 56712740 58687864 60792436 63034536 65421224 
1224.602 67956888 70639160 73458472 76397296 79427216 82510496 85596400 
1227.977 88617136 91495712 94143040 96464752 98377056 99806208 100698928 
1231.352 101030160 100805152 100065664 98887136 97386328 95709408 94012848 
1234.728 92468288 91234008 90443536 90212640 90625736 91741248 93598008 
1238.103 96214216 99588944 103696464 108486008 113870800 119721152 125881296 
1241.478 132156296 138321872 144153200 149410400 153864032 157324656 
1244.371 159643920 160742496 160616912 159337136 157032768 153870912 
1247.264 150055936 145799360 141306048 136774592 132359072 128159072 
1250.157 124207264 120462192 116818776 113125472 109230744 105005848 
1253.050 100378088 95350128 89997360 84456608 78887616 73464400 68339096 
1256.426 63617276 59363208 55591884 52280028 49378004 46824500 44558624 
1259.801 42521776 40667672 38961404 37377280 35899636 34518980 33229214 
1263.176 32025476 30902192 29852322 28869038 27946136 27080236 26270688 
1266.551 25519108 24827346 24196024 23623376 23106376 22642036 22228720 
1269.927 21867120 21559584 21309052 21115988 20979202 20894778 20857926 
1273.302 20864740 20911744 20996346 21115258 21263604 21434456 21619896 
1276.677 21812140 22004676 22192034 22368936 22529682 22667238 22774912 
1280.052 22847896 22885266 22890052 22867838 22824078 22760386 22673138 
1283.427 22553762 22392762 22183384 21925978 21628636 21306930 20980348 
1286.803 20667078 20382092 20135710 19933244 19777132 19667632 19603604 
1290.178 19581490 19595250 19637784 19700882 19778866 19869592 19974146 
1293.553 20096146 20238800 20403240 20587926 20789724 21005908 21235908 
1296.928 21481870 21748524 22040300 22361156 22713216 23097884 23516680 
1300.304 23971486 24463334 24990478 25545218 26113862 26675538 27206682 
1303.679 27685538 28094290 28421846 28664940 28826016 28912136 28934058 
1307.054 28906506 28847260 28775526 28712086 28673824 28671876 28710600 
1310.429 28787882 28896942 29029658 29179530 29341222 29510386 29682420 
1313.805 29850796 30007590 30145688 30259816 30347250 30408192 30443446 
1317.180 30452510 30433034 30381790 30296620 30179144 30036066 29877876 
1320.555 29716800 29564048 29426702 29308892 29213054 29142358 29102710 
1323.930 29103772 29156178 29271816 29461664 29734824 30099626 30563198 
1327.306 31129058 31793044 32539566 33339824 34149548 34918128 35597572 
1330.681 36148144 36549840 36802936 36926544 36951112 36911972 36844520 
1334.056 36776972 36732292 36727964 36776140 36885136 37059500 37301128 
1337.431 37610844 37990932 38446496 38986880 39622376 40360712 41203684 
1340.807 42143800 43165140 44242964 45346936 46441584 47482964 48424672 
1344.182 49218104 49816620 50186604 50309880 50186344 49830480 49267388 
1347.557 48526216 47632800 46610756 45481276 44264280 42984612 41672852 
1350.932 40362276 39090340 37890228 36786780 35797152 34929296 34185076 
1354.308 33563776 33063062 32678508 32402202 32222346 32123864 32091040 
1357.683 32111734 32178524 32288440 32440834 32633714 32862342 33120562 
1361.058 33403762 33713648 34060808 34464380 34946856 35526624 36215304 
1364.433 37015768 37925120 38937336 40044744 41234508 42480376 43740380 
1367.809 44952232 46033952 46902636 47480228 47707120 47553420 47016640 
1371.184 46122780 44918136 43473028 41875492 40220892 38615700 37156544 
1374.559 35913492 34924880 34191312 33687796 33378106 33233326 33241122 
1377.934 33410132 33766828 34351476 35214472 36405944 37973932 39951412 
1381.310 42339068 45082156 48047744 51037520 53781752 55983296 57379948 
1384.685 57751668 56974468 55042304 52093952 48408188 44351608 40331916 
1388.060 36676224 33579348 31105424 29211248 27800256 26758448 25987030 
1391.435 25406818 24957840 24601432 24311996 24076438 23892328 23764218 
1394.811 23698916 23700000 23766176 23890646 24064250 24276850 24518442 
1398.186 24779284 25047690 25312364 25563704 25795884 26008384 26203776 
1401.561 26386300 26559214 26724442 26883918 27041832 27205942 27388428 
1404.936 27601850 27856390 28155870 28497200 28872650 29273660 29695476 
1408.312 30137164 30601416 31092146 31611514 32159578 32734670 33334884 
1411.687 33958684 34602968 35258456 35908312 36527312 37085160 37557732 
1415.062 37933364 38217984 38433212 38612296 38792248 39005692 39281480 
1418.437 39641904 40101572 40668872 41342112 42108204 42945616 43828704 
1421.813 44736104 45654528 46587332 47555712 48595356 49744120 51027792 
1425.188 52451604 53999468 55642652 57350224 59099164 60870992 62646516 
1428.563 64401276 66097676 67688808 69130592 70392760 71471344 72390488 
1431.938 73199328 73958176 74723736 75546832 76469240 77532184 78789608 
1435.313 80311232 82176344 84454800 87168104 90278592 93704024 97342912 
1438.689 101092968 104843632 108474232 111821864 114686048 116871632 
1441.582 118195696 118536512 117853240 116178344 113605680 110261496 
1444.475 106300520 101878232 97135344 92212464 87243032 82368680 77759168 
1447.850 73586616 69997104 67075684 64822988 63170328 62013708 61260060 
1451.225 60846556 60747880 60963592 61494764 62326000 63427852 64757632 
1454.601 66278464 67973744 69839616 71876752 74065792 76357040 78673664 
1457.976 80941072 83119176 85198096 87188760 89107992 90971352 92786000 
1461.351 94544160 96224848 97781312 99137640 100205152 100895000 101157624 
1464.726 101011056 100548920 99908656 99215584 98561528 97988536 97501856 
1468.102 97089720 96732744 96404760 96061000 95629080 95004440 94054736 
1471.477 92665728 90789584 88489856 85929880 83311768 80798816 78472280 
1474.852 76351152 74432136 72724240 71269248 70130256 69361616 68993352 
1478.227 69017280 69399600 70099920 71091520 72372440 73962616 75891032 
1481.603 78180216 80835008 83841752 87179080 90828792 94789240 99070912 
1484.978 103680272 108603472 113771280 119030968 124156248 128829304 
1487.871 132672232 135312080 136407968 135743264 133295104 129268024 
1490.764 124060648 118145544 111976584 105871616 99990320 94385176 89029568 
1494.139 83878480 78921592 74198552 69807872 65884724 62550956 59873636 
1497.514 57847128 56415284 55496320 55012968 54908392 55140704 55677416 
1500.890 56489320 57541328 58792292 60198592 61700876 63226284 64682676 
1504.265 65928960 66776888 66994488 66344084 64692640 62112712 58889312 
1507.640 55376832 51847132 48425856 45129136 41934136 38828876 35825576 
1511.015 32971252 30328526 27947478 25859814 24067158 22547622 21267676 
1514.391 20190966 19283566 18511782 17845892 17263104 16751379 16313456 
1517.766 15961112 15705682 15547442 15470729 15444086 15432104 15407694 
1521.141 15369383 15343946 15373879 15490645 15698126 15975825 16291164 
1524.516 16617198 16940238 17266000 17614848 18011706 18472400 18997340 
1527.892 19574766 20189682 20832932 21504534 22212888 22968926 23779826 
1531.267 24646842 25564054 26520998 27507444 28515492 29541206 30579764 
1534.642 31624876 32665078 33685756 34667204 35587972 36429288 37169576 
1538.017 37790308 38274688 38610084 38786632 38800400 38661948 38395856 
1541.393 38037184 37620632 37166872 36676408 36131112 35507568 34791788 
1544.768 33993404 33148132 32306000 31509642 30774700 30088086 29415106 
1548.143 28719414 27978858 27201214 26421510 25689710 25044636 24497652 
1551.518 24032662 23618232 23225694 22841856 22475314 22149980 21891026 
1554.894 21708360 21589634 21501366 21398184 21224808 20920714 20431926 
1558.269 19732296 18859108 17919088 17044088 16322400 15773470 15368696 
1561.644 15061196 14804032 14556373 14289509 13989992 13662675 13329216 
1565.019 13019333 12759723 12561213 12416660 12305013 12202426 12089096 
1568.395 11957063 11812030 11670347 11551202 11467707 11424912 11420694 
1571.770 11450732 11510235 11593671 11693629 11797050 11887623 11950422 
1575.145 11978147 11980428 11983801 12023892 12124972 12293901 12521276 
1578.520 12792481 13096876 13431968 13803915 14223529 14701024 15241428 
1581.896 15842469 16495243 17187054 17900926 18615732 19305562 19936298 
1585.271 20471626 20879132 21136198 21238866 21203862 21070804 20893910 
1588.646 20736512 20664786 20733974 20987546 21452592 22136104 23021502 
1592.021 24062428 25187662 26295294 27265986 27987834 28361216 28325388 
1595.396 27869638 27034922 25905498 24586424 23192104 21819804 20541340 
1598.772 19407900 18446158 17666370 17065386 16630728 16344799 16188800 
1602.147 16148528 16215833 16388392 16666155 17047844 17526248 18087694 
1605.522 18710678 19365736 20018938 20627432 21143538 21520480 21713656 
1608.897 21691224 21439400 20965536 20299624 19490892 18604976 17707300 
1612.273 16853462 16081955 15406561 14822991 14313754 13858099 13436992 
1615.648 13039375 12667194 12333442 12057038 11853707 11730358 11682874 
1619.023 11699007 11760894 11848395 11943066 12028389 12095093 12143338 
1622.398 12182660 12228258 12294549 12389248 12510738 12651741 12803402 
1625.774 12959860 13118903 13280361 13443622 13606774 13766464 13920293 
1629.149 14069250 14218531 14375192 14545752 14732078 14930280 15129944 
1632.524 15317242 15477357 15595523 15661197 15669303 15624340 15540677 
1635.899 15440756 15348650 15280449 15241222 15226157 15224064 15220735 
1639.275 15202102 15159108 15088605 14996058 14892731 14792135 14704108 
1642.650 14630663 14565899 14496896 14408312 14285058 14117920 13906813 
1646.025 13663017 13408115 13169345 12973174 12837085 12767741 12761873 
1649.400 12808077 12888690 12977886 13043609 13043540 12935214 12696057 
1652.776 12354203 11994360 11709866 11550521 11505574 11533746 11591322 
1656.151 11648089 11688592 11708368 11710615 11701390 11685733 11665208 
1659.526 11637810 11598502 11542661 11466619 11369672 11254723 11128859 
1662.901 11002793 10888383 10797305 10736845 10708827 10708692 10726215 
1666.277 10748054 10757972 10741227 10688010 10595988 10471944 10330664 
1669.652 10190820 10068418 9973578 9909437 9873167 9857439 9851135 9840085 
1673.509 9808294 9740586 9630133 9483843 9324365 9179972 9074128 9014111 
1677.367 8991818 8989755 8989552 8979336 8956809 8929716 8910032 8907530 
1681.224 8921531 8938442 8932354 8873168 8737478 8525558 8270038 8026077 
1685.082 7841763 7733815 7689733 7682786 7688384 7688047 7672094 7638135 
1688.939 7587859 7525788 7457794 7391563 7335923 7298958 7286086 7296599 
1692.796 7322478 7347853 7353076 7319546 7238714 7120340 6994120 6897155 
1696.654 6852956 6861506 6900925 6939002 6940180 6876620 6740610 6554418 
1700.511 6366658 6225396 6155924 6152160 6190944 6245496 6294643 6324295 
1704.369 6327791 6306039 6266909 6222740 6185265 6162243 6156160 6165032 
1708.226 6183718 6206875 6230740 6254102 6278775 6308124 6345846 6394129 
1712.083 6452810 6519268 6589705 6660693 6729437 6793683 6850734 6895034 
1715.941 6918431 6912371 6872109 6801727 6716583 6638588 6585971 6568311 
1719.798 6583516 6622069 6670989 6718736 6757874 6785639 6803679 6815694 
1723.656 6825826 6836631 6848849 6862246 6876687 6892139 6908803 6925300 
1727.513 6939271 6947284 6947150 6939675 6929205 6922472 6924559 6935198 
1731.371 6946746 6942268 6899713 6799337 6633709 6419383 6194776 6006130 
1735.228 5883020 5828446 5825290 5848764 5876202 5889771 5880165 5846077 
1739.085 5794262 5735872 5682995 5644558 5624183 5620860 5630997 5650097 
1742.943 5674300 5700317 5726638 5753532 5783080 5817532 5859107 5908278 
1746.800 5963063 6019367 6071881 6115094 6145204 6160024 6158882 6143120 
1750.658 6115732 6081827 6048294 6022156 6009120 6010867 6024574 6042717 
1754.515 6054140 6048362 6017150 5959233 5881240 5796646 5719991 5660604 
1758.373 5620189 5592230 5566655 5532256 5481619 5413071 5330883 5243712 
1762.230 5161287 5092020 5039992 5006171 4988876 4984653 4988608 4994741 
1766.087 4997222 4991155 4975704 4954523 4935487 4927243 4934314 4955059 
1769.945 4980463 4998093 4995244 4966320 4915413 4858013 4812781 4793617 
1773.802 4804639 4840254 4890314 4945206 5000306 5055044 5111733 5172420 
1777.660 5235697 5296670 5348359 5384589 5403174 5407100 5404148 5402269 
1781.517 5407200 5419681 5435852 5450615 5459339 5460882 5457460 5453702 
1785.375 5454172 5461721 5476955 5498967 5526786 5559775 5596861 5636133 
1789.232 5672823 5700082 5709147 5692965 5648486 5579476 5497021 5414279 
1793.089 5344066 5292712 5260347 5242203 5232310 5225335 5217756 5207394 
1796.947 5192707 5172319 5144892 5109889 5067748 5020618 4971615 4924361 
1800.804 4881267 4843873 4812245 4786649 4767855 4757068 4755862 4764606 
1804.662 4782194 4805712 4831878 4857175 4880463 4901473 4921144 4940514 
1808.519 4959516 4977145 4991993 5003389 5012339 5020718 5031545 5046596 
1812.376 5066039 5088600 5112034 5135202 5158169 5182513 5210747 5244853 
1816.234 5285031 5329943 5376739 5422365 5464406 5502088 5535310 5564809 
1820.091 5591525 5616094 5639120 5661174 5682156 5701291 5716835 5726236 
1823.949 5727209 5719722 5706730 5694443 5689441 5696390 5715459 5741982 
1827.806 5766828 5780293 5775760 5752760 5718379 5684908 5665136 5666982 
1831.664 5690884 5730903 5778581 5826767 5870829 5910494 5948551 5988392 
1835.521 6032604 6081928 6136197 6195045 6259278 6331624 6414843 6511868 
1839.378 6623516 6748384 6883016 7023348 7164937 7303810 7436660 7561492 
1843.236 7678266 7789742 7901449 8020643 8152868 8300028 8459129 8623258 
1847.093 8783256 8929377 9055790 9158855 9238997 9298333 9338923 9361031 
1850.951 9362757 9341598 9295524 9225221 9134254 9027846 8910911 8786907 
1854.808 8656720 8520050 8376903 8229009 8080320 7935766 7798783 7670375 
1858.666 7548411 7429143 7309875 7190202 7073188 6963412 6865343 6780961 
1862.523 6709113 6646696 6590681 6539786 6495152 6458560 6431320 6412254 
1866.380 6396987 6380007 6357075 6327556 6295248 6267279 6250505 6248018 
1870.238 6258572 6277296 6298004 6316798 6332229 6344837 6355932 6365717 
1874.095 6372946 6375232 6370693 6358891 6341105 6319521 6295382 6268287 
1877.953 6235412 6193196 6139423 6074267 6000889 5924131 5849032 5777439 
1881.810 5709483 5642578 5574777 5506081 5439442 5379154 5329508 5292846 
1885.667 5267793 5250721 5237542 5224798 5211854 5199715 5190393 5185430 
1889.525 5185598 5190527 5200084 5215375 5237307 5266652 5302472 5341483 
1893.382 5378617 5409918 5433101 5450347 5466251 5486719 5515913 5554607 
1897.240 5599446 5645163 5687728 5724725 5757225 5788083 5820118 5854641 
1901.097 5891316 5928363 5964776 6000587 6037677 6077392 6120437 6164998 
1904.955 6207514 6244387 6273161 6293433 6307216 6316562 6322748 6324900 
1908.812 6321034 6309367 6290172 6266842 6243580 6224992 6213228 6207380 
1912.669 6204355 6201162 6195918 6189130 6182307 6175888 6167351 6151892 
1916.527 6123226 6077862 6017822 5951306 5889972 5844264 5818103 5807861 
1920.384 5804302 5796646 5777103 5744567 5704011 5663491 5630091 5606360 
1924.242 5588974 5572227 5550177 5521048 5487424 5454776 5428001 5409549 
1928.099 5397572 5388279 5378181 5366004 5353189 5343193 5338061 5337591 
1931.957 5338799 5338061 5333398 5325751 5319210 5317667 5322598 5332090 
1935.814 5340979 5343897 5338799 5327763 5317130 5314145 5322631 5340778 
1939.671 5362716 5379825 5385729 5378953 5363588 5346816 5335109 5331386 
1943.529 5333935 5338900 5342757 5345240 5349701 5360603 5380530 5408945 
1947.386 5441355 5472358 5498464 5519739 5539404 5562023 5589847 5621733 
1951.244 5652816 5677959 5693167 5700150 5702197 5703272 5704816 5703775 
1955.101 5693536 5668022 5624485 5566554 5503061 5445280 5400692 5371371 
1958.958 5353525 5339000 5321591 5299420 5275774 5257094 5249078 5253438 
1962.816 5267893 5287782 5309449 5330883 5353961 5380328 5409918 5440214 
1966.673 5466318 5484337 5494705 5501651 5512289 5531786 5560043 5591323 
1970.531 5616799 5627103 5618209 5593136 5559876 5527726 5503598 5490142 
1974.388 5486920 5494202 5515477 5557728 5629621 5733958 5865220 6007373 
1978.246 6139423 6242874 6307384 6333877 6331355 6311418 6284322 6254068 
1982.103 6220219 6181467 6137542 6092277 6051352 6020408 6000553 5989030 
1985.960 5978885 5964272 5943177 5918723 5898033 5888293 5893029 5910696 
1989.818 5935719 5961686 5985167 6007843 6034721 6071276 6120471 6180223 
1993.675 6244522 6307720 6365582 6416894 6463269 6505814 6542645 6569589 
1997.533 6580185 6570363 6540862 6498045 6451296 6410572 6381957 6364809 
2001.390 6354319 6342383 6322647 6292962 6255312 6213967 6174207 6140129 
2005.248 6113212 6094428 6084246 6083003 6088715 6097217 6100846 6090429 
2009.105 6059651 6006836 5938777 5867840 5807760 5769817 5758770 5771160 
2012.962 5798492 5833484 5870224 5908613 5951037 6000217 6054980 6111700 
2016.820 6163889 6206472 6239412 6265867 6290911 6319218 6351528 6385555 
2020.677 6418004 6447530 6475510 6506487 6544629 6590311 6638823 6681588 
2024.535 6709988 6719039 6710727 6692019 6672065 6657766 6650565 6646898 
2028.392 6641212 6629740 6613894 6599058 6592834 6600067 6622439 6656790 
2032.250 6699220 6748956 6808290 6881871 6973445 7080833 7194346 7301114 
2036.107 7387957 7447682 7482671 7502729 7520765 7547534 7586780 7635505 
2039.964 7686124 7730678 7763970 7786133 7799694 7807216 7810826 7809342 
2043.822 7801178 7786740 7769738 7754897 7748555 7754761 7773449 7801987 
2047.679 7836499 7872465 7907826 7940659 7967960 7985037 7986488 7968095 
2051.537 7930130 7878875 7824962 7781308 7757932 7757325 7773719 7795578 
2055.394 7810320 7808903 7790282 7759855 7727474 7700829 7683966 7675433 
2059.251 7670341 7664203 7655098 7645048 7637731 7636483 7641609 7650140 
2063.109 7657054 7659516 7656919 7651962 7649904 7654525 7666260 7683258 
2066.966 7700458 7713443 7720863 7723359 7723561 7723561 7723797 7721875 
2070.824 7714994 7700829 7679480 7653614 7627209 7603639 7584217 7568370 
2074.681 7553704 7538600 7522721 7507314 7494335 7485233 7479300 7474244 
2078.539 7467839 7457996 7444716 7429548 7414818 7401876 7391058 7381790 
2082.396 7372993 7365242 7360423 7360760 7368814 7384081 7403865 7423649 
2086.253 7438446 7444918 7442221 7431638 7415459 7395405 7371881 7343977 
2090.111 7311358 7274260 7234738 7195996 7161670 7133645 7112829 7098885 
2093.968 7091577 7091847 7101782 7122968 7155741 7197377 7242117 7282717 
2097.826 7312975 7329622 7333329 7327701 7317356 7306337 7296734 7289321 
2101.683 7284199 7282750 7287265 7300979 7325679 7360996 7403562 7449603 
2105.541 7494875 7537790 7579126 7621443 7666867 7716141 7767242 7816932 
2109.398 7862512 7903102 7940287 7977105 8016154 8057873 8099966 8138452 
2113.255 8169547 8192136 8207769 8220634 8235728 8256834 8284864 8318637 
2117.113 8355926 8394637 8433859 8474063 8515590 8557999 8599836 8638096 
2120.970 8670004 8694139 8710670 8720643 8726018 8727641 8725747 8720338 
2124.828 8711650 8700934 8690320 8681565 8674804 8668382 8658309 8640124 
2128.685 8611361 8572090 8525288 8476462 8430413 8390888 8359506 8336741 
2132.542 8323197 8321238 8333701 8363019 8408691 8465650 8524679 8575605 
2136.400 8609333 8621095 8611970 8586926 8551375 8510825 8468488 8425886 
2140.257 8385618 8351434 8327655 8318907 8326203 8345793 8369573 8387577 
2144.115 8392137 8380214 8354575 8320900 8286249 8254065 8224180 8192743 
2147.972 8156853 8114449 8067425 8018585 7969714 7919738 7865279 7800570 
2151.830 7723191 7634898 7541095 7449165 7364804 7288074 7214592 7140280 
2155.687 7065375 7000349 6964624 6983647 7079217 7258121 7508123 7799120 
2159.544 8094262 8357446 8566751 8714017 8802901 8843714 8848786 8830289 
2163.402 8799249 8765269 8737613 8722435 8720575 8727505 8734233 8730345 
2167.259 8708337 8667401 8612984 8555328 8503763 8464468 8437744 8418656 
2171.117 8400786 8379504 8354913 8330594 8312693 8305094 8308572 8320124 
2174.974 8333296 8341166 8340119 8328128 8306039 8276590 8242819 8208276 
2178.832 8175929 8150100 8133219 8127277 8130586 8138722 8146116 8146353 
2182.689 8136292 8116340 8091358 8066615 8048556 8040895 8044135 8058346 
2186.546 8082346 8115260 8157224 8207937 8264534 8322690 8376633 8421798 
2190.404 8455143 8477104 8489910 8496701 8499371 8497749 8491329 8479638 
2194.261 8463725 8447575 8435379 8430548 8433319 8441764 8450075 8454434 
2198.119 8453217 8448487 8444771 8447305 8457913 8474941 8493965 8509101 
2201.976 8517144 8517921 8515217 8513866 8517346 8526369 8538466 8549821 
2205.833 8556781 8557999 8554889 8549989 8545461 8542521 8540527 8538669 
2209.691 8536370 8535154 8536945 8543872 8556140 8572394 8589529 8605177 
2213.548 8618999 8632688 8650298 8674229 8705363 8741029 8776393 8806215 
2217.406 8827280 8839386 8844864 8847130 8848009 8847637 8844965 8838168 
2221.263 8827449 8815851 8807533 8806721 8815005 8830560 8848448 8863057 
2225.121 8869956 8867419 8858222 8846014 8834990 8827720 8824778 8824575 
2228.978 8825623 8827044 8828261 8829647 8831033 8830729 8827585 8820213 
2232.835 8808649 8794549 8780856 8770340 8765371 8766452 8773113 8784811 
2236.693 8801785 8824744 8854535 8890856 8931746 8973485 9011980 9044085 
2240.550 9069392 9089658 9107794 9126810 9147722 9169109 9188264 9202817 
2244.408 9211345 9215271 9217065 9219536 9224341 9231212 9239200 9246510 
2248.265 9252976 9259271 9267022 9277177 9289430 9301854 9312348 9319423 
2252.123 9323790 9328259 9337230 9353311 9378128 9409176 9442901 9474192 
2255.980 9499659 9517575 9527837 9531597 9529395 9521232 9507076 9487365 
2259.837 9464066 9440870 9421433 9409311 9405824 9410158 9419978 9433319 
2263.695 9449301 9468739 9493427 9524551 9561267 9601034 9639483 9672041 
2267.552 9696842 9712903 9722525 9728150 9731979 9735096 9737435 9738417 
2271.410 9738248 9738146 9739875 9744890 9753632 9764984 9776439 9785453 
2275.267 9790740 9792130 9791079 9789859 9789655 9791485 9794773 9798772 
2279.125 9803007 9807922 9814361 9824190 9837984 9856389 9879166 9905403 
2282.982 9934286 9964391 9994362 10022572 10046409 10063907 10073436 
2286.357 10075335 10071232 10063941 10057193 10053565 10054243 10058956 
2289.732 10066145 10074385 10082830 10091681 10101652 10113792 10128987 
2293.108 10147132 10167483 10189226 10211512 10233732 10255444 10276139 
2296.483 10295308 10312715 10328119 10342540 10356859 10372368 10389302 
2299.858 10406847 10422798 10434202 10438546 10434677 10423035 10406304 
2303.233 10387740 10370196 10355638 10344779 10337009 10331512 10327644 
2306.609 10325506 10325472 10328051 10333344 10341250 10351396 10363375 
2309.984 10376949 10392085 10408137 10423986 10438172 10448932 10455075 
2313.359 10456976 10455652 10453785 10453208 10455652 10461151 10468923 
2316.734 10477578 10486064 10494076 10502629 10512542 10525102 10540785 
2320.110 10559796 10581559 10605291 10629603 10652252 10669264 10675987 
2323.485 10667396 10639518 10591167 10524932 10447167 10366090 10290829 
2326.860 10228643 10183256 10155001 10140620 10135838 10136143 10138042 
2330.235 10139976 10141536 10143368 10146013 10150625 10158495 10170875 
2333.611 10189022 10213514 10243468 10276750 10310611 10341895 10369110 
2336.986 10392492 10413668 10435118 10458740 10485047 10513118 10541260 
2340.361 10567538 10590930 10611437 10629603 10645392 10658432 10667294 
2343.736 10671030 10670316 10668076 10669264 10680436 10707570 10754643 
2347.112 10822442 10908871 11009930 11120292 11234423 11347087 11453691 
2350.487 11550011 11633318 11702377 11757660 11801578 11837738 11869984 
2353.862 11900700 11931588 11962173 11992044 12021270 12050770 12082964 
2357.237 12120816 12167463 12224304 12291481 12368111 12451984 12540647 
2360.613 12632092 12723419 12811933 12895072 12970614 13037838 13097594 
2363.988 13152269 13204936 13258497 13313466 13368886 13421921 13468776 
2367.363 13505827 13531668 13545615 13548520 13542230 13528147 13507809 
2370.738 13483165 13456233 13429781 13406885 13390516 13383272 13387338 
2374.114 13404322 13435454 13482481 13546435 13627835 13726895 13842500 
2377.489 13972712 14115456 14269101 14432563 14605407 14787611 14978121 
2380.864 15175098 15375562 15575946 15772747 15963588 16146533 16320474 
2384.239 16484194 16635858 16773039 16893178 16993606 17073310 17132110 
2387.615 17171196 17191948 17196050 17184606 17158890 17120148 17070038 
2390.990 17010698 16944130 16871716 16793806 16709333 16617438 16517511 
2394.365 16410723 16299970 16189488 16084053 15988030 15904536 15835356 
2397.740 15781578 15743680 15722346 15718464 15732033 15762715 15808895 
2401.115 15868347 15938941 16019141 16108466 16207544 16318033 16441314 
2404.491 16578538 16730303 16896142 17075448 17267380 17470294 17682416 
2407.866 17902030 18127526 18357734 18593530 18835888 19086794 19347444 
2411.241 19617332 19893630 20171736 20445540 20709056 20957502 21187128 
2414.616 21395296 21579884 21738560 21868862 21968846 22038000 22077392 
2417.992 22090360 22081506 22054976 22014576 21962152 21898274 21823010 
2421.367 21736506 21640304 21536880 21429826 21322208 21217258 21117554 
2424.742 21024896 20941438 20869398 20811206 20769600 20746764 20744470 
2428.117 20764106 20806652 20872736 20962580 21076474 21213398 21371558 
2431.493 21548650 21742532 21951490 22175016 22413346 22667064 22936684 
2434.868 23221394 23519966 23831102 24154160 24489378 24838572 25204376 
2438.243 25588902 25993574 26418694 26863546 27327414 27809970 28311596 
2441.618 28833486 29376958 29942870 30531206 31141660 31772758 32423378 
2444.994 33092096 33777428 34477292 35189500 35911404 36640352 37374208 
2448.369 38111224 38849784 39588512 40325520 41058496 41784792 42501424 
2451.744 43205104 43892592 44559616 45200608 45809108 46377652 46897876 
2455.119 47362704 47765372 48100524 48364184 48552596 48662548 48691200 
2458.495 48635752 48494056 48264604 47946532 47539852 47045220 46464628 
2461.870 45801380 45060616 44249420 43376320 42451328 41485724 40490320 
2465.245 39476808 38456816 37440916 36439560 35462836 34519228 33617044 
2468.620 32763146 31962880 31220728 30539736 29921500 29366322 28872898 
2471.996 28438118 28057352 27724420 27432226 27173594 26942228 26733218 
2475.371 26543116 26369682 26211238 26066116 25932018 25806468 25686686 
2478.746 25570978 25457832 25346574 25237172 25128992 25021400 24913028 
2482.121 24802962 24690400 24575520 24459442 24343604 24229794 24119694 
2485.497 24014628 23915782 23824136 23740350 23664346 23595666 23532630 
2488.872 23473066 23414416 23355182 23294768 23234362 23175850 23121298 
2492.247 23072060 23028176 22988210 22950200 22911812 22871296 22827954 
2495.622 22781128 22730568 22676176 22617182 22552926 22483724 22409858 
2498.998 22332762 22253934 22174738 22095660 22016702 21937442 21857400 
2502.373 21776708 21696204 21616796 21539806 21466030 21396026 21330142 
2505.748 21268720 21212248 21161246 21115710 21074806 21036824 20999474 
2509.123 20960076 20916994 20869120 20816802 20760562 20700994 20637402 
2512.499 20568784 20493022 20408378 20313998 20210266 20098852 19982438 
2515.874 19864390 19747344 19634386 19527454 19428482 19338782 19259250 
2519.249 19189948 19130318 19079282 19035418 18997512 18964558 18936420 
2522.624 18913162 18895582 18883884 18878798 18880596 18889456 18904926 
2526.000 18926728 18953656 18983840 19015546 19047118 19077274 19106218 
2529.375 19134716 19163768 19194278 19226278 19258730 19289974 19318276 
2532.750 19342456 19362756 19380358 19397402 19416286 19438878 19466390 
2536.125 19499450 19537920 19581698 19630538 19683962 19741416 19802344 
2539.500 19865882 19931302 19997704 20064602 20131024 20196034 20258692 
2542.876 20318094 20374174 20427340 20479022 20531056 20585078 20641954 
2546.251 20701550 20762682 20823476 20881984 20937126 20988416 21036094 
2549.626 21080926 21123224 21163090 21200698 21236152 21269486 21301814 
2553.001 21333552 21365744 21398428 21431600 21464604 21496944 21527826 
2556.377 21556656 21582356 21603494 21618362 21625294 21623030 21611190 
2559.752 21590538 21562332 21527582 21486884 21439782 21384994 21321546 
2563.127 21249338 21169142 21084058 20997040 20911084 20828726 20751248 
2566.502 20678892 20611796 20550790 20496806 20451514 20416160 20391086 
2569.878 20375354 20367472 20365458 20368130 20375076 20386708 20403968 
2573.253 20427584 20457558 20493090 20533558 20577992 20626042 20677536 
2576.628 20732376 20790246 20850452 20911884 20973810 21036026 21098978 
2580.003 21163402 21230410 21300490 21373820 21449772 21528176 21608752 
2583.379 21691920 21778378 21868236 21961316 22056684 22152978 22248842 
2586.754 22343714 22437666 22531392 22625838 22721142 22816710 22911008 
2590.129 23002532 23089638 23171726 23249252 23323226 23395044 23465930 
2593.504 23536302 23606372 23675822 23744128 23811328 23877170 23941972 
2596.880 24006364 24071150 24137452 24207304 24282456 24364806 24455830 
2600.255 24556060 24665326 24782792 24907098 25036986 25171686 25311100 
2603.630 25455090 25604226 25758544 25918018 26082302 26250834 26422604 
2607.005 26596974 26772862 26949066 27124496 27298164 27468932 27635994 
2610.381 27798314 27954580 28103410 28243132 28371898 28488072 28590438 
2613.756 28678106 28750744 28808382 28850836 28878316 28890816 28888550 
2617.131 28872296 28843436 28803778 28755842 28702176 28645472 28588068 
2620.506 28531876 28478308 28428424 28382368 28340314 28301904 28266684 
2623.882 28234328 28205086 28179522 28158946 28144558 28137804 28139362 
2627.257 28149544 28168032 28194020 28226372 28264736 28308730 28358386 
2630.632 28413816 28475334 28542950 28616522 28695416 28779068 28866170 
2634.007 28955910 29047300 29139630 29232618 29326086 29420530 29516842 
2637.383 29615444 29716908 29821480 29928492 30037378 30147074 30256688 
2640.758 30365372 30472840 30578520 30682412 30784480 30884794 30983530 
2644.133 31081112 31177934 31274636 31371892 31470060 31569890 31672098 
2647.508 31777144 31885710 31998116 32114550 32234978 32359224 32487142 
2650.884 32618638 32754142 32894224 33039108 33189654 33346084 33508190 
2654.259 33675904 33848952 34027372 34211276 34401216 34597300 34799864 
2657.634 35009056 35224212 35445004 35670696 35900392 36133232 36368432 
2661.009 36605060 36842392 37079964 37317228 37554336 37791536 38028796 
2664.385 38266400 38504028 38741784 38979632 39217976 39457576 39699484 
2667.760 39944436 40192976 40445404 40701476 40961120 41224492 41491628 
2671.135 41763016 42038992 42318864 42601372 42884244 43165360 43442448 
2674.510 43714032 43979592 44238892 44492364 44739920 44981668 45217116 
2677.885 45446324 45669804 45889160 46106716 46325704 46549456 46781620 
2681.261 47025796 47284520 47560592 47856072 48172116 48509136 48866924 
2684.636 49244376 49639876 50052212 50479896 50922124 51378340 51847992 
2688.011 52330408 52825040 53330988 53847724 54374956 54912564 55460852 
2691.386 56020088 56590348 57171756 57764348 58368172 58983348 59609780 
2694.762 60247236 60895236 61553060 62219876 62894768 63577460 64267748 
2698.137 64965724 65670684 66381456 67096376 67813400 68530632 69246656 
2701.512 69960816 70672144 71379992 72082376 72776344 73458080 74122768 
2704.887 74765768 75383040 75970240 76523968 77040544 77516224 77947536 
2708.263 78331464 78665168 78947344 79176824 79352912 79475600 79545080 
2711.638 79562152 79528600 79446600 79318984 79148152 78935664 78681808 
2715.013 78385592 78045120 77658840 77225632 76745920 76221528 75655472 
2718.388 75052120 74416008 73752328 73066840 72365240 71653520 70937744 
2721.764 70223448 69515976 68820592 68142104 67485216 66854632 66254424 
2725.139 65687948 65157860 64665756 64212620 63799412 63426772 63095608 
2728.514 62806956 62561324 62358704 62197816 62076660 61992536 61942588 
2731.889 61924744 61937160 61979348 62050592 62150368 62278080 62432496 
2735.265 62611768 62814312 63037596 63278600 63534380 63800604 64072780 
2738.640 64346208 64616004 64878152 65129564 65367684 65590904 65798356 
2742.015 65989816 66165856 66327720 66477940 66619180 66754780 66888108 
2745.390 67021548 67157200 67296416 67439888 67588184 67741160 67898424 
2748.766 68059384 68222768 68386872 68550504 68712904 68873976 69034872 
2752.141 69197920 69365632 69541400 69728384 69929528 70148016 70386288 
2755.516 70645904 70927680 71231456 71555568 71897200 72253392 72620360 
2758.891 72993680 73368976 73740864 74102888 74448416 74770216 75061096 
2762.267 75315568 75528696 75697208 75818984 75892456 75916688 75891424 
2765.642 75817840 75698152 75536304 75337672 75107888 74852720 74578072 
2769.017 74289048 73990544 73688128 73386632 73091608 72808200 72539728 
2772.392 72288960 72056792 71843016 71646608 71466584 71301464 71149832 
2775.768 71010120 70879968 70756248 70634832 70510640 70377560 70229256 
2779.143 70058456 69858304 69622416 69346464 69028232 68668736 68271704 
2782.518 67843496 67391632 66924012 66448176 65970184 65495268 65027452 
2785.893 64570016 64125276 63694768 63278908 62877072 62487972 62110112 
2789.269 61742016 61383120 61033676 60694420 60366584 60051016 59748188 
2792.644 59458072 59180224 58914320 58659764 58416080 58182804 57958624 
2796.019 57742020 57530436 57321340 57111552 56898540 56679892 56453392 
2799.394 56217776 55972292 55716328 55449900 55173360 54886996 54591244 
2802.770 54286340 53972228 53649016 53316748 52976280 52628820 52276476 
2806.145 51921772 51567656 51217104 50873320 50538964 50216956 49909420 
2809.520 49618408 49345296 49091020 48855764 48638828 48439748 48257456 
2812.895 48091048 47939280 47801472 47676428 47563512 47462080 47372312 
2816.271 47294756 47230880 47183192 47153976 47146076 47161880 47202956 
2819.646 47270852 47366916 47491908 47646808 47832100 48047556 48291932 
2823.021 48563192 48857988 49172644 49502904 49844900 50194008 50546040 
2826.396 50896044 51238396 51567172 51876256 52159480 52411640 52628220 
2829.771 52806032 52942780 53037600 53090388 53102296 53075824 53014276 
2833.147 52921744 52803224 52664164 52509484 52344688 52174428 52003000 
2836.522 51834252 51671096 51516356 51372744 51242232 51127640 51031596 
2839.897 50957444 50908672 50889676 50904540 50958376 51057084 51207488 
2843.272 51418064 51699868 52064700 52526796 53099864 53794688 54616904 
2846.648 55562700 56616396 57746144 58906008 60037548 61070324 61935136 
2850.023 62568440 62919200 62958492 62679968 62101356 61258380 60202588 
2853.398 58995308 57696228 56365748 55057084 53811984 52662708 51629560 
2856.773 50721100 49936108 49265420 48695204 48207880 47785232 47411596 
2860.149 47071660 46753756 46448444 46148576 45849652 45548980 45246460 
2863.524 44943232 44642268 44347132 44061764 43790292 43536900 43304928 
2866.899 43097992 42918956 42770080 42652688 42566980 42511980 42485416 
2870.274 42484432 42504968 42542644 42592712 42650280 42710376 42769276 
2873.650 42824672 42876236 42926268 42978576 43038612 43112044 43203388 
2877.025 43315980 43451460 43609796 43789376 43988136 44203272 44431652 
2880.400 44670364 44916664 45167628 45421900 45678564 45937556 46199724 
2883.775 46465552 46735160 47008076 47282600 47556860 47828440 48095380 
2887.151 48356036 48609364 48855060 49093280 49324656 49550476 49771656 
2890.526 49989784 50205648 50419756 50632220 50843036 51052092 51260016 
2893.901 51467708 51676504 51887828 52102768 52321216 52542952 52767308 
2897.276 52993312 53220520 53448784 53677548 53906240 54133480 54357456 
2900.652 54575988 54787560 54991416 55187920 55378372 55564884 55750156 
2904.027 55937052 56128856 56329872 56545020 56780592 57043080 57338696 
2907.402 57673748 58052916 58480864 58961832 59499872 60100140 60767660 
2910.777 61506220 62317508 63199684 64146020 65143540 66173456 67212088 
2914.153 68229944 69194856 70075816 70843072 71473960 71955312 72284736 
2917.528 72470856 72529784 72483696 72353224 72153616 71892000 71565848 
2920.903 71163688 70669144 70066672 69344680 68500488 67541032 66483116 
2924.278 65351048 64171136 62971636 61777768 60609760 59484556 58413540 
2927.654 57404260 56461092 55585448 54777376 54035752 53359084 52746728 
2931.029 52198564 51715284 51298312 50949024 50668448 50457456 50315908 
2934.404 50243180 50237788 50297080 50416408 50589292 50806236 51056004 
2937.779 51325312 51600676 51870056 52123316 52354072 52559332 52739168 
2941.155 52896292 53033816 53155656 53264344 53360808 53443652 53508860 
2944.530 53550164 53559312 53528424 53450732 53323008 53146816 52929040 
2947.905 52681748 52419412 52158396 51913520 51696136 51513556 51367712 
2951.280 51256588 51174084 51111388 51059136 51006964 50945932 50868628 
2954.656 50769588 50645436 50495008 50318476 50116540 49890684 49643036 
2958.031 49375440 49091092 48793660 48487092 48176112 47864876 47556636 
2961.406 47254116 46959192 46672768 46396308 46131440 45879812 45643968 
2964.781 45426020 45227780 45050396 44894616 44760380 44647080 44553524 
2968.156 44477532 44415428 44362692 44313628 44261968 44202204 44129764 
2971.532 44041816 43937464 43818076 43686184 43546280 43403816 43265136 
2974.907 43136488 43024012 42931388 42858900 42801744 42749824 42688804 
2978.282 42600348 42466128 42270436 42002380 41657680 41239792 40759048 
2981.657 40229544 39669608 39098244 38532376 37987604 37476164 37006244 
2985.033 36583180 36209796 35886824 35615020 35395000 35227624 35112756 
2988.408 35047276 35023100 35024176 35028276 35006724 34927536 34762964 
2991.783 34492180 34106324 33611244 33025522 32378964 31704246 31034702 
2995.158 30397780 29811330 29284010 28815322 28399134 28025154 27682712 
2998.534 27363336 27060170 26769548 26490004 26221338 25963534 25716672 
3001.909 25479790 25251430 25029790 24813136 24600204 24390532 24184742 
3005.284 23983744 23789100 23602418 23424312 23255404 23095646 22944506 
3008.659 22801380 22665632 22536208 22412232 22292474 22175540 22060170 
3012.035 21945564 21831406 21718462 21608438 21503072 21404624 21314586 
3015.410 21233750 21162046 21098840 21043016 20993458 20948880 20908268 
3018.785 20870094 20833000 20794938 20753750 20707528 20654396 20593070 
3022.160 20522928 20443770 20355908 20260600 20159518 20055094 19950416 
3025.536 19849266 19754556 19669368 19595596 19533138 19481086 19436764 
3028.911 19397160 19358390 19317062 19269952 19214746 19149536 19073396 
3032.286 18986158 18888728 18782050 18668062 18548572 18425934 18302260 
3035.661 18179934 18060924 17947472 17841334 17744024 17656602 17579620 
3039.037 17512932 17455912 17407726 17367100 17332962 17304064 17279240 
3042.412 17257244 17237384 17218700 17200704 17183018 17165302 17147032 
3045.787 17127834 17106948 17083650 17057598 17028684 16997534 16964904 
3049.162 16931832 16899034 16866998 16835068 16802244 16767219 16728375 
3052.538 16684335 16634308 16578229 16516168 16449161 16378516 16305543 
3055.913 16231896 16158845 16087113 16017389 15949529 15883435 15818896 
3059.288 15756221 15695550 15637461 15582438 15530855 15482541 15437323 
3062.663 15394923 15355205 15318066 15283812 15252307 15223687 15197435 
3066.039 15172970 15149810 15127680 15106204 15085826 15066478 15048229 
3069.414 15030804 15013208 14994892 14975206 14954354 14932577 14911007 
3072.789 14891084 14873768 14859985 14850248 14844316 14841813 14841847 
3076.164 14843116 14844247 14843939 14841025 14834922 14825699 14814110 
3079.540 14801152 14787644 14774309 14761077 14747468 14732763 14716310 
3082.915 14697459 14676175 14652527 14627236 14600644 14573471 14546574 
3086.290 14520912 14497444 14477300 14460789 14447601 14437051 14427630 
3089.665 14418005 14407490 14395982 14384302 14373857 14366150 14361870 
3093.041 14361150 14363240 14366732 14370329 14373069 14374644 14375431 
3096.416 14376665 14379404 14384953 14394029 14406634 14422047 14438935 
3099.791 14455821 14471203 14484495 14495321 14504639 14513786 14524064 
3103.166 14536193 14550378 14565899 14581661 14596909 14610821 14623364 
3106.542 14635083 14646427 14657599 14668738 14679431 14689301 14698144 
3109.917 14706405 14714630 14723817 14734683 14747811 14763786 14782845 
3113.292 14805231 14831219 14860602 14892764 14926439 14959944 14991256 
3116.667 15019210 15043324 15063768 15081675 15098382 15114300 15129738 
3120.042 15144045 15156500 15166759 15175303 15183058 15191465 15201862 
3123.418 15214627 15229692 15246335 15263769 15281410 15299257 15317585 
3126.793 15336395 15355858 15375424 15394202 15411745 15427606 15442266 
3130.168 15456652 15471622 15488516 15507882 15529997 15554653 15581510 
3133.543 15609949 15639350 15669303 15699087 15727876 15755465 15781442 
3136.919 15806146 15830062 15854187 15878897 15904915 15931999 15959978 
3140.294 15988717 16017836 16047023 16076524 16106335 16136458 16166927 
3143.669 16198121 16230555 16264815 16301932 16342355 16386326 16433192 
3147.044 16481683 16530452 16578229 16624117 16668117 16710848 16753238 
3150.420 16796354 16841164 16888182 16937376 16988748 17041642 17095368 
3153.795 17149034 17201600 17252140 17300030 17345204 17387930 17429558 
3157.170 17471330 17514726 17561126 17611468 17666024 17725178 17788586 
3160.545 17855730 17926028 17999030 18073844 18150326 18228378 18308032 
3163.921 18389360 18472572 18556906 18641878 18726176 18808932 18889352 
3167.296 18967260 19042792 19116330 19188078 19257796 19324476 19387008 
3170.671 19443902 19494324 19537956 19574972 19606066 19632446 19654494 
3174.046 19673526 19689892 19704176 19716900 19728864 19740098 19751228 
3177.422 19762186 19772900 19783442 19793986 19804596 19815834 19828180 
3180.797 19841950 19857314 19874588 19893700 19914894 19937998 19963080 
3184.172 19990036 20018558 20048570 20079628 20112110 20146052 20181768 
3187.547 20219986 20260636 20303756 20349276 20396884 20446340 20497778 
3190.923 20551588 20607662 20666070 20726434 20788160 20850592 20913344 
3194.298 20975724 21037730 21098944 21158602 21216354 21271818 21324922 
3197.673 21376500 21427842 21480234 21534964 21592176 21651378 21711008 
3201.048 21769670 21826284 21880710 21933958 21987388 22042636 22100576 
3204.424 22161522 22224778 22289578 22354876 22420290 22485504 22550238 
3207.799 22614214 22677154 22738250 22797120 22853868 22909296 22964034 
3211.174 23019512 23076534 23135346 23196122 23258726 23322806 23388644 
3214.549 23456768 23527034 23599864 23674562 23750042 23824802 23897228 
3217.925 23966096 24030526 24090728 24146980 24200716 24253656 24307370 
3221.300 24363580 24423792 24488326 24557042 24629238 24703342 24777950 
3224.675 24852116 24925310 24997428 25068996 25140542 25212592 25285110 
3228.050 25358132 25431198 25504210 25576882 25648828 25719872 25789908 
3231.426 25858370 25925370 25991146 26056194 26121146 26186286 26251786 
3234.801 26317506 26382920 26447674 26511558 26575100 26638896 26703690 
3238.176 26770288 26838732 26909088 26981256 27054670 27128976 27203930 
3241.551 27278652 27352502 27424672 27494632 27562376 27628932 27695920 
3244.927 27765426 27839256 27918148 28001722 28088742 28177118 28265126 
3248.302 28351666 28436844 28521402 28606188 28692406 28780342 28870278 
3251.677 28961720 29053960 29146822 29239954 29332714 29424928 29515990 
3255.052 29605582 29693384 29779994 29865488 29951178 30037734 30125550 
3258.427 30214630 30304258 30393376 30480802 30565436 30646178 30722704 
3261.803 30794940 30863200 30928484 30992356 31056200 31121582 31189790 
3265.178 31260890 31334638 31409930 31485270 31559378 31631682 31701644 
3268.553 31769444 31835504 31900008 31963200 32025262 32086152 32146056 
3271.928 32205254 32264174 32322920 32381426 32439586 32496642 32552068 
3275.304 32605566 32656540 32705336 32752424 32798554 32845046 32893118 
3278.679 32943800 32998100 33056054 33116628 33178602 33240050 33299002 
3282.054 33354816 33407234 33457726 33508010 33560376 33616044 33675624 
3285.429 33738464 33802568 33865968 33926656 33983120 34035112 34083384 
3288.805 34128976 34173816 34219560 34267528 34318840 34373852 34432384 
3292.180 34494008 34558228 34624248 34691432 34759264 34827364 34895184 
3295.555 34962728 35029676 35096700 35164280 35233588 35305356 35380156 
3298.930 35457768 35537052 35616708 35695120 35771316 35845368 35918460 
3302.306 35992284 36069000 36150088 36236376 36327508 36422732 36521008 
3305.681 36621424 36723388 36826452 36930588 37035400 37140700 37246248 
3309.056 37352508 37459876 37569620 37683328 37802380 37928156 38061524 
3312.431 38202608 38351012 38506344 38667128 38831956 38999064 39166736 
3315.807 39333748 39499996 39666012 39833472 40004452 40180620 40362640 
3319.182 40550268 40741796 40934944 41128100 41319848 41509672 41698380 
3322.557 41886988 42076076 42266568 42458196 42650204 42841784 43031728 
3325.932 43218868 43402424 43581592 43756028 43926360 44093048 44256940 
3329.308 44418804 44578600 44735732 44888592 45035512 45174872 45305776 
3332.683 45427564 45540152 45643380 45736652 45819236 45890048 45948568 
3336.058 45994872 46029936 46055208 46071528 46079340 46078016 46065784 
3339.433 46041064 46003048 45951920 45888980 45816768 45737168 45651584 
3342.809 45560060 45461484 45353444 45234288 45102116 44956056 44796196 
3346.184 44622696 44436312 44237716 44027736 43806972 43576828 43338312 
3349.559 43092468 42840796 42584340 42323396 42058960 41791764 41522032 
3352.934 41250540 40977472 40703040 40427332 40150636 39873312 39596172 
3356.310 39320800 39048144 38779784 38516264 38257500 38002684 37751452 
3359.685 37502680 37256356 37013244 36774160 36540540 36313312 36092724 
3363.060 35878476 35670156 35467008 35268588 35075220 34886856 34703776 
3366.435 34525292 34350576 34177904 34005836 33832908 33658472 33483136 
3369.811 33307910 33134184 32963712 32797590 32636426 32480360 32329060 
3373.186 32182056 32038782 31898868 31761744 31626836 31493716 31361562 
3376.561 31229914 31098552 30967446 30836520 30706202 30576138 30446538 
3379.936 30316944 30186958 30056340 29924908 29792770 29660142 29527658 
3383.312 29395818 29265190 29136442 29009786 28885434 28763384 28643030 
3386.687 28523878 28405538 28287264 28168634 28049964 27931328 27813114 
3390.062 27695672 27579110 27462862 27347070 27231554 27116490 27002552 
3393.437 26890616 26781284 26675008 26571120 26468944 26367392 26265724 
3396.813 26163376 26060874 25958960 25858302 25759494 25662536 25566938 
3400.188 25472202 25377696 25283318 25189066 25095746 25002798 24910678 
3403.563 24819032 24726702 24633272 24538002 24440548 24340906 24239534 
3406.938 24136856 24033468 23930278 23827882 23726982 23627922 23530812 
3410.313 23435224 23340604 23246280 23151770 23057316 22963264 22870318 
3413.689 22779102 22689650 22601578 22514362 22427094 22339144 22250760 
3417.064 22162148 22073418 21984808 21895904 21805728 21713690 21619478 
3420.439 21523476 21426520 21330488 21236396 21145312 21057206 20972142 
3423.814 20889564 20809502 20731888 20657314 20585738 20516606 20448806 
3427.190 20380666 20310700 20237758 20161706 20083306 20003532 19923496 
3430.565 19843754 19764232 19684482 19604332 19523468 19442656 19362618 
3433.940 19284362 19208718 19135650 19064914 18996094 18928772 18862912 
3437.315 18799174 18738008 18679858 18624448 18571292 18518626 18465346 
3440.691 18410068 18351996 18291098 18227894 18162798 18096260 18028388 
3444.066 17958452 17886182 17810780 17732322 17651634 17570546 17490854 
3447.441 17414764 17343100 17276136 17212598 17150756 17088716 17025204 
3450.816 16960186 16894144 16828042 16763156 16699243 16635753 16571240 
3454.192 16504053 16433192 16358800 16281463 16202867 16124560 16047711 
3457.567 15972663 15899416 15827451 15755877 15684761 15613933 15543150 
3460.942 15472583 15401823 15330457 15258485 15185975 15113236 15041025 
3464.317 14969992 14900754 14833550 14768653 14706096 14645878 14587760 
3467.693 14531054 14474320 14415882 14353719 14286393 14213395 14135480 
3471.068 14054772 13973909 13894771 13818795 13745841 13674745 13604210 
3474.443 13532864 13460779 13388466 13317088 13247737 13180753 13115830 
3477.818 13052281 12988913 12925178 12860701 12795485 12730072 12664397 
3481.194 12598356 12532087 12465589 12399238 12334226 12271541 12212002 
3484.569 12155366 12101395 12048488 11995484 11941056 11884626 11826127 
3487.944 11766069 11704896 11643018 11580569 11517176 11453045 11388209 
3491.319 11323212 11259042 11196784 11136949 11080080 11026311 10975096 
3494.695 10925995 10878530 10831682 10784974 10737864 10690353 10642472 
3498.070 10594800 10547983 10502391 10458232 10414653 10370637 10324352 
3501.445 10274476 10220196 10162056 10101889 10042544 9987310 9938726 
3504.820 9897640 9863778 9834833 9807583 9779048 9746550 9708667 9665536 
3508.678 9618581 9569734 9521673 9476054 9434165 9396411 9362520 9331678 
3512.535 9303242 9276127 9249793 9223393 9196521 9168500 9139026 9108030 
3516.393 9075548 9042089 9008428 8975751 8945038 8917134 8892276 8870328 
3520.250 8850038 8829512 8806079 8777542 8741941 8698804 8648979 8594699 
3524.107 8538601 8483388 8430616 8380551 8332722 8285809 8238666 8191359 
3527.965 8144529 8099393 8057400 8019158 7984159 7951694 7920547 7889099 
3531.822 7857079 7824185 7790248 7755031 7718064 7678570 7636280 7591332 
3535.680 7544769 7498482 7453985 7412999 7375723 7341382 7308696 7276450 
3539.537 7243701 7210179 7176458 7143143 7110842 7079554 7049379 7019643 
3543.395 6990348 6960920 6931292 6900690 6868406 6833567 6795803 6755720 
3547.252 6714598 6674555 6637343 6603734 6572919 6542779 6510556 6473526 
3551.109 6430783 6383100 6333238 6284692 6240589 6202674 6171451 6145573 
3554.967 6123024 6102727 6083641 6066001 6049907 6035258 6021214 6006466 
3558.824 5989467 5969143 5945259 5919462 5893465 5870560 5853163 5842719 
3562.682 5839327 5841376 5845003 5845506 5836775 5813536 5771596 5709852 
3566.539 5630964 5541485 5450347 5366138 5295496 5240963 5201089 5171850 
3570.396 5148613 5127021 5104290 5079649 5053635 5027455 5002652 4979659 
3574.254 4958678 4939274 4920775 4902311 4884048 4866289 4849100 4832850 
3578.111 4817404 4802328 4787017 4771172 4754824 4738142 4722499 4709201 
3581.969 4699588 4694329 4693827 4696909 4701330 4703674 4699889 4685889 
3585.826 4658023 4615324 4559570 4495353 4430308 4373173 4330702 4306774 
3589.684 4301688 4311627 4330836 4351920 4368252 4374277 4366646 4344323 
3593.541 4309217 4265080 4216999 4169860 4127944 4094161 4069711 4054226 
3597.398 4046300 4042687 4040647 4036400 4027538 4013191 3993628 3971759 
3601.256 3951128 3935380 3927455 3928324 3937486 3952499 3970254 3987074 
3605.113 3999012 4002825 3995468 3975103 3941565 3897131 3845948 3794605 
3608.971 3749784 3715863 3694208 3682312 3675294 3667041 3652773 3631088 
3612.828 3603824 3576395 3554982 3544960 3548601 3564369 3587019 3609203 
3616.686 3623336 3622234 3601719 3561195 3505008 3441248 3379867 3330382 
3620.543 3298930 3286711 3291018 3306709 3328445 3352419 3377797 3406315 
3624.400 3440780 3482763 3530996 3578934 3616453 3629584 3605428 3537243 
3628.258 3428891 3298262 3170811 3071627 3013401 2994584 3003492 3024845 
3632.115 3045799 3057745 3058346 3049837 3038058 3028749 3025546 3029350 
3635.973 3038058 3048569 3058179 3065687 3071293 3076532 3082071 3087978 
3639.830 3092750 3094185 3090480 3081938 3070826 3061983 3060948 3072427 
3643.688 3099057 3139872 3190437 3243412 3291118 3325073 3338729 3328178 
3647.545 3292420 3233798 3157127 3069658 2980705 2900209 2838472 2803221 
3651.402 2798018 2820962 2865454 2921524 2977369 3021509 3045166 3042796 
3655.260 3014936 2968294 2914986 2867922 2837938 2829567 2841440 2867455 
3659.117 2899675 2930798 2955117 2970129 2976234 2976334 2974766 2975267 
3662.975 2981005 2993449 3012867 3039760 3074963 3119781 3175784 3242844 
3666.832 3318429 3396364 3469770 3533569 3589625 3650935 3742131 3895091 
3670.689 4135270 4476304 4915715 5441086 6034821 6677987 7350347 8016661 
3674.547 8622278 9094801 9354665 9349282 9073857 8567731 7893721 7118252 
3678.404 6305938 5511953 4786884 4173540 3694910 3353554 3131228 2998187 
3682.262 2921724 2876327 2848043 2831801 2828200 2836937 2854114 2871290 
3686.119 2878662 2866721 2831568 2775142 2706254 2636510 2576209 2530748 
3689.977 2500454 2481892 2471529 2467497 2468763 2475628 2487324 2502120 
3693.834 2517584 2531414 2541946 2548545 2552612 2555578 2559577 2566143 
3697.691 2575776 2587642 2600109 2610142 2614009 2608742 2592409 2565877 
3701.549 2532848 2499854 2473795 2460599 2463132 2480859 2510585 2547379 
3705.406 2587275 2626876 2664479 2699752 2731894 2760236 2781911 2793216 
3709.264 2789548 2767606 2726026 2667246 2597242 2525682 2462932 2418015 
3713.121 2396825 2399890 2424179 2462932 2509052 2555545 2596775 2629309 
3716.979 2652711 2667980 2677581 2683282 2685983 2684983 2678782 2666280 
3720.836 2648311 2627742 2609075 2597309 2595442 2603675 2618842 2635410 
3724.693 2647244 2650411 2644010 2631509 2619509 2616342 2628509 2658845 
3728.551 2705020 2761337 2818895 2868389 2903045 2919723 2920824 2912384 
3732.408 2902511 2896507 2893838 2887801 2869423 2831101 2771907 2700486 
3736.266 2630943 2579576 2556644 2563344 2593442 2638443 2690184 2744764 
3740.123 2802054 2862952 2926661 2987511 3033153 3046600 3012867 2926628 
3743.980 2801420 2670247 2575443 2544513 2580243 2663313 2764972 2858383 
3747.838 2922258 2945342 2927095 2876494 2807756 2735128 2668446 2612075 
3751.695 2567810 2538780 2529382 2543679 2582376 2640910 2710255 2779377 
3755.553 2838538 2880530 2903078 2907547 2897874 2878295 2851445 2819362 
3759.410 2783946 2749366 2721891 2708321 2712855 2734995 2769273 2806756 
3763.268 2837304 2854614 2856648 2847543 2835036 2828133 2832402 2847977 
3767.125 2869856 2890536 2903145 2903278 2890703 2869123 2844541 2822930 
3770.982 2808323 2802020 2803121 2809257 2817894 2826832 2834436 2840339 
3774.840 2845075 2849678 2855081 2861485 2867655 2870657 2867221 2854881 
3778.697 2833569 2806522 2780244 2761837 2756068 2763871 2781945 2803487 
3782.555 2820962 2829200 2825832 2812792 2794750 2777743 2766305 2762937 
3786.412 2766905 2776176 2787914 2799519 2809223 2815860 2818895 2818495 
3790.270 2815660 2813025 2813926 2821963 2839806 2867288 2901277 2935535 
3794.127 2962957 2977769 2977435 2964891 2947978 2937036 2940972 2963590 
3797.984 3001423 3045532 3081904 3095987 3076865 3020641 2935301 2839572 
3801.842 2759470 2716890 2720957 2766605 2837804 2913885 2973966 3002024 
3805.699 2990480 2941973 2870924 2798218 2745031 2722858 2732394 2765138 
3809.557 2810324 2858283 2904279 2948445 2993750 3043430 3097422 3151153 
3813.414 3195444 3219978 3215405 3179122 3117979 3049470 2994784 2970996 
3817.271 2984275 3028015 3086543 3139238 3167173 3156125 3101359 3011199 
3821.129 2907181 2817527 2764271 2757069 2790615 2850745 2919022 2979337 
3824.986 3021809 3042496 3045199 3038025 3031819 3034521 3049236 3073729 
3828.844 3102294 3128024 3145445 3152287 3150151 3143777 3139505 3143410 
3832.701 3159330 3187967 3226220 3268316 3306843 3333220 3340065 3322836 
3836.559 3281236 3220312 3149617 3081771 3027448 2993049 2979103 2980505 
3840.416 2990814 3002424 3010799 3013201 3009564 3001690 2991781 2983307 
3844.273 2979037 2981439 2992749 3013735 3044565 3084440 3132062 3186398 
3848.131 3246616 3312218 3382138 3453137 3519372 3569848 3590594 3565438 
3851.988 3481727 3337360 3147882 2948545 2780377 2673981 2637443 2658845 
3855.846 2716923 2790615 2866087 2935601 2996953 3051338 3100725 3146246 
3859.703 3187700 3224217 3254361 3277396 3292787 3299798 3297161 3283072 
3863.561 3256665 3219744 3179255 3144578 3126556 3131728 3159830 3202987 
3867.418 3246984 3276829 3279433 3249788 3193842 3127991 3073729 3045933 
3871.275 3049003 3075097 3109769 3137736 3148583 3140172 3118646 3095953 
3875.133 3084507 3093751 3125187 3174282 3231261 3285309 3325941 3345140 
3878.990 3339631 3311450 3268650 3222682 3186765 3170811 3178421 3205892 
3882.848 3243078 3277163 3294089 3284608 3246650 3188368 3126489 3080302 
3886.705 3064686 3083973 3131829 3194309 3255663 3301968 3323537 3317827 
3890.563 3289348 3249020 3209096 3180858 3170844 3179890 3205391 3242811 
3894.420 3287879 3336659 3385911 3432464 3473143 3504541 3523881 3529026 
3898.277 3520040 3499163 3470806 3439945 3411625 3388549 3371185 3357160 
3902.135 3342769 3324839 3301367 3273424 3244847 3221013 3207260 3206326 
3905.992 3218209 3239673 3266513 3293321 3316292 3333420 3344405 3350749 
3909.850 3354122 3356459 3359197 3363104 3368914 3377029 3388382 3403176 
3913.707 3420308 3438041 3452937 3461988 3462422 3453638 3436839 3415532 
3917.564 3394160 3375559 3362069 3354222 3351685 3354189 3362169 3375726 
3921.422 3394761 3418004 3442216 3463090 3476417 3479490 3472142 3457245 
3925.279 3439478 3424549 3415966 3415432 3421543 3432164 3444187 3454607 
3929.137 3462322 3465962 3465228 3459951 3449764 3435270 3417636 3399402 
3932.994 3383574 3372755 3368647 3371219 3378799 3389150 3400104 3409955 
3936.852 3418571 3426119 3433533 3441214 3449363 3457112 3463424 3467065 
3940.709 3467265 3463224 3454907 3443151 3428824 3414130 3401206 3392289 
3944.566 3388850 3390820 3396464 3403209 3407651 3407150 3400571 3388716 
3948.424 3373990 3359565 3348813 3343704 3344706 3351150 3361835 3375226 
3952.281 3389651 3403844 3415933 3423981 3426520 3422779 3413328 3400204 
3956.139 3386980 3376995 3373155 3376661 3386813 3401907 3419206 3436538 
3959.996 3452236 3465094 3474713 3480492 3482128 3479089 3472008 3462255 
3963.854 3451768 3443218 3438843 3439812 3446024 3456678 3469603 3483431 
3967.711 3496725 3508716 3519038 3527322 3533068 3536107 3536308 3533969 
3971.568 3530128 3525952 3522779 3521777 3523313 3527489 3534070 3542955 
3975.426 3553411 3565070 3576930 3587687 3596007 3601252 3602922 3601987 
3979.283 3599815 3597744 3597009 3597644 3599113 3600316 3600216 3598712 
3983.141 3596441 3594202 3593033 3592899 3593234 3593133 3591463 3588055 
3986.998 3583211 3578300 3574525 3572253 3571718 3571885 3571384 3569881 
3990.855 3567342 3564536 3562865 3563300 3566173 3571050 3576228 3580338 
3994.713 3581707 3579703 3574024 3565271 3554213 3541987 3529527 3517835 
3998.570 3507747 3500065 3494921 3492683 3493151 
##END=
