
##TITLE=mdmaHCL00394_9
##JCAMP-DX=5.01  $$ Nicolet v. 1
##DATATYPE=INFRARED SPECTRUM
##ORIGIN=UniL
##OWNER=Nicolet
##LONGDATE=2011/08/24
##TIME=09:23:33
##SPECTROMETER/DATA SYSTEM=Nicolet iS5
##DATA PROCESSING=
Ratio against background
%Transmittance->Absorbance
Truncated
ElementMultiply or ElementDivide
##COMMENTS=
Number of sample scans: 32
Collection length: 51.18 sec
Sample gain: 2.0
Background collected on: Mer Aout 24 09:21:53 2011 (GMT+02:00);
Number of background scans: 32
Background gain: 2.0
Sample spacing:  1.000
Number of scan points: 12415
Resolution points: 8192
Number of FFT points: 65536
Apodization: N-B fort;
Phase correction: Mertz;
Laser frequency: 15798.0 cm-1
Number of rejected sample scans: 0
Number of rejected background scans: 0
Bench serial number: ASB1000141;
##RESOLUTION=4.000
##XUNITS=1/CM
##YUNITS=ABSORBANCE
##FIRSTX=649.893372
##LASTX=4000.122314
##FIRSTY=0.078684
##MAXX=4000.122314
##MINX=649.893372
##MAXY=0.253524
##MINY=0.003727
##XFACTOR=1.000000
##YFACTOR=1.000000E-009
##NPOINTS=6950
##DELTAX=0.482117
##ZPD=6100
##XYDATA=(X++(Y..Y))
649.893 78683552 78740432 78874264 79095040 79391856 79740232 80112280 
653.268 80494208 80893200 81334520 81845576 82443792 83124912 83866224 
656.643 84637352 85415136 86193744 86984400 87806104 88672120 89585312 
660.018 90538832 91525496 92550736 93635280 94809064 96099768 97518032 
663.393 99051144 100667136 102330968 104015224 105695840 107348000 108918528 
666.767 110303304 111357208 111933536 111959344 111475528 110599328 
669.660 109449848 108095192 106552240 104813216 102876256 100771000 98562072 
673.035 96328240 94148472 92071984 90114240 88268472 86522304 84871992 
676.410 83326336 81898344 80595560 79411504 78327216 77318504 76365960 
679.785 75461952 74610368 73819832 73095688 72434608 71825232 71253744 
683.159 70710544 70194752 69713008 69275368 68889272 68554072 68263600 
686.534 68009120 67785472 67592632 67434824 67315376 67230960 67168264 
689.909 67104956 67014204 66873656 66669516 66399328 66069588 65690920 
693.284 65274180 64827600 64359232 63879012 63400856 62942564 62522100 
696.659 62153272 61843132 61590324 61387816 61225188 61092292 60980788 
700.034 60882924 60791100 60696820 60590180 60462848 60310728 60135032 
703.408 59942136 59743132 59549120 59368336 59205704 59063212 58940996 
706.783 58839984 58762440 58710812 58686996 58690900 58720256 58773440 
710.158 58852808 58967676 59137812 59389876 59751116 60241604 60861080 
713.533 61580092 62333840 63034156 63576036 63858360 63812724 63412204 
716.908 62684296 61703284 60585948 59470648 58487804 57758784 57372648 
720.282 57377528 57778960 58531100 59538628 60647860 61672196 62416884 
723.657 62698648 62401124 61494652 60051320 58223568 56215664 54239260 
727.032 52453136 50954464 49769280 48869372 48197956 47694256 47312528 
730.407 47020888 46799812 46633260 46502912 46388268 46272992 46147764 
733.782 46013728 45879292 45754508 45644960 45549052 45460600 45373160 
737.156 45284372 45198144 45121712 45060948 45016436 44982808 44950396 
740.531 44910232 44859676 44801412 44742164 44688580 44642488 44601692 
743.906 44562776 44524776 44492472 44475112 44482820 44520080 44582420 
747.281 44657032 44727584 44781320 44813940 44830580 44842152 44859052 
750.656 44884916 44916076 44943964 44961092 44965980 44964288 44965172 
754.031 44976376 44999164 45027608 45052492 45067012 45072084 45076936 
757.405 45095352 45138620 45212116 45312396 45431612 45562188 45702676 
760.780 45857532 46034540 46238752 46469128 46719036 46981492 47255964 
764.155 47553160 47894140 48306820 48817684 49445016 50198356 51078668 
767.530 52081288 53194568 54398616 55665064 56960072 58263768 59593816 
770.905 61033336 62730232 64879268 67669016 71187656 75348120 79818664 
774.279 84074024 87426768 89197048 88935256 86517856 82227872 76635272 
777.654 70495984 64534188 59278356 55054000 51940144 49839736 48550520 
781.029 47852332 47560260 47535192 47695180 47991192 48390112 48869260 
784.404 49414272 50022580 50703560 51474796 52353732 53350880 54469260 
787.779 55709208 57077540 58594004 60293140 62216280 64408540 66909172 
791.154 69750048 72963384 76585152 80657120 85222576 90307592 95900640 
794.528 101925368 108235504 114605240 120725024 126252832 130814536 
797.421 134044440 135659536 135481280 133492408 129843440 124849768 
800.314 118941328 112568168 106185968 100168432 94763400 90107552 86209912 
803.689 82986232 80290264 77965696 75884008 73964616 72192192 70601888 
807.063 69259360 68222536 67518192 67120232 66952660 66895260 66806756 
810.438 66564484 66072488 65282532 64193340 62839812 61279516 59574960 
813.813 57792016 55989968 54219512 52526984 50949656 49513932 48237092 
817.188 47124580 46173080 45373304 44714800 44188452 43787988 43509284 
820.563 43349332 43305220 43374160 43556132 43856448 44286440 44864672 
823.938 45612940 46550336 47688892 49025692 50539152 52181600 53880132 
827.312 55539052 57036128 58244144 59046284 59351472 59124184 58390764 
830.687 57244404 55819820 54280144 52790616 51482368 50449900 49736432 
834.062 49334572 49190940 49215800 49303392 49335388 49205152 48838592 
837.437 48199068 47299668 46195192 44974356 43733636 42558320 41514052 
840.812 40632960 39919804 39359868 38930196 38608200 38375372 38218744 
844.186 38127684 38090896 38097700 38137740 38204668 38296180 38414860 
847.561 38564312 38746564 38960532 39202780 39469224 39757904 40070320 
850.936 40410420 40782704 41189516 41629816 42100536 42598632 43124084 
854.311 43680728 44275432 44916408 45611356 46365852 47185408 48077832 
857.686 49054516 50132496 51333252 52679500 54195488 55904228 57827180 
861.060 59983756 62385976 65030836 67887072 70885544 73914136 76808592 
864.435 79380840 81434432 82784520 83301208 82918848 81651792 79588856 
867.810 76886896 73750672 70387304 67002996 63771276 60812560 58205876 
871.185 55985372 54149580 52674416 51522620 50654000 50026516 49601840 
874.560 49345152 49222964 49207156 49274960 49410708 49607488 49865188 
877.935 50187796 50579316 51040804 51568772 52156568 52795740 53479552 
881.309 54204120 54967764 55770008 56608128 57475740 58360516 59246412 
884.684 60111368 60932632 61689844 62367040 62959604 63477388 63946648 
888.059 64405040 64897156 65466144 66140892 66933372 67833920 68816128 
891.434 69841648 70867368 71854352 72766824 73573112 74245912 74757504 
894.809 75081776 75197040 75086232 74740856 74161880 73360816 72359840 
898.183 71191168 69900568 68541152 67170664 65849172 64626232 63539752 
901.558 62611720 61848020 61241820 60780008 60448416 60235092 60132332 
904.933 60135112 60239356 60440380 60732944 61112656 61577496 62128536 
908.308 62769436 63503548 64332724 65255156 66267432 67365752 68548912 
911.683 69818728 71179184 72634264 74185256 75830664 77568664 79401048 
915.058 81337040 83396352 85605600 87997096 90602096 93444720 96540392 
918.432 99891104 103482216 107273504 111192680 115133168 118942160 122444736 
921.807 125468584 127867520 129570888 130604120 131105888 131301072 
924.700 131486000 131992608 133114952 135097344 138089888 142121232 
927.593 147085392 152726240 158670176 164392832 169280656 172724096 
930.485 174130720 173066496 169335200 163010112 154448880 144223952 
933.378 133074208 121736040 110863400 100991992 92450608 85403352 79876728 
936.753 75796456 73037904 71460016 70937080 71350392 72577792 74482200 
940.128 76871752 79495104 82069704 84276416 85827192 86519192 86251776 
943.502 85058312 83084792 80571984 77789056 74988400 72384152 70110200 
946.877 68230064 66749068 65633408 64830260 64282776 63944080 63774892 
950.252 63743992 63827692 64004160 64255340 64567484 64930828 65340184 
953.627 65793268 66288152 66821708 67388736 67982384 68595816 69224192 
957.002 69864840 70517224 71180936 71854856 72536752 73223368 73912640 
960.377 74604864 75302952 76011920 76735840 77477008 78233768 79002744 
963.751 79779688 80561856 81348984 82143312 82946920 83760208 84581064 
967.126 85405328 86229544 87052624 87877368 88709960 89557944 90427296 
970.501 91320640 92237696 93177192 94138552 95123872 96137432 97184368 
973.876 98268144 99389952 100548256 101741304 102969232 104234920 105542752 
977.251 106896152 108294552 109732160 111198416 112680296 114165568 
980.143 115644696 117109344 118551088 119958552 121316080 122606848 
983.036 123816504 124937672 125971672 126928640 127823264 128668768 
985.929 129475920 130252000 131002648 131736072 132464472 133202152 
988.821 133963464 134758928 135592432 136463552 137370192 138312496 
991.714 139295248 140325872 141411520 142554496 143751104 144991584 
994.607 146264832 147562928 148883024 150226688 151596528 152991312 
997.500 154404048 155823632 157237776 158638944 160026912 161408272 
1000.392 162792272 164186496 165594272 167015632 168450400 169902272 
1003.285 171380400 172897584 174466208 176093312 177778576 179516672 
1006.178 181302272 183134560 185020032 186969168 188991232 191087824 
1009.070 193250240 195459840 197693872 199932704 202161632 204371120 
1011.963 206552704 208693344 210774912 212778080 214687136 216498128 
1014.856 218218896 219867088 221460096 223007408 224506848 225946544 
1017.748 227310976 228588112 229773936 230870528 231881744 232808768 
1020.641 233650240 234407904 235093088 235734208 236375984 237068512 
1023.534 237860544 238784704 239851952 241053984 242369712 243774016 
1026.427 245238944 246734368 248222640 249649504 250949712 252050288 
1029.320 252879200 253382288 253523744 253286176 252665616 251665296 
1032.213 250294560 248570880 246527136 244211920 241679984 238986528 
1035.106 236168720 233235872 230168368 226925616 223461520 219733584 
1037.999 215717504 211409792 206827376 202005568 196997376 191877024 
1040.892 186730416 181654160 176745392 172079056 167705104 163637936 
1043.785 159860512 156332864 153006720 149842016 146811200 143904832 
1046.678 141127936 138494592 136021680 133724288 131615104 129701688 
1049.571 127985808 126462344 125118184 123932720 122877624 121924784 
1052.464 121047864 120226320 119447984 118705792 117994560 117307848 
1055.357 116635616 115963944 115278664 114565472 113811808 113006488 
1058.250 112137632 111192896 110160792 109032736 107807528 106492960 
1061.144 105106752 103672536 102215240 100759808 99325896 97929128 96582816 
1064.519 95297232 94081152 92940240 91875024 90880296 89945064 89056256 
1067.894 88200720 87369192 86558296 85769704 85009096 84283336 83599432 
1071.269 82963880 82382656 81862256 81408648 81027112 80720920 80489664 
1074.645 80330408 80237016 80202136 80217288 80271016 80348552 80428888 
1078.020 80484520 80486040 80405720 80224536 79938384 79559640 79116104 
1081.395 78643080 78181128 77767928 77434432 77208568 77113272 77169472 
1084.770 77398480 77820168 78452464 79311704 80409432 81752208 83338944 
1088.146 85156936 87174704 89333456 91550656 93711992 95683296 97337240 
1091.521 98559816 99278544 99475736 99190472 98514096 97568968 96504432 
1094.896 95466408 94579248 93945336 93627112 93648648 93998040 94631984 
1098.271 95481472 96454288 97451600 98367744 99096928 99549560 99652496 
1101.646 99359384 98658576 97573280 96160416 94495632 92670560 90776144 
1105.022 88888696 87074600 85381256 83838288 82463016 81259328 80220952 
1108.397 79332112 78570696 77909872 77319688 76772104 76240720 75700800 
1111.772 75131640 74513552 73829416 73066912 72220208 71292360 70295472 
1115.147 69250384 68183264 67119880 66085136 65099388 64176516 63326784 
1118.523 62556276 61867964 61262424 60738048 60291352 59916504 59606092 
1121.898 59350216 59135308 58943688 58751248 58526548 58235692 57844480 
1125.273 57324176 56660900 55856556 54931892 53919972 52864108 51808268 
1128.648 50788284 49832188 48955072 48160676 47444080 46794796 46200020 
1132.024 45645328 45117884 44606948 44104712 43608292 43118668 42641212 
1135.399 42183708 41754920 41363212 41014832 40714324 40464464 40266912 
1138.774 40122504 40031084 39991408 40000636 40054444 40148272 40277416 
1142.149 40438896 40630592 40851828 41101324 41377248 41676172 41993912 
1145.525 42325916 42667972 43015672 43364892 43710112 44044896 44361992 
1148.900 44654644 44918392 45152368 45358960 45543240 45712248 45873180 
1152.275 46032664 46197180 46373152 46566200 46781656 47022952 47290620 
1155.650 47581884 47891256 48211432 48534144 48852052 49158100 49444644 
1159.026 49703848 49925924 50100288 50217140 50267580 50245264 50146440 
1162.401 49968896 49711688 49374624 48959040 48468124 47907868 47287368 
1165.776 46618096 45911736 45180972 44436532 43688236 42945544 42217264 
1169.151 41512480 40840104 40207332 39619944 39080732 38590348 38148016 
1172.527 37752972 37405376 37107104 36861076 36670168 36536864 36462588 
1175.902 36448212 36494588 36603440 36777116 37018944 37331924 37718852 
1179.277 38182456 38726384 39355660 40078064 40902684 41838496 42894048 
1182.652 44074344 45382724 46821400 48392780 50099956 51945896 53931264 
1186.028 56050248 58287600 60618600 63004500 65395036 67731600 69941392 
1189.403 71947016 73670544 75035856 75985552 76487016 76538392 76169320 
1192.778 75436560 74416992 73189096 71828816 70399224 68940456 67474608 
1196.153 66005244 64524660 63020668 61484040 59914184 58321936 56729048 
1199.529 55163576 53658048 52242584 50940120 49767384 48731604 47832988 
1202.904 47065492 46419648 45883308 45441248 45077232 44772356 44505576 
1206.279 44257088 44008556 43745252 43459040 43146696 42809824 42453080 
1209.654 42083012 41706916 41332384 40968732 40626156 40315848 40050376 
1213.030 39841644 39700104 39635444 39655048 39765528 39972988 40282000 
1216.405 40696712 41219132 41849404 42586900 43430364 44379756 45436280 
1219.780 46602164 47879492 49268984 50770480 52383040 54107204 55946176 
1223.155 57906448 59996728 62225192 64596316 67108476 69752816 72512168 
1226.531 75358912 78256744 81156984 83994824 86697280 89180048 91353480 
1229.906 93138304 94464576 95281464 95565240 95320672 94587488 93437528 
1233.281 91981032 90355568 88708208 87198968 85975032 85160248 84862488 
1236.656 85160888 86110752 87750664 90099848 93160104 96909936 101303496 
1240.031 106261496 111663976 117365760 123185248 128912224 134335840 
1242.925 139229952 143377792 146599856 148754960 149767120 149632048 
1245.818 148415232 146240112 143265248 139686032 135705136 131518648 
1248.711 127316608 123246064 119400656 115809608 112430960 109161208 
1251.604 105852080 102356008 98546848 94352816 89774392 84881656 79803456 
1254.979 74690832 69707952 64998008 60660660 56756008 53297420 50262632 
1258.354 47604144 45263228 43182088 41305636 39590616 38005720 36528716 
1261.729 35147212 33854360 32646250 31519260 30468396 29487052 28568216 
1265.105 27705880 26896962 26141028 25440122 24796858 24212278 23685584 
1268.480 23214368 22795724 22427932 22110860 21845446 21632502 21471286 
1271.855 21359236 21291790 21264684 21274150 21317648 21393348 21498512 
1275.230 21628498 21777438 21938490 22105142 22272628 22437212 22595122 
1278.606 22742056 22871784 22978008 23056094 23104350 23124688 23121472 
1281.981 23098374 23055464 22988104 22887222 22743592 22550970 22310786 
1285.356 22031796 21729782 21424432 21133138 20870338 20645360 20462594 
1288.731 20323998 20229358 20177048 20163546 20183018 20228664 20293028 
1292.107 20370770 20460162 20562392 20680664 20817670 20974160 21148478 
1295.482 21337624 21538934 21752670 21981184 22229136 22500754 22799006 
1298.857 23125142 23479186 23861872 24274502 24718706 25193630 25693506 
1302.232 26207542 26718418 27205624 27650966 28038760 28360012 28611744 
1305.608 28795918 28918262 28987470 29015488 29016516 29007130 29004472 
1308.983 29022680 29070752 29151572 29261716 29394080 29540710 29695370 
1312.358 29853776 30012880 30169946 30320530 30458694 30579052 30676724 
1315.733 30749376 30796254 30817526 30811976 30777366 30710614 30610872 
1319.109 30480090 30325612 30158120 29989056 29829218 29685188 29560714 
1322.484 29458188 29380608 29333990 29327326 29371106 29476236 29652940 
1325.859 29909362 30253030 30689916 31222650 31846914 32547530 33297394 
1329.234 34055328 34774376 35410456 35926992 36305644 36546196 36665264 
1332.610 36689528 36650520 36579576 36502660 36441504 36414012 36433360 
1335.985 36509472 36648716 36853536 37124856 37464064 37874900 38364472 
1339.360 38941724 39613120 40380240 41236620 42167572 43150428 44157492 
1342.735 45155972 46105280 46962408 47681864 48219688 48543888 48635788 
1346.111 48493836 48130248 47567612 46833284 45952988 44951572 43852380 
1349.486 42677840 41454956 40215004 38990904 37817672 36725660 35736204 
1352.861 34862404 34108080 33471506 32948196 32532818 32219026 31998082 
1356.236 31859036 31788838 31774718 31807444 31882000 31996510 32150410 
1359.612 32340520 32560352 32801948 33058916 33332166 33631832 33978248 
1362.987 34395696 34904484 35518676 36242824 37074728 38009048 39038280 
1366.362 40149724 41318096 42503104 43644160 44662356 45477600 46014984 
1369.737 46218444 46061068 45543200 44692616 43556132 42201784 40712792 
1373.113 39177684 37693372 36347036 35201356 34289904 33612104 33144734 
1376.488 32854446 32714554 32713804 32859806 33176600 33700864 34478588 
1379.863 35555284 36974672 38766488 40930352 43415240 46098536 48799072 
1383.238 51270608 53243780 54481168 54784780 54043672 52253944 49543528 
1386.614 46168548 42464736 38805436 35488760 32690332 30464594 28768446 
1389.989 27510446 26584716 25900924 25387146 24989954 24674444 24417730 
1393.364 24207164 24040190 23920474 23854660 23847274 23898594 24003632 
1396.739 24155282 24344446 24561740 24797806 25041406 25281106 25507970 
1400.115 25716040 25904478 26075720 26233342 26380032 26517720 26648584 
1403.490 26776526 26909336 27058970 27237620 27455522 27717038 28019888 
1406.865 28357466 28722530 29110292 29519820 29952988 30412494 30900022 
1410.240 31414918 31955424 32519280 33104896 33708280 34320028 34923980 
1413.615 35496348 36009668 36443308 36788004 37051384 37254408 37427692 
1416.991 37604012 37811132 38072268 38405524 38823952 39336760 39946472 
1420.366 40644676 41414860 42234612 43083756 43948316 44828484 45740924 
1423.741 46716012 47786456 48975804 50289568 51714128 53224568 54793240 
1427.116 56399364 58025536 59653720 61260628 62810824 64260260 65567284 
1430.492 66702580 67661472 68465080 69158912 69799928 70442680 71136480 
1433.867 71922344 72840016 73940144 75287784 76956360 79011208 81473240 
1437.242 84308640 87442120 90779944 94227416 97680568 101025984 104109496 
1440.617 106741912 108739096 109929328 110199608 109515168 107911728 
1443.510 105483688 102355248 98675832 94591736 90232296 85722272 81176880 
1446.886 76718560 72496776 68666416 65363368 62670440 60593872 59075628 
1450.261 58023036 57351020 57000080 56943832 57178372 57701788 58499212 
1453.636 59543684 60798380 62232188 63832456 65596612 67524040 69591768 
1457.011 71746928 73912296 76015824 78020416 79919184 81723888 83452560 
1460.387 85121352 86740320 88306680 89806344 91201672 92428360 93408432 
1463.762 94061768 94341040 94258296 93893104 93364600 92782424 92226888 
1467.137 91733968 91307592 90937232 90606464 90293280 89958592 89537176 
1470.512 88932408 88020832 86693800 84905584 82715448 80278544 77787192 
1473.888 75397584 73187088 71173056 69350856 67727264 66339604 65246604 
1477.263 64498900 64125584 64120748 64454660 65091572 66008948 67206672 
1480.638 68704176 70529040 72700464 75221112 78075696 81241752 84699920 
1484.013 88446752 92489976 96833144 101460872 106305808 111223456 116002248 
1487.389 120346520 123906936 126339776 127332616 126688552 124391352 
1490.282 120635120 115793256 110306336 104595208 98953800 93527600 88363128 
1493.657 83432888 78692928 74130432 69778528 65724956 62092108 58991132 
1497.032 56484296 54567868 53192280 52284440 51775192 51613924 51763136 
1500.407 52194044 52879976 53789744 54886732 56132516 57475096 58851100 
1503.783 60179752 61336600 62153272 62418608 61909840 60493048 58218528 
1507.158 55334264 52162096 48954512 45833520 42819224 39894524 37050084 
1510.533 34297936 31681434 29258172 27074804 25161468 23520528 22132444 
1513.908 20966682 19989030 19167542 18470222 17868436 17341376 16878676 
1517.284 16484331 16171467 15951935 15826249 15779242 15779860 15792023 
1520.659 15787110 15760962 15737634 15758660 15857417 16041109 16293194 
1524.034 16584666 16889836 17194464 17502134 17829388 18198144 18622614 
1527.409 19103658 19631580 20193984 20783536 21401318 22055674 22756824 
1530.785 23510698 24317638 25170596 26057636 26967470 27891648 28827182 
1534.160 29772154 30724162 31675838 32615856 33526588 34387840 35180948 
1537.535 35883404 36474300 36934232 37246612 37399200 37388220 37226176 
1540.910 36940724 36569052 36147024 35695012 35213932 34686512 34090304 
1544.286 33411708 32660042 31868060 31083034 30344906 29667768 29039222 
1547.661 28426338 27794074 27120794 26412460 25700888 25032702 24444824 
1551.036 23948624 23530076 23160612 22813148 22474896 22153294 21870290 
1554.411 21649984 21502828 21419208 21369400 21311800 21193390 20952460 
1557.787 20530502 19891412 19061488 18142068 17267964 16536234 15974451 
1561.162 15559977 15248326 14994207 14757718 14510874 14240031 13949376 
1564.537 13658162 13393250 13178499 13022303 12916439 12839610 12767469 
1567.912 12679510 12566431 12432616 12294072 12171518 12080749 12030127 
1571.288 12020146 12047363 12107357 12194009 12299253 12409602 12508249 
1574.663 12578778 12611454 12612614 12605587 12624417 12695033 12827393 
1578.038 13015714 13248214 13514508 13811543 14143661 14519953 14949690 
1581.413 15438215 15984900 16582979 17221800 17885630 18554174 19201930 
1584.789 19796274 20302610 20691264 20942098 21052164 21037416 20933752 
1588.164 20789932 20662594 20611136 20685530 20924990 21354922 21981392 
1591.539 22789334 23736044 24755816 25755346 26626178 27266550 27587054 
1594.914 27533640 27097480 26316766 25268884 24049366 22762864 21498164 
1598.290 20320802 19277158 18391504 17672132 17115220 16708815 16436290 
1601.665 16280776 16230451 16279021 16425863 16672043 17016728 17453048 
1605.040 17968020 18540792 19143684 19745022 20304970 20779192 21124614 
1608.415 21299760 21274844 21037486 20594736 19975152 19225516 18407994 
1611.791 17584520 16807480 16112868 15512724 15001443 14560657 14167828 
1615.166 13802103 13450218 13112892 12803572 12543376 12351339 12237051 
1618.541 12198336 12223452 12294651 12391874 12496586 12592421 12669855 
1621.916 12727855 12774328 12822581 12885412 12970750 13078027 13201759 
1625.292 13334445 13471032 13608928 13747141 13884987 14020618 14152082 
1628.667 14279407 14405537 14537186 14681522 14844316 15026276 15222966 
1632.042 15423795 15615444 15783915 15914848 15996486 16021650 15990470 
1635.417 15913164 15810305 15706955 15622279 15565644 15535388 15521858 
1638.792 15511900 15491675 15452086 15390289 15311716 15227186 15149707 
1642.168 15088159 15043564 15008749 14969992 14911178 14816408 14675455 
1645.543 14487269 14262595 14022980 13796493 13611731 13487950 13433608 
1648.918 13446596 13516696 13626808 13752031 13860595 13909413 13851325 
1652.293 13656247 13341859 12986181 12685003 12496961 12420547 12420786 
1655.669 12456485 12497575 12527722 12541261 12540579 12530928 12517490 
1659.044 12502281 12483423 12456416 12415808 12356725 12276586 12175982 
1662.419 12060342 11939660 11826910 11734852 11673105 11644719 11646046 
1665.794 11667080 11694549 11711909 11704079 11660681 11578357 11463217 
1669.170 11328925 11193622 11073690 10979888 10916618 10882268 10870139 
1672.545 10869187 10865179 10840684 10778963 10671675 10524355 10359405 
1675.920 10205813 10088867 10017553 9985411 9975748 9971103 9960390 9942015 
1679.778 9923912 9918827 9936049 9974459 10019486 10043290 10012264 9898250 
1683.635 9695825 9434402 9170294 8957350 8818827 8747485 8719797 8711447 
1687.492 8703672 8685722 8653441 8607103 8549921 8486700 8424906 8373593 
1691.350 8341503 8334883 8354068 8391665 8431629 8453961 8438149 8373390 
1695.207 8267100 8147669 8053586 8010956 8023411 8071138 8122551 8140580 
1699.065 8093317 7967825 7781578 7582430 7422705 7334104 7315671 7346842 
1702.922 7400730 7453985 7490256 7499594 7480683 7440367 7391462 7346977 
1706.780 7316850 7304955 7309673 7326050 7348122 7371948 7395944 7421998 
1710.637 7453446 7494234 7546354 7609473 7680627 7755841 7831304 7903945 
1714.494 7971200 8030195 8075122 8097874 8089299 8044506 7967791 7874051 
1718.352 7785458 7720931 7690239 7692026 7717456 7754357 7791665 7822532 
1722.209 7844124 7857248 7865042 7870575 7875771 7881473 7888053 7896657 
1726.067 7908704 7925339 7945721 7967184 7985037 7995600 7998064 7996039 
1729.924 7995870 8003430 8020137 8039072 8044540 8013656 7925035 7768625 
1733.781 7558626 7332351 7137956 7008666 6950584 6948934 6979237 7018431 
1737.639 7047022 7053521 7034124 6993311 6941527 6890826 6851407 6828350 
1741.496 6821551 6828115 6843699 6864064 6886147 6908837 6932773 6960213 
1745.354 6993715 7035269 7084909 7140617 7197714 7250439 7293533 7322208 
1749.211 7333868 7327364 7303574 7265937 7220622 7176660 7143244 7127279 
1753.069 7131354 7152036 7180736 7205193 7212908 7194177 7146175 7074973 
1756.926 6993951 6918600 6859452 6819262 6792606 6769282 6737581 6689125 
1760.783 6620925 6536422 6444402 6355394 6279750 6223513 6188995 6175215 
1764.641 6178341 6192524 6210102 6223547 6226707 6217799 6200758 6184592 
1768.498 6179853 6192457 6221967 6259682 6291785 6303787 6286440 6241463 
1772.356 6182139 6127326 6093117 6086666 6105315 6141138 6185466 6233429 
1776.213 6283785 6337777 6395979 6456980 6515400 6564543 6598620 6616047 
1780.071 6619680 6617494 6617494 6625366 6641549 6662240 6681991 6695518 
1783.928 6701171 6700061 6696225 6694408 6697638 6708137 6726813 6754138 
1787.785 6790452 6835250 6885945 6936376 6977957 7000147 6993850 6955264 
1791.643 6887696 6802804 6715270 6638790 6580724 6541299 6515904 6498751 
1795.500 6485129 6472315 6459200 6445512 6429875 6410842 6386227 6354924 
1799.358 6317470 6276321 6235143 6197397 6165502 6140902 6123461 6113044 
1803.215 6109650 6113145 6123360 6139222 6158916 6180324 6202136 6223883 
1807.073 6246101 6269531 6294576 6319924 6343526 6362892 6376443 6384681 
1810.930 6389724 6394970 6403813 6418307 6438551 6463908 6492932 6524582 
1814.787 6558522 6594583 6632498 6671460 6709920 6746466 6780591 6812262 
1818.645 6842386 6872109 6901935 6931730 6961122 6989405 7016343 7041364 
1822.502 7063523 7080699 7089994 7089085 7077432 7058202 7038434 7025469 
1826.360 7025671 7040656 7066554 7094810 7115086 7119195 7104477 7075512 
1830.217 7042340 7016849 7007319 7015771 7038670 7070461 7106026 7143009 
1834.074 7182218 7226451 7278303 7338215 7404134 7472289 7540016 7606269 
1837.932 7673511 7746835 7831843 7932965 8051561 8185888 8330965 8480787 
1841.789 8627314 8762970 8882063 8982110 9065940 9141834 9221498 9315056 
1845.647 9427765 9557948 9698536 9838662 9967340 10076726 10162972 10226642 
1849.504 10271050 10299888 10314920 10315191 10298193 10260940 10202726 
1852.879 10125426 10033118 9929844 9819344 9703178 9581557 9454923 9324772 
1856.737 9193949 9066245 8944226 8828294 8716620 8606123 8495316 8384672 
1860.594 8277569 8178866 8092810 8020778 7961481 7911741 7869159 7833261 
1864.452 7805631 7788831 7783906 7788021 7795409 7797838 7788392 7764679 
1868.309 7730678 7694455 7666024 7651995 7653445 7666024 7682954 7698063 
1872.167 7707810 7711622 7710778 7706900 7701099 7692734 7681133 7665923 
1876.024 7647510 7627513 7607213 7586409 7563886 7537352 7504550 7464805 
1879.881 7419301 7369825 7318805 7267015 7213851 7157998 7099088 7038266 
1883.739 6979203 6927084 6886584 6860227 6847435 6845012 6848613 6853898 
1887.596 6858106 6860059 6859553 6857467 6854403 6852586 6854538 6863290 
1891.454 6881804 6911059 6949102 6991796 7032844 7066924 7091409 7107407 
1895.311 7118858 7131523 7149375 7173460 7201521 7230089 7256368 7279549 
1899.168 7301552 7325376 7354087 7388597 7427896 7469896 7512741 7555862 
1903.026 7599155 7643598 7687676 7728857 7763666 7788629 7802865 7808195 
1906.883 7808734 7809106 7812344 7818754 7826176 7831843 7833834 7832080 
1910.741 7828672 7826142 7825535 7826311 7826682 7824927 7820879 7816460 
1914.598 7813525 7813120 7812918 7807553 7790349 7757089 7707810 7649803 
1918.456 7594299 7551749 7527845 7520967 7523631 7525923 7519417 7500639 
1922.313 7471581 7438210 7406325 7379700 7358502 7339934 7321265 7301755 
1926.170 7282447 7265971 7254178 7246598 7240230 7232077 7220286 7206103 
1930.028 7193537 7187372 7190034 7200476 7214053 7224665 7228034 7223048 
1933.885 7212571 7201352 7193672 7191314 7193672 7198691 7205227 7214727 
1937.743 7230325 7254549 7287805 7326387 7363186 7391058 7404438 7402719 
1941.600 7390047 7373296 7358367 7348797 7344786 7344348 7346168 7350818 
1945.458 7361063 7379329 7406022 7438244 7470671 7498043 7517630 7530913 
1949.315 7543556 7561121 7587556 7623129 7664203 7705416 7742753 7775473 
1953.172 7805024 7833935 7862714 7889201 7908771 7916566 7910019 7891326 
1957.030 7865413 7838625 7815549 7797501 7782051 7765218 7744811 7720728 
1960.887 7696107 7675400 7661573 7656514 7660089 7671285 7691015 7720695 
1964.745 7760934 7809443 7860589 7905903 7938331 7955676 7961886 7967150 
1968.602 7983012 8014534 8060640 8110905 8152295 8172653 8168062 8142267 
1972.459 8106617 8073130 8049805 8038667 8037621 8042684 8053552 8074278 
1976.317 8110500 8165327 8234918 8308269 8370113 8407948 8415920 8396597 
1980.174 8359541 8314956 8271186 8231879 8197504 8166846 8141390 8123834 
1984.032 8116879 8121066 8132172 8141963 8143044 8130789 8107832 8083628 
1987.889 8070362 8077046 8105570 8149559 8197132 8237315 8263656 8278042 
1991.747 8288106 8303844 8331067 8370215 8416089 8462238 8503932 8541203 
1995.604 8577092 8615789 8658241 8702422 8742110 8771828 8789173 8796104 
1999.461 8798066 8800770 8807296 8816459 8822851 8819469 8803543 8774634 
2003.319 8736160 8693430 8650568 8608556 8566886 8524747 8482307 8443453 
2007.176 8412575 8391935 8380822 8374808 8367310 8354812 8337890 8321914 
2011.034 8314281 8320461 8341233 8372511 8407306 8439196 8467948 8497478 
2014.891 8533533 8581553 8640462 8704213 8762497 8806350 8832555 8844424 
2018.749 8851019 8862144 8884701 8920720 8966246 9014822 9062286 9105492 
2022.606 9144372 9179160 9209788 9234258 9250708 9258086 9257984 9254329 
2026.463 9250064 9246883 9242821 9233107 9213138 9181664 9141902 9100925 
2030.321 9066887 9045979 9039348 9045370 9059715 9081165 9111753 9155945 
2034.178 9216827 9293764 9379651 9463965 9535525 9588331 9623053 9646801 
2038.036 9669161 9696842 9732149 9770813 9805786 9830392 9841509 9840527 
2041.893 9831781 9818124 9801890 9780844 9752886 9716935 9675497 9633657 
2045.750 9598290 9574307 9562960 9561335 9563096 9562858 9556762 9543451 
2049.608 9523908 9498982 9469078 9434368 9395733 9355139 9317358 9286790 
2053.465 9266717 9257172 9254600 9252806 9246036 9232363 9213443 9194694 
2057.323 9181664 9177942 9183255 9193848 9204474 9211717 9215406 9217606 
2061.180 9222412 9231922 9245800 9260490 9272404 9278260 9278192 9275079 
2065.038 9271896 9270745 9271693 9271524 9267361 9258323 9245597 9233107 
2068.895 9224341 9220923 9220957 9219501 9210431 9190023 9158010 9117877 
2072.752 9075413 9036303 9003624 8977713 8957181 8939727 8924440 8911892 
2076.610 8902963 8897586 8894576 8890620 8882604 8868874 8850004 8828058 
2080.467 8806350 8787178 8771389 8758135 8746438 8735991 8728554 8726627 
2084.325 8732374 8746911 8768515 8793636 8818015 8838541 8853217 8861637 
2088.182 8863936 8859169 8845844 8822478 8789173 8748601 8706207 8668415 
2092.040 8641273 8627719 8626638 8633905 8644856 8655638 8664799 8673350 
2095.897 8682950 8694139 8705971 8715876 8721589 8722908 8721589 8720811 
2099.754 8723347 8730041 8738831 8746133 8748770 8746674 8742381 8741637 
2103.612 8749547 8769123 8799553 8836343 8874285 8909457 8940438 8969155 
2107.469 8998584 9031094 9066854 9104207 9140785 9175505 9209822 9246747 
2111.327 9289735 9340310 9396615 9453738 9505822 9548294 9579252 9600695 
2115.184 9616989 9633893 9655542 9684068 9720086 9762646 9810633 9862931 
2119.042 9918318 9974256 10027319 10074081 10111351 10138144 10155951 
2122.417 10168671 10180305 10194619 10212903 10234207 10256462 10276682 
2125.792 10292832 10303757 10309151 10308982 10302942 10290829 10272983 
2129.167 10250796 10226913 10204354 10186241 10174810 10170231 10171960 
2132.542 10179287 10191362 10208086 10228813 10251678 10272576 10286656 
2135.918 10290389 10282449 10265961 10247233 10234579 10234410 10249608 
2139.293 10278175 10315055 10354212 10390693 10422356 10448965 10471163 
2142.668 10487660 10496859 10495434 10482296 10458537 10427956 10395817 
2146.043 10366938 10342371 10320722 10298701 10273458 10244961 10216600 
2149.419 10193432 10179694 10176336 10179660 10183697 10182137 10170875 
2152.794 10150286 10123221 10093885 10065230 10039086 10016536 10001651 
2156.169 10002228 10029082 10092868 10199470 10343015 10505786 10664035 
2159.544 10794418 10880909 10920627 10920899 10896231 10859912 10821559 
2162.920 10786096 10754983 10727404 10703224 10682610 10664883 10647396 
2166.295 10626207 10597313 10558574 10511863 10463628 10421338 10392695 
2169.670 10380343 10383091 10395240 10409799 10421203 10427855 10430842 
2173.045 10433150 10437290 10443637 10450561 10454973 10454362 10447506 
2176.421 10435356 10419031 10399245 10376202 10349938 10320145 10288964 
2179.796 10258362 10231731 10210257 10193533 10179355 10164804 10148693 
2183.171 10131632 10117218 10110096 10113182 10126918 10149065 10175963 
2186.546 10203778 10231120 10258327 10286759 10316718 10347392 10375354 
2189.922 10397820 10412718 10420932 10426022 10432946 10444655 10462067 
2193.297 10481991 10499405 10508739 10506873 10493430 10471809 10446895 
2196.672 10423273 10404302 10391914 10386282 10386485 10391032 10398668 
2200.047 10406678 10412650 10414314 10410309 10401451 10389573 10377458 
2203.423 10367787 10360694 10354620 10347528 10337212 10323504 10308744 
2206.798 10297005 10292832 10298667 10313562 10334226 10356283 10375150 
2210.173 10388691 10397446 10403113 10407153 10411225 10415162 10418250 
2213.548 10420524 10422560 10425411 10431486 10440956 10453310 10467159 
2216.924 10480192 10491020 10499642 10506771 10513933 10521435 10529311 
2220.299 10536610 10542415 10546353 10549272 10552566 10557285 10563531 
2223.674 10570423 10576398 10580201 10581424 10580405 10577689 10573003 
2227.049 10564719 10550189 10526833 10493804 10452224 10405964 10360016 
2230.425 10318041 10282144 10251780 10225081 10200283 10177523 10159207 
2233.800 10149303 10150693 10164804 10189531 10220875 10253205 10282687 
2237.175 10307794 10329409 10349360 10369246 10389946 10410003 10427481 
2240.550 10440548 10448490 10452257 10453717 10454939 10457993 10464205 
2243.926 10474049 10487932 10505379 10525339 10545335 10562208 10572392 
2247.301 10573546 10565262 10549918 10531993 10517192 10509317 10510267 
2250.676 10519602 10534879 10553143 10572630 10593001 10614934 10638363 
2254.051 10661997 10682882 10697247 10701525 10694326 10676837 10652048 
2257.427 10623966 10596294 10571340 10549951 10531925 10517227 10505685 
2260.802 10497572 10492650 10490409 10489968 10490409 10491699 10495162 
2264.177 10503070 10517803 10540514 10570423 10604714 10639450 10670724 
2267.552 10695650 10713174 10723736 10727981 10726793 10721053 10710932 
2270.927 10697654 10682983 10669162 10658364 10651708 10648856 10648143 
2274.303 10647565 10645663 10642370 10639076 10637277 10637684 10639450 
2277.678 10641046 10639654 10633711 10623219 10609875 10596634 10586279 
2281.053 10580642 10579658 10582373 10587738 10594936 10604239 10616123 
2284.428 10630554 10646546 10661929 10673950 10680504 10680810 10675852 
2287.804 10668076 10659858 10653304 10650112 10650587 10655138 10664306 
2291.179 10678806 10699487 10726182 10757700 10791734 10825024 10855258 
2294.554 10880773 10901599 10918588 10933403 10947131 10960213 10972208 
2297.929 10982607 10991102 10998001 11003574 11008230 11011832 11014177 
2301.305 11014348 11011867 11007177 11000753 10993346 10985564 10977102 
2304.680 10967145 10954980 10940708 10925383 10910978 10899629 10893208 
2308.055 10891916 10894975 10900376 10906220 10911317 10915360 10918758 
2311.430 10921952 10925010 10927286 10927592 10925554 10921714 10917331 
2314.806 10914137 10913967 10917025 10922258 10927660 10931194 10931534 
2318.181 10929019 10925247 10922258 10922087 10925350 10931635 10939213 
2321.556 10945975 10949916 10949271 10942848 10930039 10910671 10885461 
2324.931 10855428 10823189 10791259 10762591 10739801 10724178 10716095 
2328.307 10714498 10718268 10726182 10737355 10751382 10767924 10786368 
2331.682 10805729 10824651 10842077 10857704 10871634 10884577 10897420 
2335.057 10910671 10924296 10938466 10953179 10968946 10986650 11007381 
2338.432 11031341 11058020 11085587 11111998 11134773 11153063 11166322 
2341.808 11175297 11181009 11183864 11183796 11180600 11174515 11167783 
2345.183 11164078 11168770 11188149 11227180 11288150 11371031 11472402 
2348.558 11586729 11706530 11824696 11934108 12029206 12106983 12167701 
2351.933 12214557 12252592 12287834 12325090 12366544 12411819 12458803 
2355.309 12504838 12548082 12588840 12628612 12670367 12716561 12768697 
2358.684 12827358 12892068 12962148 13037018 13115625 13197183 13279746 
2362.059 13360651 13437505 13507604 13570159 13625270 13674712 13720192 
2365.434 13763419 13804873 13844073 13879616 13910509 13935348 13953037 
2368.810 13962686 13963336 13954543 13936340 13910098 13878761 13846193 
2372.185 13817050 13795980 13786095 13789584 13807507 13840208 13887724 
2375.560 13950265 14027634 14119426 14224522 14341355 14467983 14603386 
2378.935 14747194 14899828 15062053 15234462 15416208 15605552 15799101 
2382.311 15993048 16183332 16366508 16539332 16699106 16843402 16969730 
2385.686 17076448 17162510 17228076 17274034 17302100 17314374 17312444 
2389.061 17297272 17269998 17231488 17182916 17126008 17061972 16991988 
2392.436 16916192 16834104 16745420 16650042 16549280 16445961 16343938 
2395.812 16247408 16160324 16085325 16023954 15976548 15943445 15924230 
2399.187 15919143 15928321 15951626 15988648 16038978 16102105 16177932 
2402.562 16266432 16367953 16482405 16609004 16746487 16893178 17047706 
2405.937 17209252 17377826 17554228 17739570 17934314 18138648 18352030 
2409.313 18573712 18802878 19038844 19280968 19528216 19778588 20029694 
2412.688 20277892 20519454 20750588 20967238 21165628 21342182 21493498 
2416.063 21616760 21710206 21773710 21808586 21817504 21804022 21771934 
2419.438 21724000 21662942 21590678 21509164 21420566 21327254 21231802 
2422.813 21136406 21042320 20950408 20860916 20774710 20693522 20620030 
2426.189 20557770 20510702 20482426 20475272 20490902 20529390 20590532 
2429.564 20673542 20777454 20901244 21043606 21203550 21379494 21570898 
2432.939 21776986 21997634 22233042 22483096 22747362 23025276 23315780 
2436.314 23618372 23932484 24258034 24595610 24945732 25309342 25687564 
2439.690 26082336 26495182 26928196 27383240 27861300 28362668 28886602 
2443.065 29432054 29997720 30582750 31186122 31807196 32444726 33096746 
2446.440 33760736 34434572 35115672 35802656 36494480 37189720 37886864 
2449.815 38583032 39274156 39956060 40624408 41275496 41906036 42512968 
2453.191 43093164 43642584 44156460 44629272 45054992 45427564 45740556 
2456.566 45988092 46164308 46263704 46282284 46217380 46068508 45835952 
2459.941 45521496 45127004 44654608 44106436 43485628 42796076 42043848 
2463.316 41236328 40382020 39490380 38571156 37633460 36686752 35740016 
2466.692 34802124 33882088 32988198 32128680 31311028 30541086 29824212 
2470.067 29164186 28563474 28023244 27542818 27120016 26750802 26428976 
2473.442 26147680 25899026 25675754 25471604 25281984 25103786 24935240 
2476.817 24775424 24623628 24479458 24342554 24212698 24089924 23973974 
2480.193 23864462 23760228 23659866 23561278 23462466 23361896 23258586 
2483.568 23152714 23044982 22936962 22830260 22727146 22629152 22538198 
2486.943 22455390 22381460 22316122 22258504 22207412 22161278 22118914 
2490.318 22079450 22042948 22009382 21978988 21951246 21925490 21900434 
2493.694 21874960 21847922 21818236 21785730 21749988 21710694 21667992 
2497.069 21622368 21574626 21526052 21477622 21430210 21383740 21337380 
2500.444 21289286 21238412 21183962 21126074 21065970 21005596 20946794 
2503.819 20890466 20837660 20788576 20743464 20703114 20668536 20640670 
2507.195 20619578 20604084 20591610 20579000 20562496 20539534 20508790 
2510.570 20469992 20423938 20371708 20313790 20250186 20180414 20103990 
2513.945 20020674 19930956 19835498 19735868 19633694 19530852 19429452 
2517.320 19331578 19239266 19154280 19077724 19009870 18950160 18897728 
2520.696 18851736 18811700 18777656 18750460 18730534 18718322 18713376 
2524.071 18714932 18721574 18731816 18744788 18759560 18775440 18791944 
2527.446 18808518 18824814 18840766 18856614 18872984 18891152 18911606 
2530.821 18934862 18961098 18989792 19020532 19052762 19086170 19120554 
2534.197 19155664 19191194 19226866 19263302 19300574 19339960 19382090 
2537.572 19427720 19476648 19528042 19580656 19633242 19685696 19738364 
2540.947 19792806 19850170 19911356 19975916 20042776 20109542 20174686 
2544.322 20236752 20295494 20351324 20405428 20458322 20510770 20562600 
2547.698 20613672 20663706 20712740 20760770 20807034 20851182 20892310 
2551.073 20929442 20962370 20991232 21017106 21041276 21065134 21089134 
2554.448 21113622 21137974 21161734 21184276 21205706 21225470 21243180 
2557.823 21258142 21268756 21273418 21270356 21258630 21237230 21206054 
2561.198 21165282 21115536 21057902 20993772 20925166 20853928 20782356 
2564.574 20711662 20642824 20575768 20509972 20445158 20381638 20320630 
2567.949 20264004 20214084 20172638 20140638 20118254 20104858 20099408 
2571.324 20101212 20110028 20125506 20147128 20174616 20207140 20243904 
2574.699 20284070 20327540 20374000 20423174 20474646 20527618 20580804 
2578.075 20633338 20684904 20735818 20787292 20840648 20896726 20956076 
2581.450 21018462 21083292 21150356 21219832 21292278 21368356 21448590 
2584.825 21532632 21619652 21708222 21797402 21886320 21975014 22063586 
2588.200 22151898 22239878 22326726 22411220 22492552 22570028 22643536 
2591.576 22713460 22780114 22843880 22904966 22963440 23020070 23075660 
2594.951 23131396 23188782 23248764 23312108 23379030 23449178 23522452 
2598.326 23598990 23678726 23761908 23848604 23938612 24031506 24127540 
2601.701 24227168 24331830 24442860 24561634 24688612 24823312 24964298 
2605.077 25109472 25257366 25406818 25557870 25710800 25866072 26023686 
2608.452 26182800 26341586 26497858 26649606 26794852 26932532 27061828 
2611.827 27182200 27293046 27393440 27482594 27559304 27622468 27671270 
2615.202 27704962 27723502 27727494 27717852 27696732 27666468 27629178 
2618.578 27586984 27541158 27492654 27441754 27388782 27334082 27278722 
2621.953 27223792 27170772 27121216 27075404 27034006 26997156 26965144 
2625.328 26938594 26918678 26906410 26902814 26908596 26923578 26946916 
2628.703 26977976 27015212 27058160 27106192 27159096 27216914 27279498 
2632.079 27346644 27418180 27493360 27571626 27652378 27734876 27818800 
2635.454 27903770 27989918 28077394 28166902 28259044 28353930 28451702 
2638.829 28552044 28654072 28757116 28860326 28963206 29065260 29166312 
2642.204 29266038 29364266 29460848 29555534 29648506 29740112 29830778 
2645.580 29921074 30011744 30103070 30195626 30290084 30386870 30486772 
2648.955 30590360 30697918 30809842 30926028 31046518 31170922 31299524 
2652.330 31432442 31570140 31713332 31862352 32017664 32179382 32347266 
2655.705 32521174 32700800 32885720 33075898 33271030 33471112 33675904 
2659.081 33885528 34099408 34317336 34538676 34762888 34989128 35216736 
2662.456 35445112 35673860 35902588 36131040 36358780 36585524 36811016 
2665.831 37035292 37258668 37481944 37706204 37932204 38161004 38393468 
2669.206 38629716 38870112 39114704 39363604 39616716 39873640 40134136 
2672.582 40396820 40660756 40924676 41186784 41446060 41700972 41950048 
2675.957 42191924 42425316 42649544 42864460 43071100 43271540 43468668 
2679.332 43665776 43866492 44073976 44291172 44520664 44764312 45023896 
2682.707 45300556 45595092 45907688 46238312 46586560 46951700 47333736 
2686.083 47732048 48146128 48575276 49018420 49474016 49940604 50416816 
2689.458 50901820 51395308 51897240 52407600 52926012 53452348 53986188 
2692.833 54527748 55077920 55638056 56209704 56793884 57391104 58000432 
2696.208 58620548 59249260 59885084 60526528 61172848 61823184 62477028 
2699.583 63133000 63790312 64447664 65104200 65759108 66411876 67061184 
2702.959 67705000 68340448 68964024 69571464 70158920 70722328 71257928 
2706.334 71761896 72230144 72658512 73043040 73381096 73670856 73911864 
2709.709 74104336 74249176 74347032 74398544 74404408 74365328 74282520 
2713.084 74157392 73990944 73783936 73536016 73246232 72913416 72536992 
2716.460 72117152 71655440 71154320 70616976 70046968 69448080 68824168 
2719.835 68179976 67520552 66851200 66177660 65505364 64839260 64184392 
2723.210 63544968 62925600 62331052 61765124 61231520 60733020 60270952 
2726.585 59845912 59458184 59107744 58795212 58521432 58287148 58092424 
2729.961 57936284 57817188 57732064 57678176 57653544 57656496 57686956 
2733.336 57744740 57830016 57942384 58080756 58242964 58426808 58629344 
2736.711 58847384 59077752 59316980 59561016 59806364 60049192 60286364 
2740.086 60515328 60733668 60939688 61131996 61309548 61472280 61620952 
2743.462 61757560 61885348 62007096 62126284 62245460 62366008 62488772 
2746.837 62613868 62741452 62871708 63004696 63140588 63279248 63420176 
2750.212 63562840 63706620 63851760 63999168 64150356 64307400 64473180 
2753.587 64650416 64841716 65049932 65277524 65526320 65797316 66090500 
2756.963 66404352 66736272 67082568 67438808 67800416 68162256 68519312 
2760.338 68865976 69196408 69505040 69786312 70035680 70249040 70423496 
2763.713 70556480 70645824 70690000 70687896 70639704 70547008 70412904 
2767.088 70242264 70040392 69813128 69566256 69305072 69034488 68759568 
2770.464 68484664 68214320 67952392 67701936 67464512 67241368 67032456 
2773.839 66837668 66657268 66491188 66339336 66200740 66074104 65955760 
2777.214 65841304 65725340 65601036 65461560 65300324 65110856 64888304 
2780.589 64629072 64332032 63998400 63631580 63237280 62821508 62391292 
2783.965 61952712 61511524 61072268 60639172 60215260 59803132 59404272 
2787.340 59019560 58648536 58289652 57941928 57603448 57273516 56951952 
2790.715 56639232 56336584 56045196 55766392 55500648 55248424 55009092 
2794.090 54782036 54565504 54357980 54157352 53961236 53767428 53573928 
2797.466 53378528 53179212 52974332 52761840 52540296 52308136 52064740 
2800.841 51809836 51543812 51267624 50981888 50687136 50383996 50072104 
2804.216 49751816 49423776 49088904 48749396 48407484 48065728 47727132 
2807.591 47394264 47069592 46756080 46456152 46172232 45906620 45661268 
2810.967 45436652 45232892 45048964 44883668 44734704 44600520 44479372 
2814.342 44370068 44271984 44184668 44108524 44044384 43993376 43957336 
2817.717 43938380 43938892 43960968 44006648 44077496 44174620 44298404 
2821.092 44448792 44625416 44827276 45053300 45301880 45571648 45860144 
2824.468 46164752 46481816 46806936 47134808 47459716 47775692 48077540 
2827.843 48360480 48620964 48855280 49060896 49234432 49372728 49472752 
2831.218 49532688 49551628 49531128 49474644 49387096 49275072 49144928 
2834.593 49002840 48854612 48704840 48557080 48414260 48278412 48151312 
2837.969 48034380 47928808 47836320 47758824 47699248 47660860 47647884 
2841.344 47665004 47717328 47810980 47952488 48150016 48413668 48754028 
2844.719 49184036 49716292 50360664 51122272 51997508 52971788 54015004 
2848.094 55084316 56125048 57071532 57859544 58430596 58737972 58755572 
2851.469 58479044 57926136 57130972 56142844 55019284 53816108 52589136 
2854.845 51387144 50247532 49198844 48258456 47433328 46721804 46115816 
2858.220 45602708 45166560 44791348 44461568 44162480 43882588 43612472 
2861.595 43345452 43078232 42809788 42541292 42275076 42013988 41760716 
2864.970 41517512 41286468 41069528 40868936 40688012 40529972 40398384 
2868.346 40295776 40223724 40182144 40168660 40179748 40210132 40253864 
2871.721 40305084 40358020 40408352 40453808 40494216 40531644 40570096 
2875.096 40614952 40671492 40744124 40835848 40948376 41081840 41235676 
2878.471 41408844 41599808 41806940 42028116 42260980 42502520 42749972 
2881.847 43001000 43253968 43508036 43763028 44018716 44275288 44532264 
2885.222 44789068 45044920 45298976 45550380 45798100 46040876 46277156 
2888.597 46505748 46725716 46936896 47139980 47336544 47528576 47717920 
2891.972 47906464 48095488 48286004 48478608 48673928 48872704 49075104 
2895.348 49280672 49489348 49700284 49912356 50125240 50338456 50551584 
2898.723 50764040 50974584 51181316 51382144 51575004 51758920 51933832 
2902.098 52101236 52263212 52422664 52582888 52746692 52917440 53098740 
2905.473 53294500 53509236 53747924 54015076 54315696 54654404 55035872 
2908.849 55465900 55950360 56495432 57106788 57788232 58540616 59360624 
2912.224 60241028 61168804 62125556 63089400 64032308 64923628 65734320 
2915.599 66436084 67007864 67438304 67726952 67883936 67926512 67876384 
2918.974 67752744 67568664 67328608 67027352 66652516 66187268 65616644 
2922.350 64930476 64127392 63214972 62210432 61137868 60023208 58894168 
2925.725 57775776 56687592 55645516 54659968 53736192 52876496 52080432 
2929.100 51346268 50671948 50056004 49498188 48999060 48559896 48182148 
2932.475 47867024 47615124 47426156 47299892 47235572 47231804 47286624 
2935.851 47396444 47555080 47753796 47981832 48226132 48473460 48712324 
2939.226 48933488 49131568 49304912 49455000 49585460 49700544 49804432 
2942.601 49899572 49986552 50063440 50125724 50166372 50176712 50148448 
2945.976 50074372 49951124 49780352 49568640 49328852 49075660 48826284 
2949.352 48596324 48397148 48235796 48113368 48025796 47965328 47921444 
2952.727 47883632 47841460 47787156 47714704 47620596 47503328 47362596 
2956.102 47198412 47011396 46801916 46570808 46319772 46051192 45768976 
2959.477 45477636 45181672 44885616 44592808 44305448 44024840 43751852 
2962.853 43487128 43231936 42988196 42758084 42544508 42350024 42176588 
2966.228 42025632 41897500 41790960 41703852 41632664 41572676 41518500 
2969.603 41464360 41405020 41335956 41253892 41157056 41045236 40919904 
2972.978 40784124 40642164 40499964 40363840 40240196 40134280 40048628 
2976.354 39981960 39927980 39876148 39811792 39717456 39576644 39375140 
2979.729 39103284 38758592 38345000 37873488 37359076 36820248 36276464 
2983.104 35744120 35237724 34767844 34340648 33959648 33626032 33340432 
2986.479 33103362 32915850 32779008 32692618 32652858 32651254 32671328 
2989.854 32690938 32682296 32614962 32463294 32208644 31844490 31377912 
2993.230 30828944 30227772 29605794 28994484 28418132 27890802 27417790 
2996.605 26996594 26620188 26280084 25968634 25680324 25411526 25159994 
2999.980 24923834 24701098 24489518 24287082 24091638 23901850 23716834 
3003.355 23535884 23358506 23184240 23012908 22844718 22679980 22519946 
3006.731 22365762 22218466 22078578 21946122 21820570 21701220 21587302 
3010.106 21478006 21372846 21271574 21173838 21079326 20988034 20899888 
3013.481 20814958 20733626 20656202 20583132 20514870 20452104 20395494 
3016.856 20346116 20304484 20270774 20243938 20221894 20201448 20178956 
3020.232 20151050 20115512 20070952 20017446 19955864 19887074 19811776 
3023.607 19730666 19644302 19553796 19461368 19369928 19283220 19204284 
3026.982 19135546 19077482 19029152 18988028 18950854 18914236 18875164 
3030.357 18831182 18780456 18721922 18654780 18579176 18495254 18403672 
3033.733 18305786 18202532 18095742 17987256 17879174 17774122 17674650 
3037.108 17583382 17502272 17432906 17375342 17329066 17292790 17264690 
3040.483 17242970 17225732 17211666 17199154 17187086 17174402 17160476 
3043.858 17145310 17128936 17112118 17095678 17079548 17063490 17047086 
3047.234 17029510 17010284 16989644 16968042 16946232 16924630 16902928 
3050.609 16880054 16854528 16824424 16788262 16745524 16696075 16640540 
3053.984 16579777 16515169 16447956 16379479 16311185 16244691 16181303 
3057.359 16121808 16066484 16014913 15966063 15918938 15872711 15826901 
3060.735 15781442 15736397 15692113 15648555 15606067 15565026 15525945 
3064.110 15489993 15457888 15430009 15406252 15385482 15366259 15347001 
3067.485 15326544 15304680 15281650 15258621 15236589 15216582 15198808 
3070.860 15183435 15170054 15158319 15147820 15138385 15129876 15122157 
3074.236 15115158 15108983 15103665 15099411 15096118 15093819 15091795 
3077.611 15089530 15086306 15081538 15075088 15067473 15059069 15050801 
3080.986 15042947 15035298 15027648 15019279 15009400 14997636 14983539 
3084.361 14967008 14948078 14926919 14904115 14880798 14858270 14838281 
3087.737 14822236 14810991 14804442 14801701 14801083 14800981 14799849 
3091.112 14797415 14793575 14789222 14785176 14781885 14779520 14777943 
3094.487 14776743 14775989 14776092 14777806 14781954 14789187 14799643 
3097.862 14812842 14828201 14844351 14860122 14874694 14887484 14898560 
3101.238 14908470 14918038 14928462 14941013 14956309 14974485 14995201 
3104.613 15017221 15039036 15059069 15076289 15089771 15099617 15106101 
3107.988 15109806 15111693 15112619 15113786 15116633 15122568 15132621 
3111.363 15148095 15169264 15195617 15226020 15258518 15291329 15322631 
3114.739 15350949 15375905 15397395 15416173 15433477 15450266 15467742 
3118.114 15486284 15506063 15526494 15546755 15565712 15582575 15596794 
3121.489 15608437 15617985 15626229 15634267 15642853 15652815 15664151 
3124.864 15677445 15692389 15708741 15726468 15745398 15765497 15786560 
3128.240 15808415 15830683 15853122 15874980 15895737 15914986 15932687 
3131.615 15949495 15966406 15985314 16007142 16032962 16062805 16096123 
3134.990 16131334 16167134 16202351 16236402 16269218 16300624 16330726 
3138.365 16359076 16384881 16407557 16427170 16444240 16460517 16478103 
3141.740 16498925 16524084 16554167 16588211 16625116 16663814 16703375 
3145.116 16743561 16784816 16827594 16871924 16917774 16964320 17011008 
3148.491 17057148 17102192 17145998 17188776 17230800 17272240 17313686 
3151.866 17355548 17398310 17442390 17487714 17534390 17581932 17629444 
3155.241 17676516 17722796 17768600 17814302 17860770 17908764 17958868 
3158.617 18011154 18065828 18122550 18181386 18242546 18306028 18372044 
3161.992 18440488 18510918 18582634 18655264 18728218 18801598 18875336 
3165.367 18950056 19026038 19103206 19181256 19259492 19336774 19411574 
3168.742 19482472 19548422 19608734 19663022 19711666 19755180 19794158 
3172.118 19829464 19861442 19890438 19916940 19940946 19962280 19981188 
3175.493 19997218 20010264 20020222 20027438 20032608 20037258 20043366 
3178.868 20052458 20066024 20084244 20106350 20130816 20155770 20179616 
3182.243 20201484 20221650 20240744 20259976 20280460 20302576 20326810 
3185.619 20353026 20381328 20411784 20444706 20479996 20517300 20556348 
3188.994 20596300 20636812 20678302 20721532 20767410 20816732 20869780 
3192.369 20925792 20983652 21041694 21098804 21154636 21209430 21263396 
3195.744 21317544 21371732 21425614 21478772 21530858 21581728 21632016 
3199.120 21682480 21733788 21786288 21839594 21893256 21946958 22000422 
3202.495 22054070 22108490 22164416 22222058 22280964 22340504 22400088 
3205.870 22459124 22517818 22576450 22635646 22695760 22756824 22818318 
3209.245 22879540 22939686 22998340 23055254 23110500 23164178 23216606 
3212.621 23267710 23318052 23368050 23418298 23469742 23523010 23578768 
3215.996 23637090 23697972 23761068 23825572 23891206 23957098 24022260 
3219.371 24085790 24147154 24205656 24261958 24317006 24372586 24430172 
3222.746 24491410 24556552 24625242 24696224 24767884 24838644 24907764 
3226.122 24974932 25040670 25105928 25171650 25238402 25306674 25376082 
3229.497 25446342 25516368 25585562 25653046 25717902 25780028 25839380 
3232.872 25896600 25952312 26007292 26062950 26119634 26178048 26238514 
3236.247 26301030 26365070 26430560 26496484 26562630 26628610 26694388 
3239.623 26760244 26827030 26895376 26965636 27038060 27111694 27185058 
3242.998 27257306 27327166 27394356 27459298 27523226 27587338 27653154 
3246.373 27721524 27792838 27867376 27944862 28025224 28108288 28193948 
3249.748 28281888 28371510 28462138 28552894 28643172 28732300 28819854 
3253.124 28905972 28990694 29074686 29158516 29243462 29329880 29418580 
3256.499 29509216 29600970 29692036 29780562 29865100 29944324 30018738 
3259.874 30089186 30157622 30225428 30293992 30363560 30433816 30504118 
3263.249 30573472 30641770 30708976 30775056 30840396 30904682 30967732 
3266.625 31029294 31089264 31148066 31206058 31264060 31322316 31380974 
3270.000 31439498 31497098 31553108 31606950 31658552 31708308 31756538 
3273.375 31803810 31850442 31896654 31942018 31986382 32029576 32071598 
3276.750 32112912 32154300 32196582 32240796 32287582 32337092 32388460 
3280.125 32440406 32491074 32538674 32582458 32622318 32659326 32695476 
3283.501 32732740 32772758 32816458 32862988 32911274 32960136 33007860 
3286.876 33053730 33097568 33139550 33179924 33219054 33257150 33294316 
3290.251 33331022 33368052 33406160 33446632 33490438 33537968 33589516 
3293.626 33644544 33701936 33760524 33819296 33877144 33933428 33988068 
3297.002 34041280 34093636 34145860 34198232 34250928 34303852 34356352 
3300.377 34407996 34458788 34508932 34559628 34611940 34667168 34726316 
3303.752 34789888 34858096 34930624 35007296 35087292 35170172 35254864 
3307.127 35340832 35426744 35512096 35596604 35680552 35765024 35851232 
3310.503 35940272 36033144 36129992 36230720 36335288 36443884 36557300 
3313.878 36676260 36801748 36933760 37072020 37214988 37360920 37508312 
3317.253 37655864 37803176 37950828 38099544 38250152 38403460 38559788 
3320.628 38718888 38880368 39043608 39208040 39372964 39537664 39701732 
3324.004 39864852 40027048 40188324 40348824 40508980 40668220 40826240 
3327.379 40982528 41136364 41286980 41433740 41576324 41713992 41846232 
3330.754 41972524 42092324 42205580 42312440 42413004 42507412 42595232 
3334.129 42675352 42746828 42808292 42858792 42898324 42927440 42947080 
3337.505 42958420 42961568 42956772 42943496 42921292 42889692 42849136 
3340.880 42800208 42743572 42679484 42608060 42528460 42439672 42340672 
3344.255 42230412 42108788 41975920 41832408 41679124 41516928 41346632 
3347.630 41169188 40984900 40794204 40597340 40394384 40185636 39971752 
3351.006 39753476 39531784 39307668 39082000 38855000 38626672 38397124 
3354.381 38165960 37933760 37700928 37468652 37237692 37008876 36782524 
3357.756 36558276 36336120 36115916 35898196 35683716 35473840 35269456 
3361.131 35071088 34878596 34690604 34505528 34321640 34137436 33952592 
3364.507 33767940 33584864 33405804 33233256 33068926 32913488 32766540 
3367.882 32626178 32489608 32354046 32217350 32078378 31937488 31796108 
3371.257 31656452 31520042 31388026 31260144 31135536 31012816 30890664 
3374.632 30768404 30646178 30524238 30403502 30284078 30166074 30049274 
3378.008 29933284 29818038 29703850 29590544 29478152 29366428 29254060 
3381.383 29140338 29024414 28906186 28786394 28666320 28547514 28431362 
3384.758 28318314 28208374 28100476 27993806 27887304 27780510 27673284 
3388.133 27566118 27459262 27352928 27247074 27141674 27036122 26930770 
3391.509 26825584 26721272 26618710 26518072 26420172 26324300 26230138 
3394.884 26136630 26042756 25948126 25852746 25757526 25663768 25572876 
3398.259 25486010 25403692 25325044 25248902 25173336 25096238 25016698 
3401.634 24933838 24847554 24758554 24667464 24574644 24480614 24385448 
3405.010 24289358 24192730 24096542 24001566 23908852 23819168 23732476 
3408.385 23648706 23567120 23487020 23407354 23327246 23245898 23162920 
3411.760 23077932 22990514 22901264 22810670 22719850 22629992 22542350 
3415.135 22457764 22376786 22299206 22224534 22151306 22077950 22002758 
3418.510 21924234 21841648 21754760 21664334 21572222 21480338 21390876 
3421.886 21305572 21224948 21148756 21076334 21005872 20935702 20864914 
3425.261 20792782 20719344 20645256 20571460 20498718 20427724 20358930 
3428.636 20292126 20226790 20161914 20096494 20029520 19959922 19887316 
3432.011 19812158 19735174 19657476 19580692 19505828 19433610 19364490 
3435.387 19298114 19233898 19171386 19110062 19049716 18990348 18932060 
3438.762 18874852 18818552 18762638 18706526 18649558 18591488 18532354 
3442.137 18472746 18413040 18353724 18294416 18233976 18171090 18103758 
3445.512 18031048 17953170 17871302 17788550 17707920 17632552 17563750 
3448.888 17501512 17444080 17389172 17334238 17277550 17218216 17156788 
3452.263 17093678 17030132 16966904 16904132 16842060 16780788 16720075 
3455.638 16659956 16600054 16539643 16477758 16413338 16345795 16274825 
3459.013 16201112 16125558 16048914 15972285 15895566 15818998 15742993 
3462.389 15667723 15594424 15524536 15459090 15398493 15342264 15289098 
3465.764 15237070 15184361 15129944 15073339 15015026 14955040 14893691 
3469.139 14830705 14765328 14696877 14625180 14550378 14473532 14396221 
3472.514 14319917 14245818 14175223 14108405 14045566 13986022 13929292 
3475.890 13874142 13819376 13764138 13707197 13648554 13588278 13526608 
3479.265 13463820 13399879 13334888 13268643 13201145 13133588 13067271 
3482.640 13004481 12946922 12895584 12850190 12809066 12769925 12729799 
3486.015 12686470 12638539 12585225 12526937 12464532 12398692 12330681 
3489.391 12261248 12191827 12123916 12058809 11998039 11942316 11891743 
3492.766 11845808 11803281 11763039 11723652 11684166 11643766 11602042 
3496.141 11558688 11513604 11467674 11421272 11375453 11331340 11289782 
3499.516 11250405 11213274 11176793 11139601 11100372 11058463 11013804 
3502.892 10967382 10920797 10875506 10833245 10794689 10759840 10728016 
3506.267 10697993 10667940 10636190 10601387 10562547 10519433 10472928 
3509.642 10424156 10374777 10326863 10281737 10240381 10203371 10170400 
3513.017 10140926 10114064 10088968 10064721 10041120 10017689 9994565 
3516.393 9971849 9949338 9926793 9904216 9880996 9857032 9832256 9806634 
3520.250 9780099 9752582 9723406 9691828 9657472 9620207 9580506 9539488 
3524.107 9498338 9458004 9418386 9378534 9337095 9292613 9244615 9193746 
3527.965 9142003 9091925 9045607 9003962 8967058 8933504 8902118 8871647 
3531.822 8841584 8812233 8783290 8754518 8724429 8691233 8653272 8609841 
3535.680 8561547 8510454 8459299 8410481 8365587 8325089 8288579 8255483 
3539.537 8225632 8198989 8176401 8157595 8142436 8129067 8115192 8098954 
3543.395 8078598 8053113 8022804 7987770 7948421 7905194 7858294 7808835 
3547.252 7758505 7710205 7666159 7627884 7595142 7565572 7535734 7502257 
3551.109 7462547 7416875 7367298 7317626 7272373 7234705 7205934 7185722 
3554.967 7172382 7163489 7157392 7152575 7148162 7143042 7136306 7127010 
3558.824 7114042 7097235 7076859 7054632 7032945 7014188 7000989 6994995 
3562.682 6996510 7003986 7014424 7022843 7023280 7009575 6976812 6922168 
3566.539 6847671 6758951 6664730 6574366 6495455 6431556 6383067 6347459 
3570.396 6321370 6301568 6285734 6272658 6261531 6251581 6242034 6231614 
3574.254 6219177 6203548 6184827 6163049 6139558 6115363 6091538 6068992 
3578.111 6048227 6029311 6012480 5997462 5983924 5972032 5961853 5954463 
3581.969 5951171 5953657 5963533 5980901 6003778 6028169 6048093 6055787 
3585.826 6044565 6009926 5952112 5876438 5793086 5713948 5649359 5605924 
3589.684 5584443 5582127 5592935 5609515 5625761 5636066 5636804 5626466 
3593.541 5605320 5575280 5539471 5501584 5464741 5431692 5403845 5381335 
3597.398 5362884 5346346 5329508 5310422 5288318 5263634 5238581 5216079 
3601.256 5198910 5189454 5189052 5197837 5215040 5239386 5269436 5302875 
3605.113 5336619 5366340 5386702 5392774 5380831 5350540 5306129 5254880 
3608.971 5206287 5168094 5143416 5130407 5123031 5113979 5096982 5070062 
3612.828 5035668 5000808 4973660 4960958 4965449 4985055 5013445 5041635 
3616.686 5061078 5063122 5042440 4997121 4930292 4849301 4764472 4687697 
3620.543 4627882 4590477 4575877 4580699 4600053 4629021 4664855 4707359 
3624.400 4758274 4819414 4890046 4964644 5032584 5077705 5082633 5034495 
3628.258 4931365 4788927 4635518 4503890 4415580 4375315 4373340 4393489 
3632.115 4419329 4438208 4444468 4439011 4427396 4416183 4411095 4413338 
3635.973 4420869 4429170 4433857 4432752 4425924 4415580 4404534 4394828 
3639.830 4386962 4379933 4372671 4364973 4358781 4358614 4369123 4395028 
3643.688 4438610 4498600 4571222 4648914 4723604 4786281 4829131 4845515 
3647.545 4831074 4784270 4706052 4601862 4481191 4357844 4248417 4168120 
3651.402 4126673 4126874 4163504 4225832 4299212 4368621 4420936 4445941 
3655.260 4440217 4407447 4358245 4306440 4264377 4239115 4231319 4236639 
3659.117 4248249 4260395 4268727 4271672 4270802 4269095 4270434 4277628 
3662.975 4292351 4314873 4344892 4382075 4426794 4480321 4543565 4616027 
3666.832 4694463 4772411 4841494 4895407 4933309 4965281 5013445 5109755 
3670.689 5282147 5549942 5916406 6373618 6906446 7495111 8116914 8733016 
3674.547 9287129 9708701 9925133 9894386 9620275 9146301 8533228 7839975 
3678.404 7121014 6421535 5782408 5238883 4810838 4501546 4296467 4171499 
3682.262 4099479 4058708 4037838 4033123 4045029 4073290 4113862 4156914 
3686.119 4191673 4206493 4193713 4153100 4091351 4019879 3950258 3891046 
3689.977 3844945 3810682 3785380 3767231 3755566 3750620 3752057 3758808 
3693.834 3768735 3779664 3790059 3799953 3811150 3826059 3847118 3875099 
3697.691 3908799 3944507 3976942 4000283 4009212 4000617 3974401 3934343 
3701.549 3887302 3842405 3807473 3788154 3786215 3800187 3826125 3859587 
3705.406 3896663 3934744 3972361 4009446 4045731 4080247 4111153 4135137 
3709.264 4147513 4144068 4121321 4077738 4016000 3943036 3868580 3803028 
3713.121 3755767 3731336 3729899 3747478 3777358 3812454 3846617 3875634 
3716.979 3898234 3915753 3930698 3945644 3962263 3980219 3997474 4011787 
3720.836 4021117 4025565 4026334 4025765 4025832 4027103 4027905 4024795 
3724.693 4014228 3993227 3962095 3924914 3889241 3864736 3860189 3880381 
3728.551 3925449 3990284 4065397 4139218 4201609 4244569 4265281 4266820 
3732.408 4256079 4239951 4221415 4198263 4164842 4115735 4050714 3977042 
3736.266 3907863 3857849 3836120 3844043 3876236 3924914 3983596 4049209 
3740.123 4122392 4204419 4293623 4383079 4457724 4497060 4481158 4399514 
3743.980 4262938 4105701 3976340 3912443 3923811 3995434 4099278 4205758 
3747.838 4289273 4333379 4331472 4286797 4209839 4114531 4013659 3916923 
3751.695 3832109 3767364 3730501 3726991 3757137 3814794 3888639 3965305 
3755.553 4033859 4085732 4117675 4131189 4129684 4117007 4095466 4066233 
3759.410 4030949 3993963 3962664 3945310 3947851 3970689 4008476 4050580 
3763.268 4085130 4103426 4101720 4084495 4061082 4043524 4040614 4053925 
3767.125 4077705 4101520 4114397 4107975 4079611 4033391 3979015 3927990 
3770.982 3889608 3869449 3867911 3881718 3905857 3935647 3967245 3998678 
3774.840 4030046 4061718 4094194 4126472 4155509 4176250 4183543 4173507 
3778.697 4145674 4104764 4059443 4019980 3993662 3983596 3986773 3996571 
3782.555 4004831 4005333 3995534 3977510 3956010 3937486 3927020 3926452 
3786.412 3934878 3948921 3965105 3980353 3992892 4001855 4007038 4009078 
3790.270 4008409 4006570 4006101 4009446 4018642 4034260 4054193 4074193 
3794.127 4089077 4094696 4089879 4077772 4066366 4065998 4084963 4126874 
3797.984 4187725 4257216 4319524 4356405 4353158 4301253 4206092 4086702 
3801.842 3974166 3898134 3875166 3905689 3975236 4062420 4142462 4195018 
3805.699 4207531 4178290 4118545 4049109 3992892 3964737 3968549 3997574 
3809.557 4041651 4090716 4139351 4187022 4236405 4290980 4350849 4411195 
3813.414 4462143 4491770 4488925 4449255 4379364 4298408 4231788 4200773 
3817.271 4215594 4270902 4350012 4428568 4482531 4491369 4444200 4345762 
3821.129 4217936 4093994 4004028 3965707 3978413 4028742 4095867 4159623 
3824.986 4205557 4226367 4223991 4207497 4190635 4185249 4198130 4228609 
3828.844 4270634 4314672 4351351 4374411 4381674 4376352 4364973 4355300 
3832.701 4354731 4366813 4391882 4425789 4462043 4492239 4508410 4504426 
3836.559 4478580 4433823 4378059 4322302 4277226 4249086 4239081 4243799 
3840.416 4256547 4270132 4278464 4277862 4266853 4246275 4218939 4189464 
3844.273 4162902 4144469 4138616 4147915 4172871 4212315 4264310 4326753 
3848.131 4398811 4480555 4572395 4672425 4776096 4872186 4943698 4970040 
3851.988 4930025 4812345 4624433 4399145 4183075 4018408 3925650 3901310 
3855.846 3927823 3984232 4054694 4128379 4200237 4268393 4332141 4390409 
3859.703 4441556 4484037 4516780 4540217 4555652 4563889 4563789 4552940 
3863.561 4528866 4491704 4447079 4405371 4379565 4379498 4406878 4454578 
3867.418 4506568 4544235 4550462 4515943 4445271 4356873 4276992 4226233 
3871.275 4213151 4230784 4263005 4291749 4303294 4293857 4269597 4244000 
3875.133 4231453 4242829 4279970 4336826 4402258 4463348 4508343 4529034 
3878.990 4522404 4491570 4446209 4399279 4365006 4354296 4370763 4410225 
3882.848 4461741 4510385 4539949 4537773 4499236 4431681 4352589 4285224 
3886.705 4249287 4253636 4294025 4356873 4424551 4479953 4509950 4508678 
3890.563 4478480 4429572 4375147 4328895 4299680 4291013 4301989 4329196 
3894.420 4368855 4417522 4471818 4528732 4584616 4635618 4678052 4708899 
3898.277 4726452 4731041 4724777 4710675 4692387 4672492 4652095 4630528 
3902.135 4605914 4576178 4539714 4496993 4450527 4404903 4365675 4337128 
3905.992 4322168 4321198 4332208 4351953 4376319 4402024 4426057 4446778 
3909.850 4463951 4478078 4490733 4503321 4517885 4535462 4556556 4579962 
3913.707 4603503 4623763 4636723 4639637 4630997 4612176 4586157 4558130 
3917.564 4532784 4513264 4501145 4495755 4496056 4501279 4511323 4526288 
3921.422 4545540 4567204 4587764 4602532 4607454 4600188 4581837 4556858 
3925.279 4531612 4512829 4504626 4508209 4521300 4540116 4560072 4577785 
3929.137 4590845 4598245 4599585 4594428 4582607 4564392 4540987 4515608 
3932.994 4492239 4474965 4466395 4467298 4475500 4487552 4499805 4509514 
3936.852 4515943 4520228 4524514 4531378 4541556 4554212 4566501 4574939 
3940.709 4576078 4567974 4550965 4527661 4502819 4481761 4469475 4468973 
3944.566 4480991 4503589 4532851 4564258 4592084 4612779 4623495 4623997 
3948.424 4615491 4600589 4582507 4563655 4546445 4532114 4521333 4514671 
3952.281 4512026 4512494 4515373 4518822 4521400 4521835 4519659 4515507 
3956.139 4511021 4508109 4508644 4513599 4523007 4536065 4551132 4566535 
3959.996 4580899 4593156 4602498 4608626 4611138 4610301 4606483 4600790 
3963.854 4594662 4589639 4586994 4587697 4591983 4599417 4609162 4620079 
3967.711 4630896 4640508 4648010 4653134 4655712 4656047 4655210 4654071 
3971.568 4653703 4654741 4657320 4661205 4665693 4670214 4674166 4677281 
3975.426 4679693 4681602 4683142 4684583 4686023 4688300 4691951 4697980 
3979.283 4706923 4718680 4732682 4747220 4760251 4769966 4775091 4775259 
3983.141 4770703 4762261 4750771 4737438 4722800 4707828 4693927 4682104 
3986.998 4673664 4668941 4667568 4667870 4668305 4667233 4664052 4659698 
3990.855 4655679 4654306 4656985 4664052 4674166 4685286 4694698 4700325 
3994.713 4701129 4697042 4689004 4678319 4666430 4654473 4643455 4634111 
3998.570 4627346 4623662 4623294 4625873 4630762 
##END=
