
##TITLE=mdmaHCL00398_8
##JCAMP-DX=5.01  $$ Nicolet v. 1
##DATATYPE=INFRARED SPECTRUM
##ORIGIN=UniL
##OWNER=Nicolet
##LONGDATE=2011/08/24
##TIME=09:52:39
##SPECTROMETER/DATA SYSTEM=Nicolet iS5
##DATA PROCESSING=
Ratio against background
%Transmittance->Absorbance
Truncated
ElementMultiply or ElementDivide
##COMMENTS=
Number of sample scans: 32
Collection length: 51.18 sec
Sample gain: 2.0
Background collected on: Mer Aout 24 09:51:13 2011 (GMT+02:00);
Number of background scans: 32
Background gain: 2.0
Sample spacing:  1.000
Number of scan points: 12415
Resolution points: 8192
Number of FFT points: 65536
Apodization: N-B fort;
Phase correction: Mertz;
Laser frequency: 15798.0 cm-1
Number of rejected sample scans: 0
Number of rejected background scans: 0
Bench serial number: ASB1000141;
##RESOLUTION=4.000
##XUNITS=1/CM
##YUNITS=ABSORBANCE
##FIRSTX=649.893372
##LASTX=4000.122314
##FIRSTY=0.070669
##MAXX=4000.122314
##MINX=649.893372
##MAXY=0.165622
##MINY=-0.001421
##XFACTOR=1.000000
##YFACTOR=1.000000E-009
##NPOINTS=6950
##DELTAX=0.482117
##ZPD=6100
##XYDATA=(X++(Y..Y))
649.893 70669376 69937544 69249992 68632768 68097136 67643040 67268992 
653.268 66975160 66762120 66629528 66568540 66561320 66583724 66614040 
656.643 66639112 66659236 66681988 66717960 66770316 66832452 66891044 
660.018 66934840 66961864 66984280 67023524 67101128 67229264 67404600 
663.393 67611184 67825328 68026872 68204896 68354568 68474272 68557952 
666.767 68592880 68564704 68470816 68332616 68187576 68073416 68009160 
670.142 67988704 67990600 67986992 67955144 67883240 67774936 67644480 
673.517 67509952 67382504 67260328 67129512 66971912 66773908 66531116 
676.892 66249676 65940992 65614676 65275528 64922088 64552484 64169256 
680.267 63780764 63400128 63038716 62701216 62382152 62070892 61753512 
683.642 61420864 61071736 60711568 60348536 59989160 59635852 59286556 
687.016 58939136 58593168 58252020 57921972 57608444 57313512 57036048 
690.391 56772696 56521244 56284416 56069360 55884892 55739084 55635048 
693.766 55569704 55536796 55529224 55543268 55579456 55641976 55735392 
697.141 55862472 56023328 56215436 56437020 56689216 56975524 57301492 
700.516 57670344 58079620 58520900 58981452 59446256 59903648 60346556 
703.890 60772232 61179980 61568180 61932500 62267488 62569208 62837860 
707.265 63078636 63299528 63507960 63707700 63898168 64077200 64245664 
710.640 64410964 64588628 64796672 65049156 65348736 65682016 66020564 
714.015 66325596 66561356 66700304 66731132 66658272 66499336 66280516 
717.390 66030508 65782620 65574104 65442988 65431552 65578416 65908788 
720.765 66428208 67112576 67908000 68728432 69473936 70046816 70362944 
724.139 70377328 70089880 69549104 68837952 68059272 67314600 66676580 
727.514 66184916 65843464 65631524 65516344 65466956 65465064 65502012 
730.889 65576180 65686060 65824492 65978864 66135412 66282520 66416664 
734.264 66541584 66664992 66792884 66927380 67064008 67196192 67319248 
737.639 67433592 67544864 67662512 67794336 67943800 68109344 68286008 
741.013 68468952 68656088 68848000 69046136 69250040 69455272 69654504 
744.388 69839544 70006168 70155376 70294536 70432584 70576632 70729736 
747.763 70889560 71051056 71210376 71366240 71521544 71680368 71844928 
751.138 72013776 72181664 72342416 72491608 72628824 72757464 72882296 
754.513 73006544 73130232 73250472 73364072 73470560 73573616 73680672 
757.888 73798936 73933112 74082408 74241160 74401656 74557488 74705784 
761.262 74847680 74986232 75124312 75263232 75403136 75544936 75693768 
764.637 75859624 76059016 76312480 76640208 77059656 77579448 78194176 
768.012 78877640 79581016 80234744 80749208 81036896 81028592 80690832 
771.387 80041952 79150816 78127424 77087752 76134616 75334792 74707760 
774.762 74234512 73870648 73569344 73288200 72997128 72676016 72303640 
778.136 71853224 71292832 70587232 69708456 68643088 67393800 65977708 
781.511 64421684 62758712 61023304 59251540 57482588 55752908 54096212 
784.886 52538840 51095736 49772584 48567268 47474756 46490516 45612312 
788.261 44839912 44172492 43606756 43136452 42752016 42444128 42205656 
791.636 42033552 41928368 41893704 41934680 42056108 42262332 42557844 
795.010 42947192 43435088 44026928 44728460 45546112 46490116 47574452 
798.385 48821464 50262188 51931632 53866516 56094016 58617816 61403844 
801.760 64367460 67374376 70227928 72698624 74557920 75594704 75675832 
805.135 74770608 72966632 70453312 67487032 64348324 61259524 58362524 
808.510 55698888 53223144 50838828 48443044 45972104 43416084 40822924 
811.885 38273600 35863720 33673724 31751226 30113654 28749044 27628826 
815.259 26715246 25972010 25367930 24875272 24472726 24143618 23873878 
818.634 23654444 23477926 23337910 23228628 23143944 23077720 23026674 
822.009 22989642 22969344 22970358 22997328 23053334 23138700 23252154 
825.384 23392072 23558306 23752528 23977614 24236734 24531342 24861482 
828.759 25227304 25631078 26079488 26585808 27170668 27858968 28680584 
832.133 29666384 30841714 32220562 33794472 35524612 37328492 39078196 
835.508 40619096 41771920 42373952 42316748 41561956 40160196 38234268 
838.883 35965648 33546526 31149028 28915818 26934364 25245460 23852840 
842.258 22734548 21855064 21173666 20653248 20259804 19964396 19746130 
845.633 19589010 19483164 19423044 19404714 19423250 19472906 19545408 
849.008 19632688 19728654 19829358 19934458 20044788 20162018 20286710 
852.382 20418728 20557806 20704954 20862722 21035850 21229158 21447370 
855.757 21694046 21971426 22281486 22626816 23011022 23439526 23918864 
859.132 24456776 25063380 25752848 26542482 27454392 28510078 29723790 
862.507 31094886 32599352 34186580 35775240 37268592 38564568 39567860 
865.882 40214860 40478684 40377732 39970408 39350872 38635580 37937304 
869.256 37363016 36997004 36892600 37078700 37558744 38316592 39318152 
872.631 40513204 41839336 43213084 44539684 45719496 46649488 47247208 
876.006 47458828 47266828 46693580 45795116 44653764 43357240 41994024 
879.381 40640456 39348116 38146496 37040268 36015644 35046840 34106612 
882.756 33176314 32249682 31336456 30457876 29644000 28923646 28318880 
886.131 27843954 27502468 27290542 27198744 27216418 27332318 27536356 
889.505 27820002 28176482 28601340 29093570 29655458 30293388 31015662 
892.880 31832296 32753140 33786668 34940072 36217540 37619224 39135768 
896.255 40743980 42403140 44047208 45592000 46942876 48000592 48685120 
899.630 48945020 48765188 48168744 47213224 45984076 44575184 43086320 
903.005 41611476 40224020 38981156 37919188 37054412 36390376 35921448 
906.379 35638612 35531512 35591748 35812336 36187756 36713868 37387644 
909.754 38207384 39173588 40287340 41548576 42952788 44487404 46128088 
913.129 47841752 49586612 51318260 53000236 54606908 56129460 57576816 
916.504 58973180 60353184 61751564 63196152 64694948 66227324 67733808 
919.879 69118392 70260880 71022368 71283344 70968136 70066320 68648320 
923.254 66863412 64935364 63114152 61660168 60808668 60715036 61443920 
926.628 62941028 65044620 67484864 69924736 72035912 73515376 74158808 
930.003 73888128 72742576 70855272 68400840 65568708 62515632 59354660 
933.378 56166036 53000612 49898384 46902712 44059456 41419304 39033352 
936.753 36942636 35178180 33759160 32691692 31971332 31582292 31497918 
940.128 31674876 32052942 32560888 33112478 33620700 34009672 34216512 
943.502 34204504 33964884 33516530 32900338 32170746 31390414 30615672 
946.877 29892004 29252004 28711626 28275170 27937690 27690234 27521636 
950.252 27420472 27376182 27377558 27413096 27472604 27546984 27630344 
953.627 27720748 27819048 27927936 28049824 28185888 28335892 28498404 
957.002 28672372 28857670 29055448 29267032 29493366 29733938 29987388 
960.377 30251716 30525622 30808668 31101720 31405230 31719144 32042418 
963.751 32373146 32709230 33050262 33397216 33752252 34117828 34495372 
967.126 34884952 35286056 35697892 36121028 36557552 37011044 37484944 
970.501 37981820 38503084 39048976 39620052 40218056 40846296 41508836 
973.876 42209708 42950700 43731916 44551616 45408548 46302152 47234648 
977.251 48209140 49230052 50300616 51423504 52601404 53837972 55139316 
980.625 56514184 57972448 59522784 61171396 62919772 64764632 66696940 
984.000 68702392 70756560 72821016 74844064 76753440 78462272 79883144 
987.375 80930088 81537240 81670024 81326528 80541192 79376896 77925928 
990.750 76294344 74591368 72927680 71395568 70065352 68984960 68175824 
994.125 67639440 67363544 67329616 67517496 67908304 68486648 69237832 
997.500 70147272 71200776 72383520 73681136 75080080 76563808 78109608 
1000.874 79686808 81250104 82744384 84110664 85288416 86229544 86903528 
1004.249 87300192 87432080 87332640 87056544 86670256 86251168 85881744 
1007.624 85634456 85572752 85743344 86171960 86869168 87832144 89051080 
1010.999 90511688 92197832 94092592 96175144 98422064 100810200 103315736 
1014.374 105918552 108601344 111341872 114107648 116846528 119477736 
1017.266 121902368 124007736 125682952 126847432 127461184 127540824 
1020.159 127157432 126439872 125560640 124703776 124064040 123813952 
1023.052 124077488 124934312 126405344 128462600 131035896 134030552 
1025.945 137343872 140862976 144480496 148091488 151584880 154856480 
1028.838 157807488 160350672 162425504 163995280 165046928 165584480 
1031.731 165621616 165178560 164278288 162952224 161239840 159183648 
1034.624 156828800 154214880 151372464 148328464 145110688 141754144 
1037.517 138310128 134841136 131416488 128109856 124985040 122095224 
1040.410 119481840 117168960 115163528 113449288 111985552 110701200 
1043.303 109497520 108267176 106898992 105302840 103430168 101277680 
1046.196 98891968 96354216 93775688 91274440 88957544 86921096 85234024 
1049.571 83935920 83040936 82537536 82395312 82569272 83011536 83674264 
1052.947 84513112 85491944 86576088 87728040 88906792 90059808 91126216 
1056.322 92045288 92755672 93205152 93357904 93192872 92709528 91927712 
1059.697 90891608 89666488 88332632 86986264 85722040 84624872 83769656 
1063.072 83208656 82975072 83084104 83532880 84301928 85352776 86632192 
1066.448 88067832 89572120 91056664 92431720 93619752 94565160 95230136 
1069.823 95596168 95659760 95427392 94912944 94133776 93112440 91871952 
1073.198 90435904 88829632 87079704 85218376 83289448 81345312 79450376 
1076.573 77677976 76097144 74772536 73757120 73084088 72768944 72805144 
1079.948 73165600 73797208 74623592 75552552 76472952 77273448 77860760 
1083.324 78165456 78161528 77867336 77345064 76685784 75995776 75389224 
1086.699 74965088 74804536 74966544 75479216 76343056 77528616 78983784 
1090.074 80633336 82387864 84159040 85858368 87407680 88746328 89823576 
1093.449 90602056 91056624 91172568 90948272 90395064 89538520 88415552 
1096.825 87071888 85564080 83951920 82297912 80664336 79100768 77639744 
1100.200 76289656 75032224 73825016 72610224 71333160 69949920 68442576 
1103.575 66822984 65132148 63433140 61795988 60296188 58999936 57957716 
1106.950 57206756 56766168 56639536 56816884 57277484 57993004 58927292 
1110.326 60042040 61295772 62641428 64031116 65409936 66716992 67892888 
1113.701 68878984 69625216 70097936 70279232 70168336 69778568 69135328 
1117.076 68271776 67225160 66037916 64751596 63402964 62024640 60638984 
1120.451 59259744 57894640 56547964 55224452 53932312 52682608 51489048 
1123.827 50366396 49326772 48380332 47535160 46797632 46174776 45674776 
1127.202 45306328 45078772 44999384 45072376 45297468 45668184 46172156 
1130.577 46788740 47489804 48240536 48997352 49715812 50354524 50879764 
1133.952 51274748 51541612 51702408 51793336 51860872 51954596 52114948 
1137.328 52371900 52737640 53205388 53748680 54323548 54877560 55349396 
1140.703 55680316 55822796 55739532 55409580 54826880 53997556 52937688 
1144.078 51671056 50229788 48649984 46972004 45239544 43492548 41768964 
1147.453 40102228 38518292 37037996 35676668 34443792 33344440 32379392 
1150.829 31545874 30837944 30247736 29767114 29387558 29101754 28903850 
1154.204 28789122 28753682 28794148 28907178 29089636 29339166 29654040 
1157.579 30033508 30477816 30986946 31560342 32196760 32893904 33648556 
1160.954 34457028 35314092 36212568 37141240 38084204 39021424 39927908 
1164.330 40776336 41540080 42191996 42707708 43066708 43251408 43250752 
1167.705 43060928 42686944 42141684 41445112 40622736 39700356 38704400 
1171.080 37660092 36589668 35514108 34453188 33423338 32439868 31515378 
1174.455 30659016 29877662 29176128 28557104 28022468 27573534 27211196 
1177.831 26936234 26749356 26651720 26644886 26731630 26915434 27201144 
1181.206 27593446 28096446 28713220 29445528 30293174 31254270 32324206 
1184.581 33493124 34743724 36049308 37369840 38653544 39843640 40877344 
1187.956 41697396 42259008 42530948 42502740 42183708 41603452 40806400 
1191.332 39846984 38786088 37679568 36576944 35519972 34538528 33654892 
1194.707 32885720 32242082 31731442 31357326 31118202 31005876 31004988 
1198.082 31094068 31243478 31418980 31585354 31704708 31742170 31668782 
1201.457 31461832 31110120 30614854 29990796 29262532 28462952 27629178 
1204.833 26795098 25990864 25240192 24558340 23954472 23432322 22991354 
1208.208 22628526 22338762 22116264 21954766 21848130 21791652 21781932 
1211.583 21817294 21897228 22021896 22191300 22404694 22660290 22955826 
1214.958 23287986 23652974 24045374 24458460 24883308 25309906 25727570 
1218.333 26126074 26497364 26835136 27134900 27394074 27610924 27785208 
1221.709 27918538 28015116 28081882 28127730 28163472 28199818 28246068 
1225.084 28310144 28397472 28510646 28649896 28812738 28993952 29186334 
1228.459 29382770 29577134 29766974 29955152 30150020 30365088 30615886 
1231.834 30919624 31292866 31749730 32303646 32967214 33751568 34667708 
1235.210 35724872 36929540 38285036 39791604 41446464 43244488 45178292 
1238.585 47236348 49400756 51647768 53946232 56259260 58552064 60792356 
1241.960 62954432 65021180 66979876 68819848 70530592 72098408 73506232 
1245.335 74734240 75756928 76544248 77063576 77278120 77155616 76672904 
1248.711 75819608 74600888 73035624 71153656 68989392 66581748 63975020 
1252.086 61215536 58357296 55460252 52582180 49781576 47110692 44610032 
1255.461 42311560 40235756 38391260 36776792 35380800 34183352 33155498 
1258.836 32262780 31467922 30731238 30017636 29298828 28554062 27773516 
1262.212 26956188 26109254 25245110 24379736 23531266 22716010 21948700 
1265.587 21240674 20598350 20024352 19516848 19071422 18681898 18341902 
1268.962 18046244 17790758 17572754 17390380 17241900 17125354 17038886 
1272.337 16981168 16951642 16951434 16982582 17047156 17147206 17282962 
1275.713 17452324 17650426 17868504 18094672 18312388 18502168 18644646 
1279.088 18721438 18719706 18634338 18469460 18236740 17952652 17636070 
1282.463 17304340 16970590 16645221 16334409 16042829 15774500 15533774 
1285.838 15324896 15152178 15019793 14931102 14889610 14899109 14963237 
1289.214 15086203 15270873 15519146 15830062 16200975 16626285 17097298 
1292.589 17602600 18125764 18646306 19141120 19584956 19956038 20239494 
1295.964 20429634 20531370 20559300 20535642 20484476 20430710 20397788 
1299.339 20403968 20463532 20585112 20769774 21010776 21292314 21592036 
1302.715 21880920 22128642 22309180 22401066 22392834 22282358 22077114 
1306.090 21791966 21446780 21065726 20672464 20288758 19933590 19620002 
1309.465 19355792 19144168 18984428 18874160 18809902 18788760 18807550 
1312.840 18862912 18951060 19067060 19206952 19367640 19547764 19747968 
1316.216 19969602 20214326 20482530 20773910 21087222 21421960 21778240 
1319.591 22157024 22558962 22982620 23423124 23871184 24313398 24731824 
1322.966 25107612 25421326 25656492 25803374 25861292 25841352 25765012 
1326.341 25664224 25575266 25531794 25561490 25680288 25890410 26182554 
1329.717 26539488 26941698 27369690 27808874 28249568 28685824 29115890 
1333.092 29540746 29964028 30391064 30828090 31280548 31751048 32238010 
1336.467 32735028 33232466 33717084 34173892 34588188 34944056 35226400 
1339.842 35422896 35524968 35531048 35446836 35285156 35063292 34800364 
1343.218 34516360 34228344 33951232 33697644 33477124 33296890 33161792 
1346.593 33073000 33027560 33015832 33023338 33029560 33010792 32945980 
1349.968 32817316 32615780 32342304 32009282 31639666 31263630 30919304 
1353.343 30644544 30472804 30430724 30530600 30769010 31125284 31566504 
1356.719 32049838 32527890 32958596 33305228 33540618 33650452 33632444 
1360.094 33497956 33269596 32982692 32680974 32408736 32209356 32113232 
1363.469 32132748 32260458 32470864 32726344 32978688 33178102 33275750 
1366.844 33227030 33002212 32590888 32007676 31288382 30485706 29658970 
1370.219 28858874 28126458 27488348 26956506 26534486 26220740 26012042 
1373.595 25904336 25892204 25968036 26119880 26334122 26598102 26901404 
1376.970 27238574 27608204 28011406 28451312 28932534 29462832 30053392 
1380.345 30719112 31475440 32331024 33280186 34294028 35322676 36293000 
1383.720 37119084 37719104 38014980 37947500 37487468 36647060 35490308 
1387.096 34126360 32697980 31338450 30143416 29162378 28398110 27824524 
1390.471 27401274 27088278 26849518 26653552 26474332 26287442 26070268 
1393.846 25806152 25486642 25115196 24704606 24272260 23832888 23393996 
1397.221 22957990 22525144 22098832 21689762 21314898 20992868 20739154 
1400.597 20560690 20456030 20418104 20438178 20508582 20623124 20777906 
1403.972 20969254 21192556 21442044 21710694 21992164 22282150 22579730 
1407.347 22887048 23208146 23547286 23907590 24289886 24692434 25112212 
1410.722 25545850 25990408 26443344 26901616 27360230 27812266 28250028 
1414.098 28666850 29060834 29436062 29804054 30180992 30586482 31040468 
1417.473 31558168 32146272 32797412 33487112 34176940 34824312 35394856 
1420.848 35866600 36232088 36494984 36667248 36768244 36822628 36859816 
1424.223 36906488 36981852 37094580 37243612 37422708 37625332 37848328 
1427.599 38091548 38356804 38646264 38963104 39312492 39702932 40147436 
1430.974 40660396 41251596 41923880 42671296 43484272 44353480 45278120 
1434.349 46267612 47336840 48497392 49743972 51044304 52344128 53587724 
1437.724 54740992 55797780 56770284 57671328 58501564 59242196 59855420 
1441.100 60295920 60513084 60461132 60107064 59429236 58424076 57107656 
1444.475 55522376 53732704 51815436 49858984 47943720 46136452 44488400 
1447.850 43027412 41758312 40662724 39710012 38865440 38101064 37405520 
1451.225 36785084 36261984 35861456 35602936 35488220 35499332 35597504 
1454.601 35729044 35834464 35848716 35721812 35440476 35045516 34620876 
1457.976 34256632 34020924 33943920 34030204 34271724 34653208 35154540 
1461.351 35748184 36401040 37069748 37699340 38232240 38610232 38792648 
1464.726 38771672 38577964 38271432 37916224 37568788 37265312 37021972 
1468.102 36843044 36723672 36653440 36616128 36590716 36551244 36468136 
1471.477 36317888 36091432 35803412 35489804 35195788 34961472 34810632 
1474.852 34753916 34793652 34927752 35151956 35457984 35832920 36257660 
1478.227 36709108 37164308 37599932 37996428 38340912 38626784 38857216 
1481.603 39044372 39209200 39378296 39582524 39858276 40242556 40773424 
1484.978 41484048 42393568 43499248 44766848 46133208 47500520 48742836 
1488.353 49725024 50302400 50349280 49791424 48624372 46927408 44838368 
1491.728 42522288 40122760 37738188 35432024 33232540 31153620 29216422 
1495.104 27451568 25903704 24622436 23644682 22982932 22621648 22529508 
1498.479 22667586 22998584 23490516 24112058 24831556 25618038 26438660 
1501.854 27261928 28061028 28805798 29462442 29988418 30318576 30364804 
1505.229 30021260 29192358 27851092 26088002 24099134 22093988 20214536 
1508.604 18511124 16973416 15571998 14284031 13098960 12020146 11056083 
1511.980 10211003 9482692 8861265 8333330 7884915 7503673 7178277 6896515 
1515.837 6646225 6417399 6205195 6012345 5846648 5715828 5622169 5560111 
1519.695 5516249 5475277 5425820 5368386 5316057 5288151 5298012 5346179 
1523.552 5421861 5509470 5596593 5676516 5751215 5828379 5917447 6022995 
1527.409 6144128 6274876 6409463 6545908 6686837 6838280 7006443 7194750 
1531.267 7402685 7626636 7861533 8103849 8352650 8608894 8872425 9140785 
1535.124 9408228 9668043 9913742 10140891 10347901 10534811 10703189 
1538.500 10852710 10980533 11078754 11138649 11155681 11133414 11081575 
1541.875 11010542 10925179 10822748 10694631 10531891 10330359 10095615 
1545.250 9841272 9585113 9340751 9112429 8895117 8678252 8452204 8213340 
1549.107 7967656 7728419 7511326 7326320 7174268 7047998 6937117 6833702 
1552.965 6734923 6643601 6565384 6505545 6464211 6436802 6414944 6388783 
1556.822 6347157 6277263 6166578 6006735 5804470 5584947 5383012 5224295 
1560.680 5115588 5048976 5010126 4983044 4953517 4911861 4853724 4782059 
1564.537 4705316 4634178 4576948 4535563 4505865 4479551 4449087 4409856 
1568.395 4362262 4311292 4264745 4229077 4208032 4201442 4207932 4225966 
1572.252 4254506 4291916 4335253 4379097 4416350 4440384 4448284 4443229 
1576.109 4434961 4435363 4451230 4482598 4523141 4565095 4602766 4633408 
1579.967 4657119 4675506 4689640 4699186 4702234 4697042 4683042 4662444 
1583.824 4639269 4617668 4601058 4589974 4582674 4576948 4571256 4566434 
1587.682 4564961 4569682 4582507 4603302 4630561 4662678 4699320 4742128 
1591.539 4793684 4855466 4926774 5002987 5077772 5145126 5201660 5247603 
1595.396 5286708 5324610 5366071 5414078 5469908 5534571 5609851 5700015 
1599.254 5810481 5946569 6112170 6308460 6534707 6789240 7070831 7378150 
1603.111 7708721 8057029 8412542 8759792 9081233 9357950 9573562 9715952 
1606.969 9778573 9761359 9670008 9515509 9312348 9075380 8820415 8561817 
1610.826 8311747 8080557 7874321 7694960 7540083 7404606 7281672 7164364 
1614.684 7047022 6925973 6800750 6675430 6558353 6460175 6390195 6353713 
1618.541 6350351 6375568 6421703 6480051 6543115 6604642 6662476 6719006 
1622.398 6780018 6852350 6941056 7047493 7169249 7302563 7444615 7594468 
1626.256 7752738 7919366 8092844 8268923 8442237 8607812 8763680 8910201 
1630.113 9049701 9184067 9312923 9433894 9542536 9634063 9704940 9752886 
1633.971 9777692 9780471 9763900 9732792 9692675 9650527 9611603 9578677 
1637.828 9550869 9524450 9493156 9450453 9391061 9313736 9221532 9120855 
1641.686 9019794 8923898 8834517 8748365 8658579 8557491 8438352 8298069 
1645.543 8138858 7968466 7798749 7642351 7510550 7409527 7340844 7302226 
1649.400 7288242 7291107 7299463 7298789 7269711 7192762 7057124 6875172 
1653.258 6685659 6531209 6433708 6387370 6372710 6369550 6364742 6351730 
1657.115 6329170 6299417 6265228 6228958 6191045 6150077 6103803 6050142 
1660.973 5987485 5915297 5834760 5747925 5658657 5571958 5492927 5425485 
1664.830 5371506 5329541 5295429 5263667 5226475 5177550 5112403 5030405 
1668.688 4935152 4833520 4733787 4642484 4563287 4496658 4440551 4391514 
1672.545 4344289 4292753 4230148 4151193 4055028 3948252 3843775 3755366 
1676.402 3692404 3654945 3635732 3623370 3607399 3581540 3545394 3503773 
1680.260 3464092 3432063 3408219 3386112 3353521 3296827 3207293 3088378 
1684.117 2959053 2846643 2772241 2739596 2739029 2755368 2775976 2791749 
1687.975 2797852 2792916 2777309 2752900 2722491 2690517 2661512 2640210 
1691.832 2629442 2628676 2633510 2635676 2625642 2594775 2540547 2469596 
1695.689 2398591 2346452 2323632 2328396 2348251 2366240 2365274 2332993 
1699.547 2267406 2181081 2098237 2040974 2018837 2026426 2051261 2079692 
1703.404 2101433 2109857 2102365 2080092 2047799 2012179 1979491 1953463 
1707.262 1934625 1921579 1911162 1901045 1889797 1877650 1866203 1857251 
1711.119 1852227 1851029 1852593 1854623 1854789 1852260 1846770 1839416 
1714.977 1830764 1820084 1805344 1783884 1754773 1721007 1689872 1670480 
1718.834 1668883 1686645 1719910 1761992 1806009 1846370 1880312 1907934 
1722.691 1931397 1954062 1978793 2007252 2039542 2074765 2111921 2149846 
1726.549 2187442 2223176 2255116 2281062 2299616 2310974 2317170 2321367 
1730.406 2325898 2330428 2331361 2320501 2287957 2226007 2134063 2023830 
1734.264 1916820 1836122 1794131 1788608 1808105 1838251 1866802 1884372 
1738.121 1886435 1872492 1846670 1815459 1786379 1764721 1752977 1750615 
1741.979 1755771 1765719 1778095 1791070 1803580 1814993 1825807 1835989 
1745.836 1845638 1854423 1860512 1861943 1856286 1841346 1815359 1777662 
1749.693 1728492 1669914 1605691 1541710 1484886 1441400 1414407 1403570 
1753.551 1405565 1414041 1421620 1421920 1410783 1388080 1357965 1327720 
1757.408 1303824 1289866 1284782 1283453 1279731 1267900 1244207 1209617 
1761.266 1168053 1125695 1088789 1061984 1046539 1041856 1045476 1054045 
1765.123 1064442 1073045 1076466 1072912 1061984 1046174 1029667 1016747 
1768.980 1009474 1006618 1003894 995193 975533 943322 902613 862108 831200 
1773.320 815464 815232 825689 840927 855468 867055 875819 883688 892254 
1777.660 901518 909719 914334 913504 907063 897434 888635 884352 886245 
1781.999 893151 901883 908988 911446 908656 901186 891424 881331 872831 
1786.339 866723 863303 863402 867187 874624 884319 893715 898895 895641 
1790.678 881597 857061 826253 796477 774303 763814 765208 774867 788045 
1795.018 800725 810684 817290 821573 824461 826419 827548 827183 824726 
1799.358 820610 815298 810120 806369 804410 804576 806667 810319 814966 
1803.697 820610 826519 831797 836080 838570 839499 839632 840097 841524 
1808.037 844047 846537 847566 845774 840595 832528 823631 815896 810850 
1812.376 808892 809290 810717 812444 814369 816859 821407 829009 839798 
1816.716 853443 868715 884551 900289 916028 931667 947639 964176 980980 
1821.056 997916 1014323 1029667 1043184 1053647 1059958 1061220 1058064 
1824.913 1052518 1048133 1048067 1054344 1066136 1080651 1093240 1099552 
1828.771 1097692 1089553 1080286 1077064 1085833 1108886 1144099 1186559 
1832.628 1230118 1270592 1305486 1334633 1359494 1381930 1403038 1423482 
1836.485 1443295 1462677 1482858 1506431 1535093 1570972 1614903 1665856 
1840.343 1721872 1780257 1838151 1892692 1941381 1982088 2014742 2041074 
1844.200 2065243 2092277 2126538 2169560 2219113 2270703 2318303 2356246 
1848.058 2381499 2393793 2395192 2389395 2379067 2364908 2346119 2319569 
1851.915 2282894 2235498 2178884 2116316 2051461 1987380 1925439 1865903 
1855.772 1808205 1752112 1698753 1649226 1604327 1564188 1527644 1492998 
1859.630 1459220 1426175 1394994 1367206 1343673 1323665 1305885 1287839 
1863.487 1268698 1248726 1230019 1214601 1203537 1195729 1188353 1177555 
1867.345 1161142 1139581 1117590 1101445 1096961 1106727 1129017 1158551 
1871.202 1188785 1214701 1233607 1244872 1249923 1250155 1246467 1239156 
1875.060 1227959 1213139 1195463 1176359 1157355 1139382 1122838 1107159 
1878.917 1092576 1079522 1069490 1064176 1064741 1070288 1078957 1087294 
1882.774 1092310 1092277 1087294 1078359 1067730 1056836 1045875 1034316 
1886.632 1021629 1007249 991905 977559 965504 957568 954280 955210 959494 
1890.971 966401 975002 984533 993964 1001636 1005688 1005422 1000739 993367 
1895.311 986525 982872 983802 989714 998415 1007116 1013725 1017312 1018009 
1899.651 1017146 1016116 1015552 1015751 1016216 1016581 1017279 1018574 
1903.508 1020234 1021795 1021895 1018740 1011666 1000872 988153 976364 
1907.365 967796 963412 962715 964309 966434 968759 972312 978256 987787 
1911.705 1000573 1014289 1025615 1031859 1031859 1026644 1018673 1010038 
1915.563 1002001 994894 986924 977426 967065 958763 955708 960457 972080 
1919.902 986858 999444 1004758 1000009 986559 968526 951524 940068 936249 
1924.242 938640 944783 952155 960224 969954 983371 1001536 1024054 1048598 
1928.581 1072115 1092277 1109085 1122606 1133901 1142737 1146724 1142671 
1932.439 1128187 1102641 1069192 1033685 1002167 979684 968427 966866 972312 
1936.778 982706 996754 1015153 1038468 1065239 1090716 1109085 1113603 
1940.636 1099718 1068859 1026678 982341 946410 925557 922038 934988 960590 
1944.975 995127 1036874 1084571 1136857 1191310 1243709 1288205 1321605 
1948.833 1341314 1347462 1343241 1332639 1318913 1304788 1291262 1278800 
1952.690 1267335 1256834 1246400 1235634 1223041 1207291 1188585 1168451 
1956.548 1148850 1132838 1121808 1114799 1108986 1100216 1085335 1064076 
1960.405 1038800 1013692 992304 977559 968028 961187 955575 950594 948104 
1964.745 952056 964508 985131 1011002 1036542 1056537 1068660 1073244 
1968.602 1072613 1069358 1064508 1056404 1043251 1024585 1001304 978124 
1972.459 960889 953118 956704 969689 989282 1014987 1051023 1102541 1176757 
1976.799 1275577 1392501 1513247 1619459 1695693 1733349 1733116 1702579 
1980.656 1653417 1596944 1539814 1485551 1436114 1392501 1357234 1334567 
1984.514 1326258 1331808 1347462 1365743 1378773 1382861 1376180 1361754 
1988.371 1345136 1329781 1316919 1306151 1293954 1278734 1260191 1240785 
1992.229 1223971 1213039 1208953 1210581 1217292 1226762 1238392 1252747 
1996.086 1269794 1287806 1304456 1315489 1317683 1309906 1293289 1269628 
1999.944 1242812 1213837 1182439 1147721 1109152 1067265 1027010 994728 
2003.801 976696 977659 999378 1038734 1091048 1150511 1211511 1269595 
2007.658 1321970 1365477 1397553 1416900 1423681 1419559 1408058 1393066 
2011.516 1378241 1366441 1359660 1359461 1368336 1389310 1424745 1475410 
2015.373 1538451 1606123 1669715 1719211 1747953 1753775 1740235 1712259 
2019.231 1676434 1638217 1600569 1565618 1536123 1514211 1503970 1508359 
2023.088 1527611 1559067 1597909 1638051 1675003 1706038 1729989 1747321 
2026.946 1757468 1758400 1748053 1727394 1699019 1669914 1649825 1645900 
2030.803 1662298 1698387 1747787 1801817 1855188 1903807 1947472 1989943 
2034.660 2032618 2075697 2117681 2154342 2182347 2200430 2208089 2206191 
2038.518 2196367 2179183 2155074 2126971 2098070 2072800 2057087 2054790 
2042.375 2065576 2088015 2116150 2145118 2172457 2198365 2224675 2256548 
2046.233 2295685 2343220 2397158 2454601 2510919 2562011 2603375 2630476 
2050.090 2639043 2626876 2594409 2546812 2493023 2443672 2409286 2397291 
2053.948 2407586 2435141 2470629 2504253 2528448 2541346 2544579 2542146 
2057.805 2538347 2535547 2533914 2533381 2533681 2535681 2541080 2551278 
2061.662 2565677 2582042 2596808 2606942 2611708 2612742 2613042 2615509 
2065.520 2620475 2625642 2626776 2620175 2604075 2580609 2555178 2533581 
2069.377 2520450 2517617 2523316 2534014 2546312 2558144 2569610 2582176 
2073.235 2596309 2611809 2627042 2639377 2646644 2649478 2648544 2646311 
2077.092 2644844 2644710 2644844 2644944 2644310 2643744 2646044 2653311 
2080.949 2667313 2688550 2715423 2745798 2777610 2809290 2839706 2868022 
2084.807 2892304 2909482 2917388 2914086 2899409 2875960 2847777 2818728 
2088.664 2791949 2768339 2747099 2727526 2709088 2692717 2681649 2678681 
2092.522 2685416 2701986 2726526 2755735 2787180 2819428 2851746 2884332 
2096.379 2916387 2945609 2968895 2983140 2985976 2978103 2962723 2943641 
2100.237 2926161 2913852 2908815 2911617 2921958 2938670 2960588 2985976 
2104.094 3012600 3037558 3058546 3074396 3085942 3095653 3107566 3124620 
2107.951 3148616 3178488 3211332 3243812 3273157 3298329 3320632 3342268 
2111.809 3364674 3388482 3412794 3434702 3451701 3461754 3463424 3457012 
2115.666 3443051 3422479 3396864 3368447 3339898 3315056 3297828 3290951 
2119.524 3295759 3311350 3334722 3362169 3390553 3417669 3442617 3465695 
2123.381 3486938 3505443 3520641 3531197 3536241 3537009 3534871 3531698 
2127.239 3530195 3531030 3534671 3541051 3549937 3561329 3576429 3595505 
2131.096 3618525 3645322 3674025 3702529 3729799 3754831 3777157 3797178 
2134.953 3814159 3827997 3838794 3847319 3855242 3865839 3881384 3903249 
2138.811 3930698 3960524 3988111 4009512 4021852 4024194 4017739 4004095 
2142.668 3983797 3957514 3924479 3884126 3837190 3786349 3734310 3684617 
2146.526 3639441 3599314 3563701 3532166 3504407 3481727 3465929 3457379 
2150.383 3455008 3454907 3451434 3438275 3411658 3369348 3311985 3242344 
2154.240 3163468 3079001 2992649 2910850 2841173 2794517 2781911 2811825 
2158.098 2886433 2999889 3138270 3285576 3424716 3543857 3636701 3700825 
2161.955 3737084 3747679 3735380 3703699 3657317 3602455 3543523 3485635 
2165.813 3430894 3378932 3327811 3275861 3221847 3166973 3114041 3065687 
2169.670 3023277 2988044 2957619 2929630 2902911 2876794 2851646 2830601 
2173.528 2814059 2803021 2796751 2792749 2788581 2782112 2770440 2752034 
2177.385 2726892 2694851 2657678 2619375 2584642 2557944 2543046 2539913 
2181.242 2545379 2554578 2560277 2557011 2542846 2518317 2486025 2450802 
2185.100 2417049 2387263 2364108 2349250 2343853 2349583 2366907 2394226 
2188.957 2429277 2467530 2503687 2534747 2558678 2575343 2586075 2591642 
2192.815 2592075 2586442 2573809 2553078 2525816 2494922 2464164 2437740 
2196.672 2418581 2408053 2406120 2412418 2425945 2445604 2470296 2497355 
2200.530 2523449 2544079 2555278 2554145 2540780 2517584 2489024 2459866 
2204.387 2435008 2416816 2406820 2405054 2410652 2422513 2439840 2461998 
2208.244 2488324 2518317 2550712 2584942 2619809 2652945 2682415 2705520 
2212.102 2719557 2723491 2718723 2707721 2694551 2683582 2676981 2674381 
2215.959 2673881 2671680 2664313 2651078 2632909 2613075 2595842 2583842 
2219.817 2578309 2577976 2579843 2580509 2577976 2570210 2557178 2540347 
2223.674 2521183 2501787 2485192 2473928 2469929 2474328 2485691 2500821 
2227.531 2515984 2526582 2529715 2525616 2516184 2504787 2495422 2490124 
2231.389 2488624 2489091 2488757 2484825 2476627 2464931 2451669 2440340 
2235.246 2433975 2435208 2446171 2467897 2499988 2540413 2585576 2630476 
2239.104 2669947 2700219 2719524 2729126 2732227 2732561 2733294 2735595 
2242.961 2738529 2740296 2739763 2737329 2735228 2736962 2746065 2763871 
2246.819 2790282 2822597 2856915 2889902 2918622 2941239 2956818 2964658 
2250.676 2964291 2956051 2941739 2924093 2907114 2894872 2890002 2893305 
2254.533 2903445 2917355 2932199 2946110 2958219 2969462 2980838 2992182 
2258.391 3002090 3008697 3009431 3002891 2989112 2969162 2944642 2917955 
2262.248 2889969 2861785 2835136 2811658 2793783 2784179 2784046 2792683 
2266.106 2807723 2824898 2840072 2850412 2854781 2854114 2850945 2847110 
2269.963 2844075 2841873 2839972 2837071 2833302 2829067 2825498 2824664 
2273.821 2827899 2836270 2850845 2871424 2897574 2928163 2960955 2993116 
2277.678 3021475 3043530 3057478 3063551 3063484 3059480 3054375 3049770 
2281.535 3045933 3042730 3039593 3036023 3032553 3030251 3029984 3032319 
2285.393 3036790 3042229 3047101 3049904 3050037 3047334 3042196 3035289 
2289.250 3026847 3017672 3007996 2998621 2990914 2985876 2984909 2988678 
2293.108 2996953 3008864 3023344 3038559 3052573 3063918 3070959 3072361 
2296.965 3067889 3057945 3043964 3028048 3012800 3000022 2990547 2984041 
2300.823 2979237 2974466 2969162 2963090 2957719 2954550 2954716 2958586 
2304.680 2965392 2973198 2980338 2985509 2988412 2989279 2989179 2988512 
2308.537 2987411 2985809 2983541 2980505 2977769 2976401 2977535 2981939 
2312.395 2989346 2998621 3008363 3016604 3022209 3024545 3023277 3018739 
2316.252 3011433 3002124 2991781 2981739 2972965 2966726 2963757 2964157 
2320.110 2967527 2973065 2979304 2984775 2987744 2985609 2975967 2955951 
2323.967 2923459 2877694 2819929 2753167 2681482 2610409 2544579 2487124 
2327.824 2439673 2402156 2372903 2350183 2332560 2319102 2309842 2305278 
2331.682 2305545 2311207 2322267 2337790 2357046 2378501 2400090 2419781 
2335.539 2435608 2447037 2453768 2457200 2459366 2461898 2465997 2471529 
2339.397 2477960 2484158 2489924 2495822 2502887 2512685 2525849 2542180 
2343.254 2560444 2579009 2597775 2617609 2641077 2671247 2710821 2760336 
2347.112 2818361 2881297 2944241 3002591 3052139 3089713 3113440 3122818 
2350.969 3118479 3102461 3077600 3047201 3014569 2982873 2953449 2926695 
2354.826 2902511 2879896 2857983 2837171 2817494 2800086 2785780 2774442 
2358.684 2766539 2761704 2759536 2760136 2764304 2772241 2784012 2799186 
2362.541 2816694 2835503 2855047 2875193 2896006 2918422 2942273 2967360 
2366.399 2992949 3017972 3041996 3065320 3089179 3114675 3143076 3174583 
2370.256 3208862 3245415 3283172 3321567 3360733 3400571 3441047 3481794 
2374.114 3522311 3561730 3599682 3636066 3671251 3705971 3740794 3776121 
2377.971 3811953 3848088 3884460 3920969 3957548 3994263 4030815 4066868 
2381.828 4101954 4135772 4167987 4198732 4228241 4256748 4284153 4310388 
2385.686 4335220 4358547 4380670 4402158 4423647 4445539 4467834 4490264 
2389.543 4512059 4532683 4551902 4569883 4587195 4604072 4620347 4635987 
2393.401 4650688 4664387 4677783 4692253 4709000 4729131 4753049 4779681 
2397.258 4807554 4834960 4860693 4884416 4906701 4928148 4949764 4972018 
2401.115 4994943 5018305 5042071 5066709 5093025 5121824 5153576 5188179 
2404.973 5224932 5262493 5299689 5335881 5370566 5403611 5435349 5465647 
2408.830 5494739 5523329 5551855 5581691 5613946 5649359 5687695 5728082 
2412.688 5768608 5807526 5843794 5876907 5907370 5936425 5965078 5994070 
2416.545 6023735 6054006 6084717 6116270 6148564 6181702 6215413 6248892 
2420.403 6280961 6310645 6337642 6362186 6385622 6409563 6435154 6463235 
2424.260 6493908 6526566 6560675 6595962 6632398 6670248 6709920 6751782 
2428.117 6796207 6843564 6894529 6949944 7010686 7076657 7147354 7221195 
2431.975 7295925 7369219 7439660 7507179 7572922 7638675 7706832 7778778 
2435.832 7855191 7935766 8019529 8105267 8192203 8279494 8367073 8454502 
2439.690 8541575 8627855 8712799 8795563 8875739 8952851 9026290 9095613 
2443.547 9160751 9221802 9279343 9334623 9388962 9443782 9500640 9560454 
2447.405 9623493 9689760 9758275 9827782 9896149 9961339 10020944 10073470 
2451.262 10118032 10155205 10186919 10215379 10243230 10273119 10305691 
2454.637 10341182 10378985 10417910 10457485 10497809 10539767 10584853 
2458.012 10634832 10690522 10752605 10821016 10894703 10972480 11052718 
2461.388 11134094 11215110 11295121 11373923 11451922 11530446 11610958 
2464.763 11694650 11782818 11875738 11974059 12077683 12187465 12303957 
2468.138 12428764 12562100 12704415 12854798 13011650 13172864 13336939 
2471.513 13502409 13669275 13837540 14007648 14179708 14353170 14527217 
2474.889 14700989 14873735 15044661 15213392 15379097 15540368 15695136 
2478.264 15840648 15974211 16094059 16198637 16287966 16362758 16423833 
2481.639 16472150 16508114 16531622 16542878 16542155 16530417 16509388 
2485.014 16481683 16449401 16414989 16379651 16343663 16306370 16266912 
2488.390 16224055 16176488 16123254 16063904 15997723 15924575 15843980 
2491.765 15755499 15659101 15554928 15443125 15324450 15199391 15068502 
2495.140 14932440 14791176 14645056 14494190 14338101 14176695 14009839 
2498.515 13837300 13659017 13475509 13287365 13096126 12903366 12711307 
2501.891 12521685 12336510 12156218 11981178 11810907 11644242 11480636 
2505.266 11319947 11162786 11010371 10864465 10726419 10596803 10475406 
2508.641 10360559 10250457 10143571 10038712 9936388 9837713 9744957 9660217 
2512.499 9585384 9521469 9468570 9426106 9392585 9366481 9346100 9329918 
2516.356 9316511 9305476 9296336 9289668 9286080 9286148 9290447 9298537 
2520.213 9309843 9323350 9338212 9353853 9370747 9389504 9411004 9436028 
2524.071 9464709 9496747 9531359 9567363 9603743 9639754 9674141 9705923 
2527.928 9733369 9754716 9767763 9771050 9763358 9744890 9717274 9682341 
2531.786 9642838 9601407 9559878 9519572 9481438 9445915 9413172 9383579 
2535.643 9357374 9334217 9313567 9293932 9273657 9251249 9225559 9195946 
2539.500 9163661 9129483 9095545 9062963 9032312 9003353 8975581 8947744 
2543.358 8919671 8891532 8864004 8838270 8815310 8795428 8778252 8763004 
2547.215 8748601 8733726 8717938 8700765 8682376 8662737 8641983 8619912 
2551.073 8597201 8574016 8551510 8530525 8511805 8495924 8482780 8471935 
2554.930 8462610 8454502 8447204 8440819 8435244 8430075 8424839 8418724 
2558.788 8410616 8399907 8386766 8370958 8353089 8333668 8312829 8290842 
2562.645 8268282 8245758 8224686 8206418 8192068 8182209 8176503 8173700 
2566.502 8172113 8170121 8166610 8161207 8154219 8146318 8138047 8129978 
2570.360 8122551 8116205 8111512 8109351 8110500 8115563 8124239 8135684 
2574.217 8148344 8160837 8172147 8181634 8189670 8197302 8205202 8214218 
2578.075 8224720 8236640 8249472 8262744 8275543 8287363 8298103 8307864 
2581.932 8317489 8328567 8342922 8362108 8387273 8418589 8454332 8492748 
2585.790 8531167 8567528 8601053 8631607 8660506 8689103 8718716 8749785 
2589.647 8782377 8815851 8849666 8883889 8918487 8953866 8990296 9027440 
2593.504 9064519 9100756 9135135 9166841 9195912 9222446 9246713 9269087 
2597.362 9289701 9308659 9326397 9343391 9360353 9378331 9398070 9419978 
2601.219 9444426 9471245 9499862 9530140 9561606 9594496 9628473 9663842 
2605.077 9700468 9738282 9777388 9817514 9858930 9901505 9945303 9990598 
2608.934 10037390 10086018 10136346 10188581 10242485 10298023 10354891 
2612.309 10412752 10471741 10531891 10593408 10656293 10720306 10784737 
2615.685 10848566 10910807 10970747 11028044 11083003 11136372 11189100 
2619.060 11241836 11294849 11348108 11401271 11454133 11506425 11558075 
2622.435 11608984 11659218 11708232 11755345 11800217 11842300 11881799 
2625.810 11919090 11954407 11988331 12020793 12051485 12080374 12107630 
2629.186 12133866 12160580 12189101 12220624 12255625 12293526 12332658 
2632.561 12371248 12407215 12439163 12466816 12490380 12510704 12529017 
2635.936 12545865 12561827 12577311 12592080 12606270 12620255 12634445 
2639.311 12649353 12665591 12683536 12703323 12725330 12749179 12774703 
2642.687 12802139 12831283 12862306 12895482 12930742 12968395 13007826 
2646.062 13048559 13089569 13130344 13170063 13208488 13245926 13283060 
2649.437 13320368 13358874 13398820 13440000 13482003 13523976 13564997 
2652.812 13604552 13642536 13678883 13714379 13749500 13784933 13821120 
2656.188 13858508 13897200 13937401 13978734 14021098 14064013 14106727 
2659.563 14148966 14189909 14229555 14267629 14304816 14341321 14377898 
2662.938 14414717 14451848 14488880 14525229 14560108 14593139 14624049 
2666.313 14653316 14681316 14709010 14737047 14766048 14795940 14826864 
2669.688 14858751 14891428 14924896 14959292 14994755 15031078 15068194 
2673.064 15105792 15143531 15181479 15219740 15258553 15298399 15339587 
2676.439 15381946 15425684 15470523 15516330 15563102 15611323 15661059 
2679.814 15712623 15765980 15820716 15876388 15932446 15988648 16045064 
2683.189 16101763 16159052 16217140 16275959 16335510 16395582 16456215 
2686.565 16517751 16580949 16646530 16715152 16787436 16863106 16941994 
2689.940 17023688 17107224 17192156 17277998 17364170 17450150 17535770 
2693.315 17620544 17704504 17787860 17870990 17954412 18038612 18124276 
2696.690 18211618 18301258 18393336 18488096 18585712 18686118 18788830 
2700.066 18893400 18999138 19105698 19212702 19320388 19429070 19538962 
2703.441 19650404 19763226 19876876 19990522 20103884 20216272 20327782 
2706.816 20438700 20549364 20660684 20772796 20886226 21001144 21117554 
2710.191 21235108 21353564 21472296 21591026 21709336 21827120 21944624 
2713.567 22062332 22180700 22300182 22420674 22541794 22662806 22782770 
2716.942 22900984 23017030 23130872 23242856 23353436 23462818 23571528 
2720.317 23679532 23787002 23894324 24002160 24110938 24221666 24335194 
2723.692 24452080 24573170 24698854 24829380 24965280 25106384 25252588 
2727.068 25403552 25558572 25716568 25876658 26037936 26199482 26360844 
2730.443 26521420 26680786 26838450 26993878 27146434 27295340 27439956 
2733.818 27579676 27713720 27841586 27962638 28076370 28182104 28279660 
2737.193 28368892 28450076 28523912 28591572 28654568 28714494 28772870 
2740.569 28831468 28891630 28954316 29020732 29091762 29168262 29250834 
2743.944 29340194 29436842 29541134 29653258 29773182 29900450 30034644 
2747.319 30174066 30316552 30459582 30599566 30733052 30857154 30969402 
2750.694 31068158 31152836 31223256 31279440 31321250 31348814 31362060 
2754.070 31360746 31345360 31316190 31273566 31217452 31147282 31061928 
2757.445 30959652 30839010 30698556 30537744 30356916 30156912 29939002 
2760.820 29704878 29456308 29195228 28924034 28645544 28363196 28080116 
2764.195 27800398 27527496 27264504 27014118 26778430 26558862 26356372 
2767.571 26171294 26004092 25855102 25724126 25611640 25517740 25442126 
2770.946 25384370 25343132 25316474 25302144 25297472 25300176 25308640 
2774.321 25321882 25339478 25360906 25386058 25413458 25441564 25468056 
2777.696 25490472 25506634 25515068 25514858 25505650 25487766 25461554 
2781.072 25428074 25388902 25345590 25300526 25255856 25213820 25175828 
2784.447 25142544 25114070 25089496 25067944 25047796 25027822 25006660 
2787.822 24982336 24953384 24917694 24873518 24819698 24756028 24682756 
2791.197 24601152 24513148 24420534 24325136 24229024 24133808 24041558 
2794.573 23954366 23874718 23804712 23746194 23700350 23667984 23648740 
2797.948 23642548 23648880 23667704 23699056 23742974 23799602 23868698 
2801.323 23949708 24041732 24144072 24255756 24376336 24504908 24640882 
2804.698 24783178 24930818 25081984 25235380 25389358 25542302 25692698 
2808.073 25838996 25979362 26111998 26234890 26345810 26442956 26524378 
2811.449 26589188 26636396 26665670 26677264 26671486 26648830 26610466 
2814.824 26557134 26490708 26413482 26327996 26237776 26146482 26057636 
2818.199 25974964 25901522 25839840 25791736 25758650 25741142 25739382 
2821.574 25753130 25782136 25825070 25881090 25948548 26025516 26110240 
2824.950 26199976 26292160 26383940 26472430 26554774 26628116 26690618 
2828.325 26740652 26777478 26801230 26813038 26814342 26807540 26794852 
2831.700 26778818 26760986 26742836 26725042 26707424 26689946 26672154 
2835.075 26653728 26634704 26615504 26596622 26578306 26560904 26544384 
2838.451 26528430 26513460 26500324 26490428 26486060 26490392 26506488 
2841.826 26537304 26585456 26652706 26741180 26852618 26989506 27154652 
2845.201 27351090 27581442 27846782 28145796 28473706 28821944 29178538 
2848.576 29528792 29855586 30142562 30374648 30539842 30630996 30646002 
2851.952 30588332 30465732 30289870 30074628 29833796 29581072 29327822 
2855.327 29082798 28852182 28639206 28445406 28270184 28112000 27968716 
2858.702 27837772 27716510 27602874 27495266 27392134 27293154 27197686 
2862.077 27105064 27014434 26924530 26833796 26740548 26644040 26544032 
2865.453 26441724 26339720 26241402 26151656 26075546 26017530 25981896 
2868.828 25971342 25986750 26026712 26088492 26167388 26257310 26352604 
2872.203 26447816 26538608 26621634 26694986 26757426 26808174 26847156 
2875.578 26874050 26889314 26893366 26887516 26873592 26853358 26829110 
2878.954 26802640 26775470 26749040 26724302 26702386 26684134 26670322 
2882.329 26661548 26657710 26658624 26663030 26669582 26676170 26680612 
2885.704 26680964 26675538 26663452 26644780 26621458 26596094 26572528 
2889.079 26555232 26548398 26555902 26580314 26624840 26691638 26784280 
2892.455 26907644 27068034 27273394 27532474 27853492 28243944 28707910 
2895.830 29245482 29850476 30509378 31200790 31893730 32552778 33137762 
2899.205 33608956 33934640 34093100 34076612 33892584 33561844 33115554 
2902.580 32587030 32012422 31423074 30843634 30293636 29785852 29327858 
2905.956 28923964 28575330 28281570 28041024 27851232 27709764 27615020 
2909.331 27565306 27560188 27599306 27682254 27807922 27973982 28177014 
2912.706 28411408 28670284 28945180 29226238 29502834 29764842 30002476 
2916.081 30208306 30377456 30507992 30601452 30660864 30691198 30697276 
2919.457 30682946 30651228 30603086 30538422 30456276 30355922 30237578 
2922.832 30102716 29954870 29799228 29642722 29492338 29355332 29237756 
2926.207 29143846 29075888 29034050 29016942 29021546 29043580 29078900 
2929.582 29121878 29167410 29210360 29245376 29267954 29274404 29261468 
2932.958 29227302 29170530 29090734 28988250 28864258 28720406 28559262 
2936.333 28383640 28197166 28003206 27805978 27609158 27416768 27232752 
2939.708 27060912 26904436 26766482 26648936 26552944 26478136 26423166 
2943.083 26385068 26359260 26340742 26322750 26298178 26259952 26201982 
2946.458 26119810 26011656 25878558 25724618 25555552 25379032 25202374 
2949.834 25031580 24871484 24724810 24592702 24475040 24371394 24280844 
2953.209 24203240 24137698 24083968 24042012 24011266 23991376 23981852 
2956.584 23982202 23991586 24009340 24034378 24065790 24102916 24145404 
2959.959 24193360 24247278 24307546 24374340 24447594 24526540 24609602 
2963.335 24695382 24782300 24869308 24955806 25041758 25127588 25214242 
2966.710 25302458 25393330 25487626 25586266 25689814 25799084 25914360 
2970.085 26036246 26165382 26302192 26447568 26601836 26764720 26935282 
2973.460 27111694 27290364 27466710 27635640 27791036 27927232 28039326 
2976.836 28123736 28178640 28204696 28204554 28182704 28145018 28098072 
2980.211 28048234 28000910 27960268 27928714 27906914 27894122 27888576 
2983.586 27887444 27887162 27884230 27874444 27853740 27818236 27764720 
2986.961 27691012 27596376 27481678 27349220 27202660 27046064 26883214 
2990.337 26717536 26551182 26385174 26220108 26055808 25892274 25729574 
2993.712 25568272 25408680 25251254 25096098 24942504 24789598 24635832 
2997.087 24479878 24320580 24157208 23989590 23818256 23643842 23467294 
3000.462 23289664 23111862 22934832 22759688 22587442 22419174 22256062 
3003.838 22098762 21947830 21803290 21664892 21532216 21405180 21283648 
3007.213 21168064 21058596 20955382 20858030 20765740 20677154 20590742 
3010.588 20505108 20419458 20333234 20246854 20160908 20075984 19993228 
3013.963 19912950 19835672 19761492 19690412 19622358 19557296 19495050 
3017.339 19435966 19379906 19326762 19276362 19228668 19183022 19138940 
3020.714 19096592 19055844 19017140 18981484 18949918 18923614 18903334 
3024.089 18890010 18883746 18885304 18894820 18912850 18939570 18975048 
3027.464 19018490 19068272 19121904 19175992 19226936 19270854 19304870 
3030.840 19326486 19334556 19328910 19310306 19280586 19241760 19196320 
3034.215 19146594 19094688 19042308 18990622 18940364 18891982 18845750 
3037.590 18801840 18760738 18722544 18687294 18654746 18624238 18594842 
3040.965 18565724 18536296 18506492 18476756 18447922 18421062 18397382 
3044.341 18377264 18361432 18349576 18341592 18336962 18334990 18335094 
3047.716 18336962 18340106 18344288 18349646 18356456 18365270 18376260 
3051.091 18389846 18405850 18424068 18443808 18464310 18485018 18505556 
3054.466 18525922 18546774 18568698 18592734 18619744 18650144 18683766 
3057.842 18719880 18757380 18794954 18831562 18866616 18900426 18933754 
3061.217 18967882 19004090 19043518 19086518 19132914 19182536 19234486 
3064.592 19288450 19344290 19401976 19461470 19522810 19585302 19648080 
3067.967 19710070 19770022 19826828 19879930 19928944 19973800 20015052 
3071.343 20053012 20088304 20121654 20153548 20184474 20214744 20244354 
3074.718 20273412 20301916 20329762 20357262 20384800 20412512 20440504 
3078.093 20468464 20495556 20521122 20544466 20565484 20584940 20604326 
3081.468 20625450 20650052 20679656 20714374 20753750 20796570 20841134 
3084.844 20885982 20930172 20973290 21015542 21057450 21099464 21141904 
3088.219 21184868 21228392 21272478 21317404 21363484 21411378 21461434 
3091.594 21514284 21569854 21627556 21687008 21747166 21807714 21868166 
3094.969 21928940 21990628 22054036 22119890 22188302 22258816 22330564 
3098.344 22402182 22472104 22539594 22604092 22665806 22726030 22785772 
3101.720 22846640 22909856 22975842 23044912 23116614 23189866 23263374 
3105.095 23335708 23405640 23472086 23534798 23594268 23651294 23707316 
3108.470 23763656 23821408 23881650 23944176 24008920 24075668 24143932 
3111.845 24213504 24284418 24356290 24428806 24501402 24573276 24643968 
3115.221 24713446 24782266 24850958 24920818 24992304 25065766 25140508 
3118.596 25215296 25288482 25358762 25425052 25487238 25545816 25601940 
3121.971 25657088 25713050 25771060 25832138 25896670 25964378 26034628 
3125.346 26106368 26178578 26250516 26321730 26392566 26463380 26534874 
3128.722 26607438 26680892 26754784 26828404 26900910 26971982 27041728 
3132.097 27110814 27179944 27249792 27320780 27392874 27465298 27537840 
3135.472 27609582 27680592 27750664 27819932 27888682 27957620 28026710 
3138.847 28096622 28167750 28240126 28314106 28389372 28465712 28542456 
3142.223 28619212 28695592 28771242 28846482 28921414 28996076 29070362 
3145.598 29144130 29216812 29288052 29357954 29426808 29495316 29564224 
3148.973 29634316 29706120 29779640 29854556 29930624 30007378 30084180 
3152.348 30160890 30237400 30313638 30389678 30465234 30540234 30614854 
3155.724 30688778 30761860 30834634 30907314 30980256 31054028 31128880 
3159.099 31204812 31281150 31357184 31431872 31504762 31575448 31644546 
3162.474 31712730 31781312 31851228 31922866 31995940 32069564 32142312 
3165.849 32212890 32280446 32344658 32405776 32464650 32522534 32580674 
3169.225 32640216 32702052 32766610 32833646 32902446 32972076 33041324 
3172.600 33109334 33175562 33240050 33303082 33364940 33425770 33485286 
3175.975 33542946 33598500 33651776 33703300 33754292 33805936 33859376 
3179.350 33915332 33973696 34034004 34095320 34157148 34219060 34281084 
3182.726 34343044 34404588 34465312 34524360 34581372 34636272 34689636 
3186.101 34742288 34795376 34849264 34903624 34957596 35009920 35060132 
3189.476 35108376 35155620 35203800 35254716 35309776 35368868 35431344 
3192.851 35495448 35559204 35620772 35678972 35733180 35783192 35829212 
3196.227 35871852 35911944 35950384 35988540 36027740 36069072 36113176 
3199.602 36160604 36211092 36264180 36319368 36375676 36432172 36487992 
3202.977 36541872 36592732 36640064 36683832 36724864 36764852 36805680 
3206.352 36849100 36895996 36946136 36998560 37051308 37102700 37151532 
3209.728 37197480 37241340 37283904 37326508 37370024 37414984 37461176 
3213.103 37508496 37556504 37605240 37654672 37704612 37754992 37805384 
3216.478 37854908 37902916 37948624 37992052 38033680 38074512 38116000 
3219.853 38159448 38205864 38255436 38307688 38361760 38415876 38468908 
3223.229 38520208 38569020 38615700 38660644 38704144 38746820 38789168 
3226.604 38831668 38874932 38919832 38967384 39017944 39071996 39129064 
3229.979 39188312 39248620 39309228 39369192 39428220 39486276 39543068 
3233.354 39598604 39652544 39704388 39754272 39802496 39849636 39896740 
3236.729 39944580 39993588 40043652 40094236 40145220 40196212 40247608 
3240.105 40300068 40354096 40410312 40468136 40526808 40585120 40641948 
3243.480 40696636 40749260 40800032 40850188 40900572 40951800 41004452 
3246.855 41058932 41114840 41172468 41231412 41291492 41352720 41414788 
3250.230 41477812 41541392 41605532 41669860 41733688 41796544 41857508 
3253.606 41915888 41971468 42024280 42074912 42124232 42173048 42222088 
3256.981 42271348 42321096 42370880 42420636 42470292 42519584 42568624 
3260.356 42617052 42664568 42711036 42756076 42799988 42842808 42884868 
3263.731 42926636 42968076 43009524 43050868 43092320 43133964 43175972 
3267.107 43218172 43260264 43301336 43341096 43379136 43416304 43454092 
3270.482 43494268 43538256 43586972 43639436 43694028 43748184 43799712 
3273.857 43847724 43892044 43934388 43976808 44021024 44068548 44119564 
3277.232 44173628 44230492 44289376 44350288 44413080 44477384 44542692 
3280.608 44608044 44672532 44735588 44797296 44858576 44920560 44984388 
3283.983 45051352 45121820 45195864 45273744 45355396 45440808 45530324 
3287.358 45623796 45720936 45821112 45923816 46028352 46134352 46241776 
3290.733 46350700 46461240 46573132 46686900 46802948 46922016 47045404 
3294.109 47174512 47310088 47452396 47600964 47754276 47911012 48070024 
3297.484 48230872 48393816 48559304 48727708 48898924 49072508 49247460 
3300.859 49423036 49598796 49775260 49953020 50133160 50316240 50503120 
3304.234 50694624 50891388 51094504 51305172 51523964 51751152 51985820 
3307.610 52226328 52470372 52716200 52962208 53208088 53454072 53700944 
3310.985 53949420 54199804 54452208 54706900 54964004 55224000 55487468 
3314.360 55754792 56025972 56300260 56576688 56853704 57130260 57405172 
3317.735 57677988 57948440 58216292 58481888 58745444 59006920 59266424 
3321.111 59524152 59779024 60030660 60277612 60519252 60754968 60985516 
3324.486 61211836 61435332 61656884 61875836 62091072 62300376 62501280 
3327.861 62692032 62871976 63040972 63199720 63349016 63488512 63618116 
3331.236 63736780 63843548 63937744 64018676 64085916 64138680 64175940 
3334.612 64197100 64201408 64189768 64163224 64124048 64074316 64014876 
3337.987 63945272 63864232 63769208 63657320 63526712 63375972 63204856 
3341.362 63013888 62803820 62576248 62332424 62073836 61802252 61518968 
3344.737 61224768 60919708 60603284 60274416 59932440 59576940 59208664 
3348.113 58828868 58439468 58042468 57639392 57231592 56819788 56404456 
3351.488 55986012 55565000 55141532 54716376 54290016 53863476 53438068 
3354.863 53015476 52597552 52186084 51782396 51387032 51000256 50621760 
3358.238 50251328 49888900 49534580 49188672 48851348 48522328 48200808 
3361.614 47885668 47575896 47270780 46970452 46675464 46387164 46106940 
3364.989 45835916 45575144 45324572 45083848 44851924 44627216 44408420 
3368.364 44193988 43982928 43774168 43567304 43361964 43157824 42953668 
3371.739 42748432 42541144 42330632 42116492 41898920 41678432 41455940 
3375.115 41231924 41006200 40778080 40547104 40312428 40074172 39832492 
3378.490 39588076 39340824 39090232 38835216 38573800 38304472 38026408 
3381.865 37739780 37445536 37145288 36840408 36532540 36222148 35909532 
3385.240 35594844 35278364 34960180 34640432 34319380 33996664 33672580 
3388.615 33347518 33022304 32698478 32378070 32062396 31752724 31449434 
3391.991 31152268 30860496 30573864 30292356 30015790 29744298 29477088 
3395.366 29212984 28950422 28687416 28422906 28156296 27888118 27619538 
3398.741 27351868 27086232 26823258 26563122 26305888 26051552 25800526 
3402.116 25553372 25310502 25071876 24837344 24605850 24376654 24148802 
3405.492 23921454 23694648 23468378 23242540 23017416 22792614 22567966 
3408.867 22343574 22120030 21898308 21679694 21465612 21256994 21054110 
3412.242 20856744 20663674 20473500 20285182 20097882 19911668 19727544 
3415.617 19546586 19370206 19199092 19033168 18871322 18712062 18553932 
3418.993 18395722 18237258 18079370 17923542 17771638 17624924 17483644 
3422.368 17347204 17214252 17082788 16951400 16819190 16686194 16552687 
3425.743 16419910 16288275 16158089 16029008 15900550 15771924 15642785 
3429.118 15512965 15383182 15254743 15128847 15006931 14890091 14778389 
3432.494 14671616 14568879 14468702 14369575 14270266 14169780 14067744 
3435.869 13964294 13859980 13755485 13651905 13549614 13449432 13351630 
3439.244 13256345 13163505 13072837 12983962 12896199 12809203 12722157 
3442.619 12634547 12546240 12456928 12366475 12275018 12182695 12089369 
3445.995 11995314 11900564 11805323 11710105 11615416 11522144 11431205 
3449.370 11343516 11259823 11180635 11105675 11034331 10965582 10897964 
3452.745 10830323 10761470 10690964 10618499 10544180 10468313 10390964 
3456.120 10312511 10233358 10154153 10075606 9998871 9924794 9853711 9785893 
3459.978 9720357 9656287 9592091 9527193 9461018 9393838 9326634 9259576 
3463.835 9193374 9127961 9062760 8997231 8930967 8864038 8796983 8730615 
3467.693 8666252 8604669 8546576 8491734 8439839 8389976 8340896 8291754 
3471.550 8241807 8191156 8140039 8089469 8040287 7993238 7948758 7906544 
3475.407 7866055 7826547 7787414 7748387 7709463 7670779 7632673 7595041 
3479.265 7557177 7518405 7478424 7437368 7396046 7356008 7318973 7286289 
3483.122 7258491 7234873 7213716 7192930 7170563 7145030 7115962 7083898 
3486.980 7049917 7015973 6983748 6954557 6929239 6907625 6889345 6873826 
3490.837 6860227 6848311 6838010 6830168 6825085 6823436 6824816 6828519 
3494.695 6833231 6837472 6840703 6843363 6847233 6854437 6867801 6888907 
3498.552 6918095 6954153 6994725 7036919 7078543 7118218 7156482 7194548 
3502.409 7234637 7278471 7326858 7379835 7437098 7497234 7560076 7624883 
3506.267 7692195 7762149 7835150 7911571 7991482 8074818 8161444 8250518 
3510.124 8341976 8434872 8528329 8621636 8714017 8804929 8894238 8981873 
3513.982 9067733 9151478 9232396 9309809 9383037 9451774 9516153 9577085 
3517.839 9635825 9692776 9748210 9801212 9849745 9891165 9922657 9941574 
3521.697 9945948 9934929 9908522 9867642 9814124 9750074 9677394 9597172 
3525.554 9509717 9414627 9311028 9198416 9077409 8949367 8816662 8681633 
3529.411 8546306 8411494 8276421 8139938 8000392 7856809 7708688 7556502 
3533.269 7401034 7242791 7082147 6919408 6754912 6589873 6426377 6267178 
3537.126 6115127 5972032 5838790 5715022 5598976 5488598 5381804 5276881 
3540.984 5172688 5068721 4964644 4860358 4755862 4650957 4545540 4440016 
3544.841 4334651 4230315 4127944 4029310 3935613 3848088 3767297 3692638 
3548.698 3622367 3553946 3484700 3412360 3335590 3254595 3170978 3087410 
3552.556 3006328 2929964 2859283 2794450 2734461 2678548 2625809 2575376 
3556.413 2526949 2479526 2432576 2384997 2336125 2285226 2232534 2178884 
3560.271 2125306 2072900 2023031 1976496 1934093 1895620 1860379 1827171 
3564.128 1793100 1755272 1710662 1656710 1593020 1521659 1447218 1375947 
3567.986 1313296 1262417 1223971 1195131 1171674 1149714 1125197 1096529 
3571.843 1063312 1026213 986891 946842 907129 868316 830669 794186 759300 
3576.183 726341 696372 669691 646727 627017 609928 594035 577711 559729 
3580.522 539093 515507 489400 462067 435035 409431 386249 365058 344664 
3584.862 322812 296750 264291 224110 176905 125264 73762 27170 -10702 -37704 
3589.684 -53839 -61194 -62883 -62751 -64076 -70304 -83357 -104359 -132615 
3594.023 -166367 -202699 -238234 -269428 -294329 -311911 -322671 -328532 
3597.881 -332240 -336279 -342735 -352734 -365414 -379384 -392560 -403120 
3601.738 -409774 -412587 -412025 -409376 -405702 -402027 -398916 -397625 
3605.595 -399181 -405238 -417354 -436487 -462172 -492423 -523467 -551265 
3609.453 -573105 -587996 -597393 -604573 -612845 -624657 -640737 -659595 
3613.310 -678254 -693670 -704255 -709945 -713386 -717686 -726220 -741403 
3617.168 -764325 -793828 -827628 -861193 -890293 -911488 -922432 -923093 
3621.025 -915025 -900841 -883382 -865195 -847933 -831861 -817012 -803121 
3624.883 -790256 -780367 -776828 -784203 -807884 -851074 -913372 -988191 
3628.740 -1062699 -1122686 -1157121 -1163631 -1147504 -1118423 -1086430 
3632.115 -1059096 -1041379 -1034470 -1036520 -1043924 -1052683 -1059525 
3635.490 -1062467 -1061740 -1058005 -1052783 -1047031 -1041346 -1035693 
3638.866 -1030504 -1026008 -1022835 -1022074 -1024488 -1029909 -1037445 
3642.241 -1045213 -1050469 -1051262 -1045709 -1034404 -1018769 -1002273 
3645.616 -988455 -981612 -985348 -1002141 -1032388 -1075060 -1127213 
3648.991 -1184515 -1240818 -1289582 -1323905 -1338406 -1331238 -1303324 
3652.367 -1259815 -1207083 -1153552 -1106855 -1073143 -1056716 -1058005 
3655.742 -1074135 -1098130 -1122983 -1142184 -1152792 -1154477 -1149586 
3659.117 -1140994 -1131179 -1122686 -1116373 -1113135 -1112507 -1113465 
3662.492 -1114886 -1114721 -1111251 -1103418 -1090925 -1074796 -1056947 
3665.868 -1040652 -1028520 -1023893 -1029611 -1047891 -1080117 -1124999 
3669.243 -1178171 -1232393 -1276830 -1302498 -1304447 -1284428 -1249639 
3672.618 -1211214 -1181806 -1171892 -1188712 -1232393 -1294240 -1357135 
3675.993 -1403144 -1421176 -1411335 -1381775 -1343724 -1307355 -1278184 
3679.369 -1258031 -1244948 -1235796 -1227239 -1217227 -1205696 -1192776 
3682.744 -1179327 -1164754 -1148595 -1130221 -1110160 -1090958 -1076713 
3686.119 -1072218 -1082133 -1108640 -1150875 -1203779 -1259287 -1309502 
3689.494 -1348580 -1374178 -1386993 -1389338 -1383327 -1370479 -1352048 
3692.870 -1329322 -1304183 -1279010 -1256346 -1238109 -1225223 -1217161 
3696.245 -1212304 -1208603 -1204407 -1199087 -1193767 -1190463 -1191719 
3699.620 -1199649 -1215079 -1236919 -1262425 -1287401 -1307222 -1318388 
3702.995 -1319016 -1309237 -1290936 -1266522 -1238935 -1210454 -1182995 
3706.371 -1157980 -1136368 -1118423 -1105004 -1097172 -1095817 -1102360 
3709.746 -1118092 -1143275 -1176320 -1214022 -1251027 -1281488 -1300021 
3713.121 -1303721 -1292357 -1268934 -1238175 -1205233 -1174965 -1151371 
3716.496 -1136004 -1129064 -1129031 -1133195 -1139243 -1145456 -1150875 
3719.872 -1155865 -1161086 -1166473 -1171892 -1176023 -1177906 -1176684 
3723.247 -1172652 -1167497 -1163267 -1162012 -1165019 -1171430 -1179459 
3726.622 -1185506 -1186035 -1178997 -1163928 -1142614 -1118555 -1095750 
3729.997 -1078167 -1068516 -1067326 -1073408 -1083984 -1095883 -1107020 
3733.373 -1117662 -1129659 -1145819 -1166770 -1191124 -1214254 -1230741 
3736.748 -1235598 -1227140 -1207348 -1180385 -1149950 -1119150 -1088942 
3740.123 -1059195 -1030008 -1003166 -982967 -976190 -990934 -1032818 
3743.498 -1100675 -1182995 -1259188 -1306727 -1313598 -1282578 -1227701 
3746.874 -1165845 -1112077 -1077903 -1068747 -1084811 -1120604 -1167332 
3750.249 -1215509 -1257073 -1287666 -1304811 -1307024 -1293909 -1265696 
3753.624 -1224992 -1176684 -1127015 -1082332 -1047593 -1025413 -1016389 
3756.999 -1018240 -1027859 -1042007 -1058534 -1076548 -1094792 -1111945 
3760.375 -1124933 -1130617 -1126817 -1113531 -1093305 -1070929 -1051560 
3763.750 -1038966 -1034933 -1037875 -1044023 -1049180 -1050171 -1047229 
3767.125 -1042635 -1040916 -1045114 -1057278 -1075887 -1097271 -1115812 
3770.500 -1127015 -1128040 -1118786 -1102030 -1080877 -1059096 -1039263 
3773.875 -1022934 -1010604 -1001612 -995265 -990703 -988025 -987926 -991596 
3777.733 -1000389 -1014538 -1032652 -1051923 -1067822 -1076415 -1075589 
3781.108 -1065806 -1049841 -1032189 -1016852 -1006670 -1002703 -1003695 
3784.483 -1007100 -1010174 -1010769 -1008158 -1003067 -996554 -989844 
3787.859 -983695 -978207 -973248 -968719 -964619 -961181 -958470 -956056 
3791.716 -953478 -950304 -947130 -945146 -946700 -954304 -969578 -992224 
3795.573 -1019066 -1044684 -1062699 -1068384 -1060550 -1042370 -1020455 
3798.949 -1003430 -999794 -1015265 -1050171 -1098031 -1146579 -1180715 
3802.324 -1189339 -1169976 -1128568 -1076779 -1026967 -991596 -977612 
3805.699 -988025 -1018306 -1058600 -1095519 -1117828 -1119844 -1103055 
3809.074 -1073672 -1038404 -1002736 -969843 -939889 -912050 -885829 -862086 
3812.932 -843634 -835102 -840492 -862285 -898757 -943658 -985909 -1014736 
3816.789 -1022736 -1009579 -981248 -947130 -918133 -903717 -910231 -939096 
3820.647 -985381 -1037710 -1081505 -1106095 -1106756 -1086628 -1053741 
3824.022 -1017678 -987033 -966801 -958338 -958635 -962669 -964024 -958635 
3827.879 -946039 -928945 -911818 -899320 -894459 -897402 -905999 -916083 
3831.737 -923159 -924349 -918299 -905900 -889565 -872403 -857787 -848759 
3835.594 -848164 -857523 -877231 -904808 -935922 -964222 -983496 -990505 
3839.452 -985017 -970504 -951957 -935426 -925044 -923258 -929970 -942898 
3843.309 -958734 -973578 -984455 -989050 -986273 -976422 -959924 -938170 
3847.167 -912281 -883415 -852629 -820947 -789991 -762241 -741304 -732902 
3851.024 -744049 -781458 -849685 -946336 -1059724 -1168224 -1249210 -1288558 
3854.881 -1285551 -1250036 -1195618 -1135277 -1076812 -1025049 -981149 
3858.257 -944881 -915191 -891483 -873230 -860466 -853191 -850876 -852827 
3862.114 -858713 -868336 -881398 -897534 -914662 -928879 -935558 -930698 
3865.971 -913075 -885630 -854844 -829480 -817541 -824651 -850777 -889764 
3869.829 -930235 -959627 -971033 -964850 -947890 -929507 -918200 -918299 
3873.686 -929309 -945410 -958701 -962140 -952023 -929540 -899287 -868171 
3877.544 -842741 -828554 -828388 -842179 -866484 -894988 -920084 -935029 
3881.401 -936153 -923556 -901899 -877793 -858812 -851537 -859077 -880207 
3885.259 -908115 -932913 -944650 -937343 -911058 -871478 -827727 -788437 
3889.116 -761415 -751227 -759033 -781624 -812514 -844295 -869923 -884771 
3892.973 -887449 -878984 -861723 -838144 -811092 -782616 -754965 -730454 
3896.831 -710805 -698268 -693769 -697805 -709581 -727312 -748449 -770610 
3900.688 -792273 -812481 -831795 -851008 -870750 -890689 -909471 -924812 
3904.546 -934368 -936417 -930598 -917737 -900014 -879844 -859705 -841782 
3908.403 -826900 -816185 -809736 -807057 -807090 -809074 -811092 -811919 
3912.260 -810397 -806363 -800443 -794026 -788900 -786849 -788536 -793663 
3916.118 -800443 -806892 -810662 -810464 -806429 -799351 -791116 -782847 
3919.975 -775174 -768096 -761150 -754502 -748019 -743057 -740543 -741006 
3923.833 -744248 -748713 -751889 -751392 -745339 -733762 -717851 -700584 
3927.690 -684771 -673390 -667899 -668957 -675772 -686689 -699955 -713849 
3931.548 -727147 -738625 -747522 -753542 -756189 -755527 -751855 -745902 
3935.405 -738095 -729264 -719604 -709218 -698202 -686458 -674846 -663929 
3939.262 -655294 -650430 -650298 -655360 -664822 -676996 -689733 -700054 
3943.120 -706075 -706670 -701940 -693339 -683117 -673820 -667667 -666410 
3946.977 -670711 -680007 -692975 -707663 -722085 -734424 -743322 -748382 
3950.835 -749672 -747556 -742693 -735945 -727709 -719042 -710706 -703230 
3954.692 -696845 -691784 -687616 -683844 -680205 -676699 -673655 -671836 
3958.550 -672299 -675309 -680669 -687086 -692776 -695919 -695059 -689898 
3962.407 -680768 -669321 -656750 -644376 -632697 -621447 -610694 -600073 
3966.264 -589849 -581047 -574594 -571120 -570723 -572840 -575852 -578367 
3970.122 -579194 -577804 -573966 -568605 -562086 -555104 -547956 -540742 
3973.979 -533229 -525618 -517609 -509567 -501856 -494508 -488286 -483653 
3977.837 -481005 -480839 -483289 -487823 -493516 -499374 -504173 -506953 
3981.694 -507912 -507184 -505993 -504934 -504901 -505397 -505893 -505529 
3985.552 -503511 -499837 -495170 -490669 -487691 -487426 -490007 -495435 
3989.409 -502783 -510957 -518900 -526048 -531840 -536373 -540014 -543058 
3993.266 -546103 -549677 -553979 -559141 -564733 -570094 -573932 -575223 
3997.124 -573039 -566950 -557486 -545474 -532601 -520621 -510990 -504934 
##END=
