
##TITLE=mdmaHCL00398_10
##JCAMP-DX=5.01  $$ Nicolet v. 1
##DATATYPE=INFRARED SPECTRUM
##ORIGIN=UniL
##OWNER=Nicolet
##LONGDATE=2011/08/24
##TIME=09:59:08
##SPECTROMETER/DATA SYSTEM=Nicolet iS5
##DATA PROCESSING=
Ratio against background
%Transmittance->Absorbance
Truncated
ElementMultiply or ElementDivide
##COMMENTS=
Number of sample scans: 32
Collection length: 51.17 sec
Sample gain: 2.0
Background collected on: Mer Aout 24 09:57:45 2011 (GMT+02:00);
Number of background scans: 32
Background gain: 2.0
Sample spacing:  1.000
Number of scan points: 12415
Resolution points: 8192
Number of FFT points: 65536
Apodization: N-B fort;
Phase correction: Mertz;
Laser frequency: 15798.0 cm-1
Number of rejected sample scans: 0
Number of rejected background scans: 0
Bench serial number: ASB1000141;
##RESOLUTION=4.000
##XUNITS=1/CM
##YUNITS=ABSORBANCE
##FIRSTX=649.893372
##LASTX=4000.122314
##FIRSTY=0.088635
##MAXX=4000.122314
##MINX=649.893372
##MAXY=0.219499
##MINY=0.001644
##XFACTOR=1.000000
##YFACTOR=1.000000E-009
##NPOINTS=6950
##DELTAX=0.482117
##ZPD=6100
##XYDATA=(X++(Y..Y))
649.893 88635464 87724352 86916680 86237184 85681912 85231920 84865264 
653.268 84569920 84343928 84188520 84099040 84059152 84042624 84023888 
656.643 83988904 83942272 83903648 83900192 83953608 84068800 84234416 
660.018 84427264 84623824 84807936 84974968 85128560 85276960 85426224 
663.393 85578728 85735032 85892968 86048584 86191648 86302736 86352048 
666.767 86303384 86136328 85867696 85561704 85299344 85139808 85095832 
670.142 85138280 85217008 85279632 85288656 85224144 85087816 84894712 
673.517 84661672 84395712 84090312 83730520 83305624 82818920 82290904 
676.892 81752296 81230808 80743096 80287600 79851440 79418712 78981960 
680.267 78543056 78111672 77694656 77290584 76886304 76463632 76006632 
683.642 75510992 74986472 74452784 73930360 73431672 72958448 72504056 
687.016 72060472 71625232 71203968 70808624 70450824 70136720 69862968 
690.391 69620320 69397848 69188992 68993312 68816672 68666176 68547008 
693.766 68461160 68407936 68388624 68407976 68475664 68601912 68792680 
697.141 69046680 69353616 69699008 70068776 70455376 70860032 71290568 
700.516 71755448 72258712 72795312 73352728 73914488 74464824 74993872 
703.890 75497352 75974144 76422856 76839680 77219296 77558248 77858456 
707.265 78128328 78379008 78621960 78862272 79097904 79322848 79532624 
710.640 79729960 79927464 80143472 80395120 80689832 81019128 81358176 
714.015 81670176 81919992 82079272 82135552 82092720 81967968 81787888 
717.390 81582216 81386312 81240872 81189216 81280864 81562232 82064256 
720.765 82793936 83720792 84775720 85846936 86803208 87515160 87871608 
724.139 87813936 87345160 86535008 85499728 84381952 83321768 82417752 
727.514 81723736 81243864 80948016 80788232 80718120 80706504 80735120 
730.889 80796736 80886464 80996408 81115248 81232240 81341760 81446816 
734.264 81557232 81684976 81837016 82012344 82202128 82394352 82579296 
737.639 82753248 82918928 83082784 83249672 83420320 83591480 83758480 
741.013 83919528 84077808 84240096 84412824 84598944 84795096 84993664 
744.388 85186328 85368272 85541640 85712952 85889008 86073544 86263456 
747.763 86452032 86631704 86799432 86958336 87116920 87283992 87463280 
751.138 87651320 87838472 88013896 88170480 88308672 88434528 88557736 
754.513 88685368 88818808 88954616 89087448 89214952 89339320 89466984 
757.888 89604368 89754680 89914904 90077464 90233320 90377928 90512952 
761.262 90646760 90790200 90952600 91139216 91350408 91584984 91845344 
764.637 92140192 92487592 92913608 93445536 94108760 94915832 95858000 
768.012 96894896 97951712 98924840 99684144 100107096 100103248 99637952 
771.387 98751568 97554536 96210536 94883672 93712576 92779344 92097472 
774.762 91625728 91290224 91017032 90743600 90429944 90053856 89595536 
778.136 89029480 88322560 87435840 86337584 85012568 83464568 81715528 
781.511 79799280 77758344 75637096 73482368 71344960 69272224 67306784 
784.886 65482096 63815416 62310856 60961876 59757468 58687032 57742964 
788.261 56921428 56219508 55632672 55154736 54777940 54496344 54307440 
791.636 54213880 54221464 54337216 54566744 54912828 55376116 55956768 
795.010 56656296 57479332 58433176 59526848 60770748 62177396 63762376 
798.385 65549248 67571960 69870752 72490480 75466208 78805616 82467984 
801.760 86344568 90258360 93945384 97094648 99396336 100567792 100438256 
805.135 98982688 96342920 92796128 88703128 84444528 80309640 76470544 
808.510 72959936 69698736 66546144 63363320 60073200 56676344 53251084 
811.885 49914772 46797564 44001924 41581608 39547244 37871860 36509688 
815.259 35406612 34513920 33791648 33205282 32728240 32338910 32019768 
818.634 31759280 31550046 31387244 31267088 31185518 31138100 31121582 
822.009 31134504 31178610 31256832 31372570 31527526 31720604 31949542 
825.384 32211606 32506104 32833896 33196914 33596536 34032604 34504196 
828.759 35012148 35562656 36169896 36857472 37659332 38614360 39765200 
832.133 41153632 42810484 44748188 46944612 49334236 51789636 54120752 
835.508 56105516 57493748 58068976 57700504 56365444 54168608 51311100 
838.883 48067356 44712412 41479816 38549576 36019604 33921672 32238010 
842.258 30921794 29913620 29152102 28584776 28165806 27856920 27630238 
845.633 27465264 27349326 27276182 27242418 27245066 27279992 27341598 
849.008 27424638 27526084 27645386 27784466 27944970 28127130 28328146 
852.382 28543552 28769012 29002950 29247006 29506948 29789506 30101190 
855.757 30447036 30830722 31256332 31729874 32259640 32856732 33533602 
859.132 34302956 35179764 36182752 37334344 38663400 40197264 41953404 
862.507 43926284 46075768 48321264 50535876 52570660 54270792 55496056 
865.882 56157964 56228632 55752304 54832560 53624088 52309180 51056304 
869.256 50018640 49310144 48996388 49106156 49632636 50544176 51785348 
872.631 53282888 54948964 56670340 58321064 59770584 60886504 61565240 
876.006 61743616 61408844 60601000 59404692 57937764 56321420 54672444 
879.381 53085860 51619148 50295148 49101776 48003960 46953396 45905736 
882.756 44834768 43737008 42634668 41566696 40581844 39724536 39025196 
886.131 38499464 38146932 37956868 37912828 37999536 38203800 38515536 
889.505 38926932 39431816 40025124 40704312 41470664 42329824 43290208 
892.880 44363240 45560572 46892156 48366704 49989344 51758920 53662328 
896.255 55667212 57718024 59726064 61579408 63155264 64328724 65004864 
899.630 65131224 64706788 63781216 62445656 60822580 59036680 57212236 
903.005 55458556 53855376 52459940 51304612 50400516 49745644 49330376 
906.379 49142368 49169636 49401836 49831296 50451240 51256368 52243480 
909.754 53410976 54760424 56293812 58011868 59908284 61966204 64152776 
913.129 66423812 68724672 70998368 73199720 75299560 77292176 79195112 
916.504 81047152 82900080 84804152 86799928 88898824 91071624 93233288 
919.879 95246072 96935736 98099408 98560200 98203336 97008056 95071208 
923.254 92604040 89925416 87390296 85367296 84186840 84065576 85092168 
926.628 87187912 90123744 93518560 96895224 99787440 101765768 102542224 
930.003 102011688 100237336 97416432 93803648 89671776 85245912 80688920 
933.378 76119568 71616600 67244192 63070552 59163784 55593956 52426776 
936.753 49709348 47472908 45731316 44483184 43715280 43401068 43500312 
940.128 43948904 44656408 45514872 46393024 47158740 47699764 47927664 
943.502 47798476 47314116 46520096 45493716 44327980 43123128 41962784 
946.877 40910328 40006524 39266864 38689440 38260248 37961024 37771476 
950.252 37672448 37647192 37679100 37752140 37852848 37969232 38094152 
953.627 38225292 38364220 38514924 38681468 38866668 39071780 39296532 
957.002 39541112 39805692 40090888 40396820 40722184 41064104 41418284 
960.377 41781220 42150992 42527916 42913868 43311588 43722204 44146008 
963.751 44581352 45027204 45483596 45952292 46435940 46936528 47454396 
967.126 47987420 48532884 49088088 49653064 50230644 50825864 51444208 
970.501 52089544 52763788 53466960 54199280 54962124 55759536 56597032 
973.876 57480280 58413084 59397132 60431848 61516716 62652028 63839860 
977.251 65083452 66385544 67747552 69170024 70653584 72201304 73820104 
980.625 75520936 77315648 79214512 81224088 83344240 85569568 87887920 
984.000 90282024 92723768 95168384 97554568 99795280 101783520 103411208 
987.375 104571728 105184456 105209192 104649216 103554752 102012944 
990.268 100147904 98099248 96007640 94012808 92226760 90731392 89576880 
993.643 88778728 88327312 88196008 88353792 88769704 89418000 90280144 
997.017 91339896 92581488 93989312 95545712 97232448 99031744 100920880 
1000.392 102869616 104836840 106763440 108578288 110207080 111575632 
1003.285 112628672 113335552 113695248 113735808 113512160 113104800 
1006.178 112604888 112113688 111734472 111553656 111642768 112049792 
1009.070 112796616 113885312 115302984 117030472 119044784 121322656 
1011.963 123841088 126572224 129485520 132551104 135739408 139028208 
1014.856 142400304 145834496 149296752 152726288 156023296 159060480 
1017.748 161691040 163769600 165191552 165908848 165951520 165423088 
1020.641 164502432 163423648 162429408 161771248 161664656 162259728 
1023.534 163645808 165836576 168784864 172390896 176527424 181060368 
1026.427 185845792 190748672 195637344 200370496 204812080 208829568 
1029.320 212302416 215142800 217294960 218735344 219464848 219499328 
1032.213 218863584 217587856 215712912 213290560 210377184 207033984 
1035.106 203316896 199272032 194943984 190380688 185640640 180804352 
1037.999 175965552 171223600 166681376 162425408 158525520 155034944 
1040.892 151982656 149373616 147180848 145342880 143755664 142275504 
1043.785 140746800 139008304 136929440 134440832 131539512 128295168 
1046.678 124827816 121298640 117875800 114707624 111923328 109610640 
1049.571 107816032 106551312 105795728 105506592 105624256 106086880 
1052.464 106833736 107807960 108962848 110253248 111629872 113039160 
1055.357 114413784 115675432 116746328 117548320 118015392 118102752 
1058.250 117786352 117069464 115982512 114587640 112974088 111248544 
1061.144 109536608 107959184 106623560 105621344 105014664 104840128 
1064.037 105110376 105815720 106924720 108381728 110113264 112021264 
1066.930 113988560 115898992 117636152 119101792 120229424 120977720 
1069.823 121332592 121298816 120893632 120140720 119066056 117698928 
1072.716 116068464 114204096 112137880 109904744 107546848 105120888 
1075.609 102693840 100345608 98166368 96239608 94642656 93438104 92664168 
1078.984 92337560 92448232 92961008 93809904 94899464 96115728 97320360 
1082.359 98374432 99161080 99593656 99640336 99326520 98734640 97984264 
1085.735 97214080 96572552 96186592 96158272 96558648 97418048 98729480 
1089.110 100446688 102494936 104769944 107149536 109515720 111751872 
1092.003 113758200 115460128 116797920 117730384 118231360 118287136 
1094.896 117898928 117083616 115876840 114329792 112507632 110491680 
1097.789 108367904 106224552 104146640 102197880 100415080 98798696 97312568 
1101.164 95887784 94436488 92878360 91151232 89231712 87139104 84934432 
1104.540 82708104 80559104 78591504 76894216 75532480 74551864 73972944 
1107.915 73795248 74001544 74561232 75434824 76573648 77927360 79442344 
1111.290 81059496 82719488 84355200 85892048 87258144 88381280 89200224 
1114.665 89674464 89783360 89529272 88932856 88030856 86869368 85498272 
1118.041 83972104 82341808 80650768 78935384 77219936 75518216 73837856 
1121.416 72182880 70559672 68979560 67457968 66014044 64667412 63433640 
1124.791 62324052 61345264 60500780 59793932 59229932 58816156 58562988 
1128.166 58480712 58576560 58852696 59302888 59912016 60652736 61488236 
1131.542 62373124 63252724 64073168 64786136 65355204 65765388 66024764 
1134.917 66165776 66236168 66294872 66402340 66606468 66941252 67418528 
1138.292 68027136 68732080 69478336 70200896 70824664 71277680 71501464 
1141.667 71449584 71095112 70428960 69456672 68196248 66675776 64934476 
1145.042 63017792 60977432 58870072 56747816 54659812 52648904 50747132 
1148.418 48978956 47361636 45904484 44611756 43483096 42514212 41697216 
1151.793 41022148 40478248 40054336 39740800 39530404 39417516 39398032 
1155.168 39468644 39625536 39865032 40183892 40579588 41051208 41599332 
1158.543 42224968 42928900 43710736 44568136 45497872 46494612 47550756 
1161.919 48656728 49797372 50951668 52094324 53192844 54212752 55120616 
1165.294 55883200 56471468 56862164 57036128 56982364 56698240 56191372 
1168.669 55478132 54583272 53538056 52374292 51124920 49821968 48493908 
1172.044 47167900 45869464 44619800 43438312 42340672 41337448 40436312 
1175.420 39641652 38955748 38379928 37915464 37563440 37325320 37202352 
1178.795 37195240 37305352 37534068 37884588 38361324 38969444 39714516 
1182.170 40601416 41632880 42810192 44131816 45592920 47181976 48877084 
1185.545 50644916 52433620 54175328 55794464 57205696 58329476 59102696 
1188.921 59479544 59442004 58999668 58190684 57073648 55722504 54221276 
1192.296 52647856 51072700 49556048 48141316 46861300 45739304 44789364 
1195.671 44019928 43433400 43025840 42785800 42693668 42723316 42839300 
1199.046 43000780 43165436 43286696 43320888 43230508 42984612 42566360 
1202.422 41973984 41223068 40343332 39374852 38364580 37355288 36384864 
1205.797 35482324 34665876 33945320 33324010 32801092 32372824 32033856 
1209.172 31778142 31598396 31487126 31438462 31447724 31512774 31633784 
1212.547 31811758 32047522 32340660 32689012 33088736 33535000 34021712 
1215.923 34541512 35085568 35642320 36199240 36742784 37260112 37741480 
1219.298 38180284 38572676 38917112 39213660 39463308 39668408 39834052 
1222.673 39968664 40083152 40192032 40309776 40449552 40622300 40834792 
1226.048 41089164 41383040 41710128 42060272 42420568 42778488 43123060 
1229.424 43448640 43756980 44058320 44370836 44716744 45121712 45611100 
1232.799 46206652 46929324 47797404 48827136 50033992 51430892 53026856 
1236.174 54826880 56830404 59032996 61425216 63994372 66722252 69582360 
1239.549 72541576 75558152 78584120 81574904 84490256 87299336 89982480 
1242.925 92526008 94918840 97147856 99194768 101034304 102635880 103959736 
1246.300 104960232 105588552 105792472 105527544 104763656 103488896 
1249.193 101713536 99465896 96789008 93731816 90348392 86699864 82850312 
1252.568 78873072 74849808 70859176 66980800 63286648 59832112 56661768 
1255.943 53803052 51266728 49049320 47132704 45488380 44076032 42849064 
1259.319 41758604 40752424 39784520 38817752 37825228 36794244 35724728 
1262.694 34627480 33519894 32423518 31360996 30351090 29409432 28547054 
1266.069 27768960 27076182 26465634 25931488 25466158 25061766 24711690 
1269.444 24410368 24154442 23941482 23769152 23635656 23538820 23477052 
1272.820 23450436 23460578 23510944 23606128 23749588 23943058 24184918 
1276.195 24468696 24782582 25109788 25427476 25708236 25925158 26052360 
1279.570 26071148 25974296 25766596 25464048 25089392 24669604 24229058 
1282.945 23786722 23356932 22948594 22567584 22219512 21909738 21644030 
1286.321 21427910 21265588 21160342 21114944 21132198 21216076 21371278 
1289.696 21601786 21910434 22296660 22757000 23283580 23864952 24485942 
1293.071 25125516 25757982 26354612 26883954 27319016 27641430 27845084 
1296.446 27937866 27940446 27883524 27800504 27724952 27687726 27712272 
1299.822 27816188 28009426 28292498 28655524 29076032 29523438 29956786 
1303.197 30333500 30616278 30774664 30791772 30664882 30404638 30032372 
1306.572 29576710 29071956 28551974 28047420 27584866 27181390 26846416 
1309.947 26581404 26382392 26243020 26157322 26121288 26132620 26189874 
1313.323 26290682 26431122 26605568 26808914 27036754 27287050 27559728 
1316.698 27855224 28174362 28516766 28882388 29271924 29687210 30131732 
1320.073 30608278 31116634 31651356 32200542 32746032 33263836 33729620 
1323.448 34118976 34412516 34599384 34679584 34666988 34587292 34478480 
1326.823 34384540 34346020 34398240 34561276 34838852 35218784 35679112 
1330.199 36194200 36739180 37296396 37855268 38410696 38961944 39510412 
1333.574 40058768 40610840 41171188 41744304 42332708 42935084 43544632 
1336.949 44149896 44734448 45279812 45768132 46182476 46509104 46738444 
1340.324 46865764 46892156 46824204 46674320 46458952 46196664 45909124 
1343.700 45616216 45336852 45087488 44880840 44725596 44627140 44585832 
1347.075 44596332 44645756 44714396 44774156 44792120 44737720 44584440 
1350.450 44317888 43938528 43463872 42926600 42370152 41848528 41414680 
1353.825 41115528 40988140 41050444 41299768 41710272 42239288 42830668 
1357.201 43422384 43958912 44392200 44686960 44824812 44802036 44632208 
1360.576 44342764 43978928 43598440 43262388 43033156 42956520 43051960 
1363.951 43308952 43688016 44129908 44559288 44899724 45079032 45034264 
1367.326 44727912 44152684 43338204 42343196 41247844 40137912 39082980 
1370.702 38135352 37323404 36654520 36123980 35722172 35442560 35282392 
1374.077 35242248 35321312 35511596 35797836 36160636 36580116 37042360 
1377.452 37541404 38078308 38660140 39298204 40008192 40808184 41720084 
1380.827 42765876 43959020 45294892 46737520 48219096 49634120 50852272 
1384.203 51743464 52178944 52059624 51336052 50029008 48245572 46163312 
1387.578 44010168 41993184 40255096 38864208 37816732 37065564 36542920 
1390.953 36182784 35925192 35717100 35516372 35285912 34997100 34635372 
1394.328 34201996 33715188 33201098 32684580 32178524 31683002 31189326 
1397.704 30689916 30186710 29696966 29250304 28879236 28609692 28451348 
1401.079 28398426 28434474 28540120 28698070 28895810 29126484 29387452 
1404.454 29677560 29994772 30335740 30695676 31070400 31457484 31857718 
1407.829 32274094 32710980 33171986 33658756 34170376 34704172 35257056 
1411.205 35825756 36407996 37000648 37599532 38198196 38789420 39366508 
1414.580 39926928 40472828 41011988 41555904 42117988 42712168 43350764 
1417.955 44043796 44795536 45598292 46431000 47258584 48040156 48733564 
1421.330 49304764 49733236 50012244 50155812 50198060 50192968 50198952 
1424.706 50264124 50415548 50653332 50960200 51312032 51690164 52084352 
1428.081 52493032 52920584 53375308 53869368 54418408 55045384 55777584 
1431.456 56637384 57637956 58774616 60028268 61367360 62761284 64189076 
1434.831 65638960 67111688 68612704 70146024 71704560 73272560 74831976 
1438.207 76364104 77849496 79262152 80568872 81720256 82654712 83311208 
1441.582 83627104 83548416 83036528 82066296 80635128 78767288 76522040 
1444.957 73988384 71271312 68491224 65760112 63175656 60821208 58750868 
1448.332 56984704 55502756 54255664 53179700 52217324 51339332 50550804 
1451.708 49889536 49404100 49134984 49089680 49235584 49497892 49771172 
1455.083 49940792 49891320 49550664 48928220 48137872 47354576 46736304 
1458.458 46379420 46307864 46506268 46947416 47602184 48438820 49414684 
1461.833 50478408 51560080 52572344 53426752 54038984 54356704 54379124 
1465.208 54161440 53795928 53374372 52973396 52638768 52389396 52227972 
1468.584 52143976 52117040 52114460 52092496 52000684 51787844 51423132 
1471.959 50913404 50314268 49710944 49190456 48810972 48591988 48528144 
1475.334 48606068 48815828 49154204 49617812 50196424 50865760 51588440 
1478.709 52321664 53019816 53646056 54178596 54612732 54963440 55259300 
1482.085 55539356 55843292 56210040 56681024 57298540 58107460 59150496 
1485.460 60455116 62020932 63802676 65711996 67606184 69299232 70592104 
1488.835 71278576 71191240 70247800 68474536 66013112 63073844 59886644 
1492.210 56635384 53431584 50334620 47358564 44504844 41792564 39265124 
1495.586 36995528 35072096 33566964 32514426 31902432 31688672 31817642 
1498.961 32236584 32903482 33781868 34836088 36030480 37322788 38666876 
1502.336 40017096 41315656 42494556 43468996 44116004 44280276 43787768 
1505.711 42499304 40406824 37699700 34724664 31817500 29178714 26852266 
1509.087 24790476 22924386 21204038 19608006 18141794 16823150 15665010 
1512.462 14670245 13827483 13117332 12517320 12007236 11569612 11187809 
1515.837 10847241 10537832 10257005 10010738 9809921 9662588 9567228 9510226 
1519.695 9466776 9411072 9326668 9218656 9114459 9051155 9053524 9122039 
1523.552 9237203 9370646 9499083 9609739 9705923 9801652 9915098 10057430 
1527.409 10228372 10418624 10617854 10820913 11030083 11253431 11498566 
1530.785 11768010 12057208 12355191 12650512 12937876 13223005 13521618 
1534.160 13848554 14210827 14601192 15004325 15398974 15765635 16090415 
1537.535 16361794 16573444 16722417 16808926 16835274 16807582 16737603 
1540.910 16640987 16533446 16424108 16311014 16181819 16017010 15800476 
1544.286 15526392 15206083 14863928 14529717 14224728 13952969 13703094 
1547.661 13454524 13188883 12898485 12592046 12290493 12019737 11796335 
1551.036 11621032 11481384 11359535 11242006 11124915 11015673 10928510 
1554.411 10876220 10862732 10880433 10911555 10933946 10920287 10840515 
1557.787 10667430 10387944 10023996 9635418 9295794 9051561 8908374 8844864 
1561.644 8828971 8830594 8823459 8790526 8725612 8634581 8533398 8442237 
1565.501 8377241 8343057 8332925 8331573 8323467 8296617 8247716 8182310 
1569.359 8113538 8056523 8022432 8016863 8040523 8091021 8164348 8254774 
1573.216 8353359 8446967 8519813 8557863 8554146 8516637 8466799 8433419 
1577.074 8435852 8477543 8547455 8629308 8707796 8772741 8820788 8852642 
1580.931 8870835 8877633 8874014 8860420 8838473 8812266 8787720 8770780 
1584.789 8764931 8769224 8779503 8789680 8795428 8796544 8796713 8801176 
1588.646 8814904 8839961 8875705 8920482 8973755 9037386 9114730 9208637 
1592.503 9318035 9437720 9558016 9669398 9764747 9842763 9907098 9965102 
1596.361 10024199 10089239 10162972 10246826 10343456 10458503 10599826 
1599.736 10775838 10993618 11256627 11565324 11918306 12314319 12751603 
1603.111 13226080 13729631 14246195 14751718 15218916 15617643 15921138 
1606.487 16110944 16177176 16121808 15956232 15700119 15376935 15009812 
1609.862 14622096 14234724 13866411 13533411 13246131 13007793 12813673 
1613.237 12652423 12508487 12364191 12204709 12018885 11805255 11573865 
1616.612 11347019 11152995 11014212 10941931 10934014 10978359 11057375 
1619.988 11152689 11248160 11331680 11398957 11454269 11510406 11583768 
1623.363 11687775 11828442 12002943 12202596 12418023 12643485 12875583 
1626.738 13112722 13352758 13591492 13823515 14044642 14254138 14455445 
1630.113 14654481 14856659 15063734 15272624 15474334 15655838 15802952 
1633.489 15900446 15936192 15904570 15811507 15676174 15527971 15396502 
1636.864 15299051 15237927 15202754 15177396 15144355 15089016 15003742 
1640.239 14888890 14753398 14610479 14474663 14354951 14251946 14158106 
1643.614 14059975 13941472 13787532 13589030 13346096 13072256 12792379 
1646.990 12537509 12336681 12207163 12152061 12162726 12222805 12310228 
1650.365 12395998 12446937 12420649 12276279 11995654 11613613 11221944 
1653.740 10918078 10749685 10701457 10728253 10783990 10836676 10870139 
1657.115 10878938 10865892 10837559 10800668 10758753 10711850 10656734 
1660.490 10588858 10503885 10400263 10279701 10148522 10016909 9896217 
1663.866 9796297 9723000 9676242 9650765 9637112 9623324 9595749 9542468 
1667.723 9455262 9332626 9181157 9014619 8851255 8707526 8593821 8512954 
1671.581 8460752 8427170 8398218 8358291 8291214 8185078 8038600 7864772 
1675.438 7690104 7542645 7441345 7387620 7369488 7367803 7365141 7352133 
1679.295 7328577 7302226 7284469 7282178 7292960 7303372 7289894 7227798 
1683.153 7100065 6912001 6696427 6502820 6370558 6308763 6302543 6326581 
1687.010 6358992 6384109 6394331 6387942 6367331 6336869 6302476 6271380 
1690.868 6250908 6246975 6262371 6294172 6333439 6364943 6371164 6336936 
1694.725 6257799 6146515 6033478 5954262 5929573 5956580 6012379 6066236 
1698.583 6084280 6041037 5930614 5774786 5619887 5510578 5468432 5484638 
1702.440 5535176 5592498 5634925 5649258 5630125 5581892 5516517 5449843 
1706.297 5395123 5358624 5339805 5333130 5331520 5329474 5324510 5317466 
1710.155 5311864 5311327 5318539 5334002 5355605 5380093 5404181 5425351 
1714.012 5442261 5454038 5458164 5450213 5423841 5373988 5301365 5215777 
1717.870 5135202 5080152 5064162 5089338 5147808 5226475 5310925 5390158 
1721.727 5458500 5514772 5562125 5605554 5650097 5698438 5751148 5807291 
1725.584 5865052 5923157 5979624 6032268 6078400 6115396 6142347 6161066 
1729.442 6176559 6194608 6218875 6247580 6271414 6274002 6234538 6136433 
1733.299 5976735 5776969 5577731 5424545 5343328 5332325 5370835 5431759 
1737.157 5492021 5533800 5548398 5535209 5502054 5461251 5424982 5401933 
1741.014 5394486 5400558 5416191 5437496 5461386 5485578 5508900 5530276 
1744.872 5548633 5563433 5574274 5581053 5583571 5581490 5573603 5557862 
1748.729 5531450 5490913 5433973 5360838 5275372 5186134 5104357 5040227 
1752.586 5000037 4983849 4986496 4997859 5006573 5002350 4978754 4936358 
1756.444 4882239 4828594 4787453 4765008 4760452 4766080 4771272 4764941 
1760.301 4739884 4694631 4634111 4568577 4509381 4466261 4443731 4441187 
1764.159 4453941 4475467 4498567 4515976 4522840 4517047 4501111 4481124 
1768.016 4465759 4461775 4471215 4489293 4505631 4508075 4486079 4436568 
1771.874 4366211 4291448 4230349 4195754 4190301 4207397 4236706 4268326 
1775.731 4296501 4320160 4340574 4359483 4377256 4391313 4397974 4394727 
1779.588 4381574 4362563 4344323 4333379 4332676 4341110 4353727 4364370 
1783.446 4368420 4364069 4353125 4340072 4330033 4326351 4331271 4345260 
1787.303 4367817 4398041 4434727 4474596 4512427 4540954 4552672 4541556 
1791.161 4506535 4452937 4391882 4336090 4295898 4274985 4271438 4279368 
1795.018 4292719 4307578 4322168 4336291 4350682 4364738 4376453 4383381 
1798.875 4383012 4374411 4358680 4339269 4319725 4303863 4294292 4291381 
1802.733 4294828 4303662 4316345 4331739 4348239 4364671 4379532 4392418 
1806.590 4402928 4411429 4418258 4423480 4426526 4426158 4421505 4412200 
1810.448 4399447 4385723 4374277 4367951 4368185 4374311 4385054 4397673 
1814.305 4409856 4420702 4430108 4439011 4448753 4460972 4476203 4495186 
1818.163 4517282 4541623 4567506 4593892 4620247 4646737 4673228 4699689 
1822.020 4725145 4747588 4764338 4773148 4773583 4767955 4762194 4763902 
1825.877 4779078 4809866 4852920 4900267 4941084 4965281 4967459 4949127 
1829.735 4919200 4890314 4875034 4880195 4905494 4945139 4991323 5037747 
1833.592 5080722 5119913 5156727 5192908 5229192 5264774 5298649 5330749 
1837.450 5363052 5399920 5446388 5506920 5583369 5674502 5775626 5880098 
1841.307 5981035 6071041 6144767 6199414 6236387 6261766 6285062 6317302 
1845.165 6365414 6430816 6508404 6588663 6660558 6714160 6743672 6748384 
1849.022 6732130 6700936 6660525 6614365 6562054 6501542 6430581 6348603 
1852.879 6258405 6164965 6073091 5986847 5907505 5833786 5763538 5695953 
1856.737 5630863 5569843 5514537 5465177 5420352 5377913 5335008 5290498 
1860.594 5245054 5200687 5159846 5124305 5094668 5070900 5052931 5041199 
1864.452 5036607 5039590 5048171 5058228 5063625 5057725 5036037 4999267 
1868.309 4953216 4907237 4871248 4851914 4849937 4861765 4881066 4902110 
1872.167 4921010 4936492 4948591 4957975 4964577 4967493 4966018 4959684 
1876.024 4948892 4934783 4919100 4902076 4883914 4863943 4842030 4818811 
1879.881 4796298 4776431 4760921 4749699 4741358 4733352 4723772 4712349 
1883.739 4700459 4690913 4686056 4686391 4690779 4695568 4696406 4690210 
1887.596 4675372 4652765 4625236 4597341 4574002 4559369 4556624 4566836 
1891.454 4589037 4620012 4654607 4687028 4711881 4725145 4726385 4718211 
1895.311 4704780 4690913 4679659 4671688 4665391 4658961 4651459 4643589 
1899.168 4637895 4635886 4638766 4645397 4652698 4657554 4658559 4655578 
1903.026 4650990 4647741 4647406 4650153 4654942 4659798 4663884 4667803 
1906.883 4672994 4680061 4689372 4698014 4702770 4700961 4692353 4679090 
1910.741 4666296 4659129 4660635 4671554 4689506 4710943 4733084 4753718 
1914.598 4771507 4785878 4794756 4795359 4784873 4763500 4733754 4702971 
1918.456 4679659 4669745 4674870 4690344 4708732 4721561 4723939 4715733 
1922.313 4702167 4691147 4688535 4697578 4715766 4737840 4757805 4772143 
1926.170 4780016 4783433 4785075 4786515 4787520 4786984 4783098 4775393 
1930.028 4764840 4753182 4741894 4731610 4721795 4712015 4703540 4697913 
1933.885 4697612 4704411 4716537 4730136 4740085 4742262 4735797 4723872 
1937.743 4712751 4708632 4714527 4729566 4748325 4764438 4773148 4773416 
1941.600 4768592 4764371 4765343 4773215 4785912 4799413 4810435 4818878 
1945.458 4827254 4839517 4859152 4886092 4917022 4946848 4970141 4983681 
1949.315 4987435 4982642 4972018 4957673 4940011 4919703 4898558 4878854 
1953.172 4864245 4857477 4859386 4866825 4875906 4880463 4876240 4863072 
1957.030 4842064 4816902 4790602 4765644 4741525 4719652 4700258 4684784 
1960.887 4676109 4674367 4676578 4678487 4673697 4657454 4629724 4594595 
1964.745 4558431 4528565 4509146 4500475 4499538 4502316 4505698 4508979 
1968.602 4513331 4517751 4521233 4519793 4509849 4491436 4469575 4451933 
1972.459 4448552 4465624 4502551 4551701 4603201 4648077 4684851 4719719 
1976.317 4763534 4826685 4913068 5016495 5122930 5217354 5286809 5326388 
1980.174 5338866 5331084 5311595 5286776 5260951 5235630 5212659 5193880 
1984.032 5181037 5175069 5174968 5176510 5174868 5166652 5150893 5130642 
1987.889 5110660 5095238 5086958 5085047 5086857 5090310 5095205 5103418 
1991.747 5118237 5141271 5170777 5201157 5225737 5238649 5238011 5226576 
1995.604 5209540 5192841 5181071 5174599 5171481 5169570 5167893 5166854 
1999.461 5169737 5178254 5191566 5207025 5219533 5223356 5217253 5202029 
2003.319 5181339 5160181 5142243 5128731 5120014 5115186 5114549 5120685 
2007.176 5135470 5158706 5188749 5220539 5247771 5267591 5280604 5290431 
2011.034 5303713 5325214 5356007 5393311 5431792 5465345 5490242 5506282 
2014.891 5514269 5517390 5517692 5515376 5511685 5507390 5504873 5507323 
2018.749 5517490 5535679 5559339 5585181 5608978 5630058 5651003 5675811 
2022.606 5708711 5751820 5802186 5854372 5902870 5943781 5976970 6004954 
2026.463 6030017 6053166 6071848 6082062 6080047 6066203 6045069 6024339 
2030.321 6012144 6014126 6031160 6060659 6098930 6144364 6197532 6261934 
2034.178 6338180 6424292 6512574 6591825 6652585 6689730 6703796 6701474 
2038.036 6691952 6682160 6675767 6672873 6669878 6664159 6655949 6646259 
2041.893 6637915 6633642 6632633 6632734 6632465 6630715 6629033 6631186 
2045.750 6641280 6661736 6693297 6734822 6784495 6841511 6904494 6971964 
2049.608 7040051 7102153 7150352 7179287 7187540 7179253 7164230 7154360 
2053.465 7158234 7180096 7216445 7258356 7296330 7323118 7337339 7343000 
2057.323 7346370 7352739 7365040 7381284 7397528 7410269 7418223 7422537 
2061.180 7426582 7433154 7442794 7454221 7464906 7472019 7475997 7478323 
2065.038 7481390 7486582 7493593 7499493 7501010 7496358 7485874 7472255 
2068.895 7459648 7450412 7445558 7443199 7440064 7433154 7422301 7408482 
2072.752 7395068 7384620 7379093 7378621 7382295 7389339 7399820 7414717 
2076.610 7435042 7460592 7489616 7518607 7544331 7564897 7580643 7593962 
2080.467 7608664 7628187 7653715 7684910 7719615 7754424 7787110 7815920 
2084.325 7839705 7857788 7869866 7875164 7873848 7867032 7855696 7841593 
2088.182 7826176 7809004 7789371 7765927 7738200 7707305 7675939 7647915 
2092.040 7626872 7615070 7612946 7618948 7631695 7649163 7670341 7694792 
2095.897 7721167 7747847 7772403 7792373 7806238 7815482 7822431 7830494 
2099.754 7842977 7860724 7882857 7906982 7930974 7953989 7976768 8001034 
2103.612 8028102 8058244 8089604 8119715 8146386 8169277 8189062 8208005 
2107.469 8228197 8249878 8272267 8293409 8312051 8328770 8345929 8366364 
2111.327 8392408 8423791 8457441 8488490 8512380 8526267 8530796 8528870 
2115.184 8525017 8523091 8525828 8533127 8544481 8559518 8578173 8601830 
2119.042 8631708 8668077 8709318 8752455 8793704 8829986 8860048 8884430 
2122.899 8904790 8923053 8940506 8957756 8974634 8991413 9008394 9026763 
2126.756 9047705 9071218 9097271 9124780 9152595 9180210 9208130 9236323 
2130.614 9265466 9295185 9323959 9349959 9372677 9392044 9410226 9430237 
2134.471 9453975 9482150 9513883 9546635 9577559 9605506 9630032 9651477 
2138.329 9671160 9687931 9700671 9708024 9708802 9703415 9694301 9683933 
2142.186 9673701 9664079 9652459 9635486 9611230 9579084 9540640 9500369 
2146.043 9461933 9427426 9397190 9369088 9340412 9309200 9274029 9234969 
2149.901 9192121 9145116 9092195 9032176 8964994 8890416 8811185 8729060 
2153.758 8643470 8553031 8455515 8347719 8233296 8121707 8027360 7968905 
2157.616 7962054 8012205 8113099 8246601 8387814 8512110 8602642 8651041 
2161.473 8658782 8632924 8583682 8522314 8459197 8401225 8354542 8321204 
2165.331 8299521 8284695 8271118 8252443 8224720 8188016 8144664 8098515 
2169.188 8052708 8008324 7964113 7917679 7866459 7809510 7748960 7688890 
2173.045 7633381 7587016 7552591 7530239 7519619 7518068 7521102 7523496 
2176.903 7519012 7501179 7466491 7415088 7351492 7284233 7223991 7177502 
2180.760 7148297 7133880 7126976 7119060 7105352 7084437 7060054 7037727 
2184.618 7022203 7014256 7011899 7010383 7004962 6995433 6983748 6974994 
2188.475 6974220 6984018 7003851 7030891 7060795 7089354 7115793 7139303 
2192.333 7159750 7177064 7189696 7196131 7195727 7189225 7179321 7169720 
2196.190 7164196 7164465 7171034 7183296 7198893 7216950 7236322 7255762 
2200.047 7274192 7289725 7300238 7304551 7303237 7297745 7291679 7287737 
2203.905 7287265 7290231 7295757 7301788 7307853 7314963 7323623 7334373 
2207.762 7347010 7359041 7368039 7373195 7374914 7376902 7383138 7397259 
2211.620 7419470 7447682 7476334 7499931 7515000 7520327 7517057 7507685 
2215.477 7493762 7475829 7453480 7426885 7397158 7368444 7345528 7331947 
2219.334 7329318 7335418 7345022 7353009 7355671 7352369 7346201 7341787 
2223.192 7341922 7347617 7356952 7365680 7369926 7368477 7361973 7353380 
2227.049 7346033 7341551 7340001 7339833 7339259 7337339 7334542 7332217 
2230.907 7332048 7335081 7340708 7348190 7356649 7366152 7376633 7389541 
2234.764 7405112 7422436 7440974 7459581 7477682 7496358 7516922 7539847 
2238.622 7565572 7592107 7616689 7637360 7652535 7662854 7670139 7676445 
2242.479 7682651 7688451 7692397 7692498 7689025 7684202 7681032 7684000 
2246.336 7695972 7716546 7743495 7772639 7799592 7821318 7837106 7847430 
2250.194 7854549 7860319 7865751 7871419 7878066 7885523 7894397 7905396 
2254.051 7917713 7930468 7942212 7951019 7955845 7956858 7954798 7950715 
2257.909 7945350 7938668 7929962 7919164 7906037 7891832 7878302 7866864 
2261.766 7858260 7852222 7847261 7841391 7834003 7824927 7815144 7806474 
2265.624 7800503 7797096 7796219 7796387 7796725 7796657 7796489 7796590 
2269.481 7797298 7798378 7799019 7798277 7795747 7791091 7784749 7777463 
2273.338 7769806 7762149 7755031 7749095 7745688 7746700 7753345 7766264 
2277.196 7785188 7807486 7830157 7849927 7864806 7873848 7877864 7878538 
2281.053 7877324 7875941 7875198 7874928 7875805 7877560 7880022 7883127 
2284.911 7886602 7889773 7892405 7894228 7895409 7896522 7898142 7899964 
2288.768 7901516 7901550 7898850 7893114 7884915 7875535 7867167 7861702 
2292.625 7859913 7862140 7867978 7876413 7887108 7900099 7914912 7931649 
2296.483 7949264 7966205 7980582 7990875 7996275 7997152 7994992 7991112 
2300.340 7987230 7984530 7983045 7983180 7984699 7987939 7992765 7999313 
2304.198 8007075 8015412 8023411 8030465 8036304 8041266 8045857 8050548 
2308.055 8055713 8061214 8066750 8072557 8079138 8086936 8096827 8108913 
2311.913 8122721 8137237 8151383 8164044 8175389 8185990 8196660 8208343 
2315.770 8221276 8234513 8247176 8258421 8267336 8274530 8280744 8286992 
2319.627 8293915 8301852 8310430 8318907 8326338 8331100 8331270 8324649 
2323.485 8309079 8282702 8245555 8199327 8147939 8096490 8050278 8013387 
2327.342 7988007 7973562 7967251 7965969 7966475 7966644 7966340 7966037 
2331.200 7966407 7968028 7970153 7972179 7973697 7975047 7977240 7982100 
2335.057 7991415 8005691 8025165 8048286 8073400 8098312 8121809 8142267 
2338.915 8159485 8173700 8185483 8196356 8207870 8220904 8236167 8252714 
2342.772 8268418 8280270 8285979 8284594 8278110 8271321 8270613 8282669 
2346.629 8312794 8362581 8430920 8513731 8605515 8700055 8791608 8875637 
2350.487 8948285 9007785 9053321 9085462 9105560 9115609 9117471 9113207 
2354.344 9104410 9092737 9080523 9069898 9062794 9061068 9065331 9074398 
2358.202 9087087 9100891 9113885 9124882 9133815 9141191 9148399 9156351 
2362.059 9165455 9176115 9188771 9203188 9219840 9238760 9259237 9280054 
2365.917 9299519 9315733 9327684 9335334 9339836 9342782 9346642 9352261 
2369.774 9360217 9370544 9382699 9396242 9411648 9429221 9449234 9471821 
2373.631 9495934 9520453 9544433 9567195 9588466 9609300 9630336 9652120 
2377.489 9674989 9698807 9723169 9747974 9773355 9799517 9827036 9856015 
2381.346 9886081 9916793 9947778 9978528 10009551 10041256 10073775 10107451 
2385.204 10141740 10175454 10207781 10237735 10265214 10290796 10315903 
2388.579 10341352 10368329 10397345 10427991 10459691 10492107 10524287 
2391.954 10555892 10587025 10617481 10647701 10678263 10709506 10741873 
2395.329 10775498 10809772 10843946 10877205 10908565 10937650 10964936 
2398.705 10991273 11017644 11044901 11073451 11102752 11132666 11162650 
2402.080 11192806 11224222 11258361 11296278 11339061 11386712 11438315 
2405.455 11492713 11548276 11603505 11657584 11709696 11759839 11808388 
2408.830 11856295 11904581 11954850 12008428 12065929 12127187 12191146 
2412.206 12255590 12318000 12376634 12430401 12479229 12524345 12566943 
2415.581 12608316 12649285 12690051 12730175 12769277 12806848 12842306 
2418.956 12875958 12907394 12936989 12965562 12993863 13023225 13054945 
2422.331 13089774 13127816 13168731 13211323 13254501 13298297 13343293 
2425.707 13391029 13443382 13502032 13567527 13639220 13716122 13795946 
2429.082 13877939 13961317 14045771 14131783 14219969 14310158 14402592 
2432.457 14496999 14593345 14692283 14794433 14900137 15009710 15122877 
2435.832 15238854 15356716 15476189 15596416 15717467 15839376 15961355 
2439.208 16083023 16203383 16321473 16436635 16548902 16658271 16764946 
2442.583 16869478 16971830 17071726 17169196 17264070 17356410 17446874 
2445.958 17536114 17624476 17712580 17800218 17886906 17972094 18054776 
2449.333 18133362 18207402 18275856 18338378 18395516 18448544 18498676 
2452.708 18548226 18599270 18653118 18711232 18774436 18842842 18916450 
2456.084 18994848 19077518 19163838 19252946 19344326 19437734 19532930 
2459.459 19629986 19728828 19829358 19930990 20032956 20134496 20235190 
2462.834 20335316 20436024 20538562 20644664 20755906 20873292 20997492 
2466.209 21129658 21270564 21421298 21583226 21757094 21943056 22140498 
2469.585 22347902 22563570 22786016 23014272 23247436 23485480 23727960 
2472.960 23973694 24221702 24470588 24718424 24964438 25207256 25445392 
2476.335 25677160 25900574 26113054 26312612 26497260 26665848 26817796 
2479.710 26952664 27069656 27168232 27247534 27306948 27346822 27368490 
2483.086 27373464 27364078 27342410 27309454 27266126 27212996 27150386 
2486.461 27079284 27000966 26916916 26828686 26737270 26642912 26545300 
2489.836 26443764 26336798 26223206 26101900 25971552 25831154 25680358 
2493.211 25518406 25345344 25161186 24966122 24760236 24543614 24316130 
2496.587 24077838 23829492 23571878 23306376 23035270 22760700 22484178 
2499.962 22207934 21932948 21660258 21390180 21123536 20860464 20601478 
2503.337 20347124 20097464 19853360 19615216 19383718 19159440 18943514 
2506.712 18736348 18538752 18351234 18174442 18008668 17854936 17713408 
2510.088 17584450 17467742 17362238 17265898 17177126 17093922 17014972 
2513.463 16940684 16871546 16808822 16754236 16708333 16671181 16643018 
2516.838 16623188 16611621 16608763 16614961 16629867 16653346 16683714 
2520.213 16718870 16756888 16796080 16835618 16875678 16917190 16960634 
2523.589 17006734 17055252 17105260 17155444 17204324 17250278 17291858 
2526.964 17327822 17356756 17378170 17391242 17395828 17391862 17380068 
2530.339 17360478 17333650 17299996 17259862 17213872 17163336 17109534 
2533.714 17053840 16998156 16943028 16889354 16837134 16785886 16735123 
2537.090 16684713 16634308 16583668 16533688 16484262 16435774 16389148 
2540.465 16344661 16302792 16264470 16229214 16196780 16166687 16137628 
2543.840 16108502 16078999 16048949 16018281 15987651 15957778 15928390 
2547.215 15899519 15870545 15840476 15808621 15774706 15738767 15701767 
2550.591 15664907 15629802 15597893 15570657 15548094 15529825 15514853 
2553.966 15501495 15488138 15473786 15457751 15440687 15423486 15407247 
2557.341 15392967 15381535 15372541 15365229 15358501 15351052 15341234 
2560.716 15328500 15311853 15290985 15266481 15238991 15209479 15179558 
2564.092 15150359 15122603 15097112 15074163 15053615 15036052 15021645 
2567.467 15010739 15003707 15000552 15000620 15003261 15007617 15012453 
2570.842 15017563 15023017 15028848 15035709 15044182 15054095 15065861 
2574.217 15079376 15094539 15111418 15130150 15150428 15171906 15194038 
2577.593 15215965 15237412 15258347 15279042 15299840 15321395 15343844 
2580.968 15367151 15391112 15415521 15440172 15465477 15492053 15520038 
2584.343 15550190 15582438 15616475 15652403 15689606 15727635 15766356 
2587.718 15805047 15843293 15880857 15918525 15956679 15997140 16041350 
2591.094 16090173 16143646 16200803 16259380 16317070 16371945 16422560 
2594.469 16469086 16512176 16553031 16592583 16631313 16668908 16705062 
2597.844 16739635 16772179 16803278 16833242 16862140 16890354 16917810 
2601.219 16944614 16971278 16999050 17028822 17061904 17099264 17140794 
2604.594 17185984 17234110 17284238 17335720 17388862 17443630 17500686 
2607.970 17560576 17623614 17690044 17760074 17834048 17911732 17993160 
2611.345 18077920 18164698 18252668 18340036 18425416 18507874 18586784 
2614.720 18662148 18734618 18805230 18875164 18945800 19018386 19093096 
2618.095 19169794 19247266 19323714 19397402 19466946 19531856 19592582 
2621.471 19650646 19707262 19763954 19821556 19879686 19938032 19995936 
2624.846 20052490 20107322 20160108 20210544 20258344 20303028 20344312 
2628.221 20382404 20417686 20451340 20484720 20518726 20554088 20590810 
2631.596 20628126 20665584 20702106 20737242 20770364 20801370 20829978 
2634.972 20856188 20879618 20900722 20919984 20937856 20955242 20972976 
2638.347 20991128 21009802 21028862 21048338 21068510 21089900 21112788 
2641.722 21138006 21165386 21194922 21225818 21257724 21290190 21323704 
2645.097 21358716 21395852 21435882 21479154 21525876 21575636 21628324 
2648.473 21683248 21740130 21798272 21857190 21916116 21974178 22030924 
2651.848 22086212 22139730 22192242 22244240 22296484 22349436 22403684 
2655.223 22459402 22516734 22575786 22636240 22697646 22759200 22820202 
2658.598 22879854 22937382 22992680 23046030 23097988 23149428 23201296 
2661.974 23253900 23307772 23362630 23417984 23473380 23527908 23581150 
2665.349 23632610 23682680 23731040 23778460 23825748 23873214 23921596 
2668.724 23970928 24021142 24071710 24122460 24172620 24221736 24269562 
2672.099 24315710 24360532 24404446 24448470 24494006 24542456 24595296 
2675.475 24653296 24717164 24785948 24858676 24933942 25010764 25087988 
2678.850 25165716 25243738 25321986 25400670 25479474 25558010 25636350 
2682.225 25714810 25794268 25875886 25960858 26049580 26141944 26237248 
2685.600 26334086 26431370 26528534 26625544 26722998 26821850 26922836 
2688.976 27026494 27133136 27242490 27354162 27468088 27583736 27700970 
2692.351 27819614 27939562 28060710 28183200 28306962 28432386 28559758 
2695.726 28689186 28820810 28954742 29090876 29229214 29369618 29512054 
2699.101 29656592 29803132 29951566 30101652 30253384 30406558 30560924 
2702.477 30716410 30872556 31028972 31185374 31341262 31496424 31650856 
2705.852 31804700 31958100 32110878 32263170 32414376 32564816 32714448 
2709.227 32863416 33012542 33162150 33312488 33463706 33615936 33769336 
2712.602 33924328 34081988 34243044 34408532 34578784 34753200 34930120 
2715.978 35107300 35282316 35452484 35616420 35773048 35922528 36065940 
2719.353 36204572 36340048 36474044 36607944 36743000 36880192 37020384 
2722.728 37164232 37312464 37466124 37625908 37793092 37968116 38151308 
2726.103 38342436 38540632 38744464 38952848 39164776 39379244 39596244 
2729.479 39815532 40036712 40259640 40483448 40706716 40928208 41146168 
2732.854 41359096 41565276 41763348 41952016 42130328 42297608 42453264 
2736.229 42597352 42730044 42851692 42963176 43065500 43160164 43249136 
2739.604 43334908 43419192 43504156 43591336 43681716 43776184 43875732 
2742.979 43981464 44094844 44217576 44350804 44495224 44650788 44816288 
2746.355 44989864 45169612 45353148 45538088 45722224 45902716 46076244 
2749.730 46239712 46389336 46522052 46635508 46728148 46799296 46849340 
2753.105 46878720 46888096 46878460 46850152 46803244 46737264 46651704 
2756.480 46545100 46415920 46262932 46084536 45880436 45650220 45394196 
2759.856 45113036 44807988 44479992 44131484 43765192 43384556 42993940 
2763.231 42598376 42202076 41809896 41425756 41052848 40694856 40354820 
2766.606 40035916 39740912 39472488 39231936 39019900 38835980 38679152 
2769.981 38548056 38441612 38358720 38298244 38258980 38238936 38235572 
2773.357 38246136 38267048 38295384 38328100 38362992 38397628 38430388 
2776.732 38459172 38482160 38497836 38504932 38502616 38490700 38469484 
2780.107 38439328 38400924 38355500 38304036 38248088 38189296 38129748 
2783.482 38070820 38014656 37962292 37914672 37872080 37833756 37798620 
2786.858 37764608 37728864 37688060 37639316 37579588 37507196 37421736 
2790.233 37323512 37214012 37095228 36969044 36837488 36702256 36564976 
2793.608 36427956 36293324 36164132 36043656 35935160 35841268 35764228 
2796.983 35705480 35665660 35645480 35645232 35665192 35705696 35767180 
2800.359 35849508 35951932 36073644 36213036 36367932 36536612 36716932 
2803.734 36906996 37105332 37310656 37521464 37736776 37955132 38174716 
2807.109 38393720 38609688 38819676 39020664 39209200 39382072 39536248 
2810.484 39668952 39778056 39862492 39921476 39954676 39962344 39944872 
2813.860 39902880 39837176 39749520 39642164 39518648 39383124 39240424 
2817.235 39095888 38954260 38820472 38698964 38593932 38509240 38447584 
2820.610 38411672 38402408 38419492 38461520 38525896 38609036 38707368 
2823.985 38816812 38933676 39054196 39174676 39291420 39400936 39500212 
2827.361 39586152 39657044 39711608 39749116 39769852 39774900 39765856 
2830.736 39745232 39716476 39682168 39645428 39608512 39572144 39536756 
2834.111 39501884 39466936 39431704 39396400 39361320 39326676 39292688 
2837.486 39259140 39225664 39192920 39161768 39134644 39114560 39105096 
2840.862 39109340 39130296 39170036 39230452 39313688 39422488 39560600 
2844.237 39732776 39943820 40198248 40499596 40849024 41244164 41679416 
2847.612 42143180 42619536 43088516 43526244 43909088 44215596 44428752 
2850.987 44538804 44543796 44449600 44267032 44012372 43704176 43360464 
2854.363 42999792 42638728 42290052 41964352 41667964 41403124 41169480 
2857.738 40963960 40782560 40620884 40474756 40340972 40216168 40097324 
2861.113 39981380 39864852 39744832 39618676 39484136 39340752 39188240 
2864.488 39028060 38862284 38694728 38529696 38373092 38230796 38109020 
2867.864 38012736 37946128 37911232 37908596 37936508 37991800 38070172 
2871.239 38165452 38270672 38378772 38482448 38575536 38654052 38715916 
2874.614 38761308 38791996 38810904 38819964 38821340 38816048 38804020 
2877.989 38785400 38760548 38729684 38694400 38656300 38617004 38578580 
2881.365 38543020 38511808 38486396 38467460 38454788 38447040 38442372 
2884.740 38437848 38430680 38418732 38400596 38376056 38346412 38313768 
2888.115 38281200 38252248 38230936 38221568 38227788 38253768 38303020 
2891.490 38379532 38488024 38634276 38825652 39072212 39385116 39776604 
2894.865 40258372 40838832 41520244 42296256 43149736 44051168 44957636 
2898.241 45819528 46581320 47188032 47597228 47779836 47727460 47451512 
2901.616 46982596 46364160 45642532 44866548 44078892 43311844 42591468 
2904.991 41934716 41351700 40847968 40424932 40081080 39812520 39614792 
2908.366 39483048 39412984 39402572 39450280 39555992 39719564 39939240 
2911.742 40211552 40530988 40889252 41275352 41677628 42081812 42472812 
2915.117 42836776 43160236 43432964 43649252 43807480 43910632 43965036 
2918.492 43978708 43959500 43913672 43845200 43755004 43641964 43503900 
2921.867 43338640 43146184 42928900 42692388 42445812 42200760 41968912 
2925.243 41761888 41589084 41455904 41364560 41314200 41300716 41318424 
2928.618 41360552 41419560 41487400 41556160 41618112 41665992 41694628 
2931.993 41699692 41678976 41631752 41558128 41458820 41334860 41187804 
2935.368 41019348 40832316 40630088 40416604 40196500 39974148 39753912 
2938.744 39540496 39338396 39152376 38987132 38847136 38735044 38652388 
2942.119 38598280 38569600 38561200 38566048 38575828 38581188 38572132 
2945.494 38539220 38473796 38369468 38223196 38035956 37812936 37562176 
2948.869 37294880 37023020 36756812 36505940 36277040 36073932 35898520 
2952.245 35750740 35629300 35532376 35458092 35404272 35368976 35350892 
2955.620 35348488 35360240 35384788 35420164 35464600 35516664 35575316 
2958.995 35640088 35711020 35788624 35872684 35963416 36059964 36161468 
2962.370 36267424 36377224 36490552 36607764 36728328 36851664 36976728 
2965.746 37102228 37226648 37349220 37469844 37588800 37707360 37826996 
2969.121 37949456 38077332 38213460 38360928 38523072 38702696 38901096 
2972.496 39117820 39350656 39594976 39844768 40092928 40331952 40553616 
2975.871 40749804 40913096 41037008 41117752 41153924 41148568 41107920 
2979.247 41040832 40958496 40871084 40787764 40715632 40658832 40618736 
2982.622 40594356 40582972 40579700 40578024 40570928 40550376 40508872 
2985.997 40440788 40342132 40211184 40049320 39859840 39647168 39416756 
2989.372 39174532 38925520 38674552 38425576 38181044 37942908 37711876 
2992.748 37487616 37269500 37056328 36846864 36639524 36432680 36224240 
2996.123 36011976 35793804 35567620 35332380 35087864 34834832 34575412 
2999.498 34312244 34048120 33786024 33528126 33276108 33030740 32792624 
3002.873 32561670 32337554 32120224 31909314 31704996 31507466 31317298 
3006.249 31134896 30960864 30795222 30637966 30488798 30347038 30211858 
3009.624 30082334 29957602 29836386 29717936 29601220 29485280 29369972 
3012.999 29255230 29141224 29029056 28919536 28813446 28711450 28614114 
3016.374 28521438 28433448 28349970 28270572 28195044 28122994 28053854 
3019.750 27987658 27924652 27864940 27809158 27758080 27712060 27671448 
3023.125 27636522 27607286 27584018 27567424 27558598 27558986 27570284 
3026.500 27593658 27629708 27678014 27736536 27801528 27868648 27931966 
3029.875 27985326 28023740 28043144 28041694 28020066 27980730 27927618 
3033.250 27864658 27795770 27723432 27649482 27574486 27499148 27424038 
3036.626 27349784 27277240 27207036 27139274 27073676 27010238 26948502 
3040.001 26888748 26831436 26777336 26726522 26679130 26634740 26592712 
3043.376 26552626 26514764 26479404 26447674 26420560 26397954 26379752 
3046.751 26365386 26354048 26345634 26340530 26339580 26343382 26352288 
3050.127 26365596 26381934 26399608 26417250 26433906 26449998 26466162 
3053.502 26483348 26502506 26523816 26547062 26571930 26598030 26625156 
3056.877 26653904 26684626 26717396 26752492 26789776 26828934 26870030 
3060.252 26913178 26958938 27007770 27059958 27115644 27174370 27235820 
3063.628 27299434 27365102 27433214 27503950 27578052 27655486 27735794 
3067.003 27817566 27899106 27978044 28052016 28119352 28178782 28229730 
3070.378 28272906 28309190 28340102 28366910 28390892 28413178 28434650 
3073.753 28456018 28478130 28502012 28527734 28555584 28585202 28615672 
3077.129 28645898 28675274 28703520 28730778 28757826 28785722 28814862 
3080.504 28845596 28877606 28909904 28942132 28973656 29004506 29035078 
3083.879 29065970 29097748 29130984 29166064 29203238 29243002 29286030 
3087.254 29332678 29383516 29439004 29499004 29563372 29631548 29702608 
3090.630 29775630 29849624 29923098 29994772 30063868 30129778 30192892 
3094.005 30254378 30315416 30377526 30442096 30509484 30579800 30652794 
3097.380 30728004 30805218 30884616 30965844 31048868 31133364 31218698 
3100.755 31304012 31389094 31473518 31557456 31641196 31724918 31808480 
3104.131 31891770 31974398 32056260 32137420 32218386 32299362 32380640 
3107.506 32462042 32543388 32624212 32704800 32785122 32865952 32947910 
3110.881 33030956 33115126 33200134 33285230 33370412 33455830 33541728 
3114.256 33628504 33716120 33803536 33889504 33973196 34053928 34132168 
3117.632 34209812 34288468 34370016 34454984 34542764 34631676 34719996 
3121.007 34805892 34889116 34970304 35050724 35132052 35214904 35299460 
3124.382 35384720 35469740 35553664 35636348 35718720 35801828 35886716 
3127.757 35974320 36064356 36155776 36247508 36337920 36426084 36512172 
3131.133 36596588 36680876 36766476 36854800 36946208 37040448 37136696 
3134.508 37233144 37328492 37421880 37512972 37602424 37691712 37781488 
3137.883 37872512 37964568 38057008 38148592 38238536 38326328 38412724 
3141.258 38498380 38584880 38673356 38764352 38857976 38953648 39050824 
3144.634 39148568 39246372 39343940 39441284 39538100 39634576 39730456 
3148.009 39825736 39920820 40015896 40111276 40207876 40306324 40406824 
3151.384 40509528 40613968 40718944 40823036 40924676 41022224 41115276 
3154.759 41204052 41289708 41374220 41459948 41548500 41640684 41736500 
3158.135 41834884 41934352 42033188 42130364 42225228 42318172 42409532 
3161.510 42500216 42591212 42682888 42776076 42871004 42967672 43065720 
3164.885 43164592 43263376 43360940 43456660 43549684 43639908 43727884 
3168.260 43813932 43899080 43983992 44069396 44155620 44243000 44331756 
3171.635 44422036 44514092 44607976 44703488 44800276 44897372 44993392 
3175.011 45086896 45176452 45260616 45339244 45412736 45482272 45550084 
3178.386 45617984 45687212 45758592 45831900 45906216 45980576 46054252 
3181.761 46127204 46199612 46272404 46346276 46421712 46498960 46578076 
3185.136 46658932 46741692 46826124 46911796 46997848 47083216 47166388 
3188.512 47246248 47322580 47395556 47466628 47537188 47608468 47681348 
3191.887 47755868 47831584 47908160 47985052 48062288 48139908 48217656 
3195.262 48295044 48371000 48444860 48515880 48584128 48650540 48716104 
3198.637 48781980 48848644 48915760 48982552 49048432 49112460 49174760 
3202.013 49236288 49297376 49359144 49422220 49486640 49552368 49619260 
3205.388 49686944 49755124 49823156 49889868 49954248 50015848 50074336 
3208.763 50130892 50187276 50244852 50304524 50365800 50427048 50485668 
3212.138 50540044 50589556 50635348 50680584 50728624 50782472 50843632 
3215.514 50911320 50983340 51056376 51127640 51194852 51257520 51315764 
3218.889 51370696 51423844 51476400 51529820 51584816 51642284 51702520 
3222.264 51765896 51831788 51899368 51967820 52036168 52103700 52169980 
3225.639 52235368 52299760 52363712 52427752 52491984 52556936 52622796 
3229.015 52689528 52756528 52823056 52888132 52951012 53011620 53070584 
3232.390 53129220 53189100 53251120 53315328 53380776 53446124 53509688 
3235.765 53570780 53629372 53686656 53744068 53802792 53863252 53925712 
3239.140 53989792 54055340 54123008 54193312 54266852 54343788 54423064 
3242.516 54502656 54580944 54655832 54726784 54794628 54861128 54928468 
3245.891 54998600 55072732 55150864 55232544 55317180 55404084 55493004 
3249.266 55583940 55676248 55769448 55862172 55953224 56041348 56126480 
3252.641 56208420 56288340 56367820 56448188 56530336 56614736 56700880 
3256.017 56787692 56873684 56957580 57037980 57114760 57188160 57259108 
3259.392 57329204 57399120 57469504 57540384 57610788 57679616 57746220 
3262.767 57810676 57873440 57936212 58000124 58066324 58135412 58206252 
3266.142 58277980 58349068 58418432 58485264 58549904 58612624 58674440 
3269.518 58736228 58798592 58861496 58924828 58988208 59050688 59112148 
3272.893 59172252 59230996 59289292 59348276 59408796 59471828 59537908 
3276.268 59607076 59679264 59754080 59831804 59912240 59995508 60081380 
3279.643 60169172 60258156 60347240 60435504 60523064 60610028 60697428 
3283.019 60786412 60877888 60972668 61071240 61173688 61280244 61391096 
3286.394 61506560 61626220 61749688 61875908 62003584 62132052 62261100 
3289.769 62391180 62523708 62660032 62801368 62948652 63102192 63261928 
3293.144 63427620 63599320 63776380 63958628 64145252 64335144 64527580 
3296.520 64722100 64918816 65118828 65323664 65534220 65750776 65973156 
3299.895 66200124 66430292 66662908 66898004 67136048 67378872 67627320 
3303.270 67882928 68146712 68418608 68698936 68987600 69284048 69586832 
3306.645 69894728 70205968 70519136 70834056 71151232 71472400 71799112 
3310.021 72132024 72470824 72814032 73159488 73505952 73853328 74203464 
3313.396 74558592 74921384 75292672 75671488 76055688 76442208 76828288 
3316.771 77213040 77596552 77979976 78364240 78749688 79135504 79520368 
3320.146 79903256 80283728 80661624 81037536 81411408 81782968 82150840 
3323.521 82514256 82872728 83226400 83576216 83922536 84264872 84601480 
3326.897 84929640 85247088 85551616 85843144 86122592 86391144 86649384 
3330.272 86896688 87131288 87350712 87553584 87738704 87906176 88056136 
3333.647 88187840 88299576 88388544 88452480 88490136 88502400 88492160 
3337.022 88462592 88416616 88355168 88276840 88179000 88058976 87914616 
3340.398 87745552 87552768 87337216 87099744 86839944 86556560 86248136 
3343.773 85913928 85553624 85168024 84758152 84324736 83868592 83390368 
3347.148 82890688 82371280 81834936 81284016 80721592 80150016 79570464 
3350.523 78983544 78390312 77791192 77187280 76579976 75969880 75357688 
3353.899 74743496 74127488 73510936 72895696 72284896 71681896 71089376 
3357.274 70509512 69942840 69388792 68846608 68315752 67796360 67289216 
3360.649 66795124 66314712 65847784 65393032 64949332 64515084 64089372 
3364.024 63672172 63263880 62865160 62476988 62100248 61735480 61383388 
3367.400 61045156 60721056 60411552 60116160 59833212 59560520 59294760 
3370.775 59032616 58771164 58508008 58241680 57971236 57696644 57418068 
3374.150 57135924 56850796 56563252 56273404 55981416 55687060 55389856 
3377.525 55089316 54784480 54474332 54158288 53835496 53505000 53166368 
3380.901 52819016 52462560 52096492 51720544 51334480 50938256 50532492 
3384.276 50118288 49697608 49272804 48846196 48420040 47995524 47573048 
3387.651 47152276 46732580 46313208 45894580 45477120 45061532 44648732 
3391.026 44239512 43834348 43433840 43038976 42651008 42271020 41899832 
3394.402 41536836 41180444 40827948 40476684 40124324 39770504 39416356 
3397.777 39064380 38717076 38376348 38042468 37714300 37389448 37065708 
3401.152 36741560 36416860 36092220 35769412 35449212 35132516 34819356 
3404.527 34509256 34201564 33896992 33595352 33297394 33003320 32713160 
3407.903 32426052 32141130 31857610 31575166 31293970 31014454 30737178 
3411.278 30462996 30192358 29925690 29663582 29406880 29156036 28911888 
3414.653 28674142 28442256 28215020 27990838 27768500 27546984 27325932 
3418.028 27105662 26886880 26670428 26457252 26248052 26043774 25845324 
3421.404 25653152 25467246 25287216 25111824 24939312 24767954 24595960 
3424.779 24422462 24247420 24071886 23897018 23724636 23556136 23392248 
3428.154 23233208 23078560 22927426 22778962 22631876 22485224 22338726 
3431.529 22191928 22045216 21899458 21755422 21614114 21476022 21341036 
3434.905 21208596 21077794 20947420 20816768 20685564 20553950 20422342 
3438.280 20291464 20161568 20032922 19905528 19779246 19654112 19531024 
3441.655 19410396 19292952 19178970 19067544 18957152 18845646 18730570 
3445.030 18610024 18483290 18351306 18216422 18082168 17952100 17829596 
3448.406 17716446 17612848 17517554 17428420 17342582 17257966 17172608 
3451.781 17085408 16996018 16904512 16811026 16715944 16619641 16522501 
3455.156 16424831 16327010 16229695 16133122 16037431 15942965 15849857 
3458.531 15758283 15668549 15580480 15494215 15409273 15325102 15241496 
3461.906 15157838 15073990 14990468 14907749 14826453 14747228 14670314 
3465.282 14595196 14521529 14448731 14376048 14303274 14230000 14156018 
3468.657 14081502 14006417 13931276 13856662 13783291 13712087 13643391 
3472.032 13577201 13512833 13449056 13384741 13318693 13250572 13180822 
3475.407 13110673 13041832 12976042 12914596 12858040 12806234 12757915 
3478.783 12711853 12666137 12619027 12569023 12515615 12458906 12400022 
3482.158 12340805 12283675 12230881 12183887 12143372 12108822 12078603 
3485.533 12050906 12023381 11994666 11963909 11931010 11896954 11863105 
3488.908 11830621 11801237 11775602 11754494 11737609 11724469 11714291 
3492.284 11705747 11698258 11690804 11683010 11674874 11666535 11658571 
3495.659 11651560 11646421 11644310 11646659 11654759 11669871 11692336 
3499.034 11721712 11756502 11794564 11833345 11870597 11905467 11937684 
3502.409 11968746 12001002 12037450 12080885 12133525 12196564 12269939 
3505.785 12352634 12442232 12536111 12631034 12724102 12813878 12900158 
3509.160 12984372 13069081 13157494 13252177 13354330 13463786 13579150 
3512.535 13698477 13819615 13940822 14061275 14180255 14297042 14410743 
3515.910 14520364 14624974 14723954 14817505 14905863 14989679 15068674 
3519.286 15142056 15207935 15263701 15307426 15337424 15353112 15354622 
3522.661 15343329 15320125 15285940 15241222 15185219 15116598 15033959 
3526.036 14935526 14819939 14687210 14538214 14375568 14203090 14024519 
3529.411 13843731 13663838 13486002 13310938 13138881 12969044 12800774 
3532.787 12633013 12464361 12292606 12115705 11931826 11740809 11543988 
3536.162 11344367 11146162 10953416 10768840 10593713 10427380 10268403 
3539.537 10115217 9967238 9824461 9687660 9557710 9434538 9316952 9202985 
3543.395 9089996 8974939 8855989 8732103 8603453 8471766 8339848 8211720 
3547.252 8090920 7980751 7882891 7796118 7717659 7641980 7563886 7478458 
3551.109 7383070 7278606 7168407 7057495 6951425 6853932 6766254 6687409 
3554.967 6614937 6546782 6480723 6416760 6354487 6294945 6238068 6183920 
3558.824 6131325 6079374 6027128 5974383 5921914 5870862 5822570 5778077 
3562.682 5737718 5700284 5663457 5623411 5575146 5514034 5436054 5340376 
3566.539 5229326 5110425 4993233 4887231 4799949 4734055 4687865 4656818 
3570.396 4634815 4616529 4598112 4577484 4554481 4530139 4505062 4479786 
3574.254 4454042 4426426 4395530 4359584 4317784 4269497 4215426 4156646 
3578.111 4095398 4034260 3976507 3925081 3882487 3850327 3829134 3818370 
3581.969 3816398 3821178 3830003 3839898 3847218 3847686 3836454 3808476 
3585.826 3760546 3691301 3604058 3506211 3408219 3321934 3256398 3215472 
3589.684 3198248 3199549 3211700 3226988 3238638 3241843 3234666 3217074 
3593.541 3190838 3159063 3124787 3090614 3058646 3030184 3005761 2985509 
3597.398 2968861 2954583 2941039 2926695 2909482 2889235 2865987 2841473 
3601.256 2817861 2798018 2784179 2777643 2778977 2787714 2802687 2822030 
3605.113 2843007 2861952 2874893 2877795 2867722 2843541 2807323 2763471 
3608.971 2718390 2677581 2644577 2619542 2599975 2582109 2562844 2540680 
3612.828 2517450 2496255 2480926 2474361 2476794 2486124 2498122 2507652 
3616.686 2510385 2502387 2481526 2447937 2404421 2355247 2306111 2263176 
3620.543 2230636 2210454 2202395 2204193 2213385 2228205 2248454 2275466 
3624.400 2311607 2357912 2412384 2468396 2515517 2539247 2525482 2465464 
3628.258 2361576 2230536 2099069 1994370 1932062 1912560 1925040 1954595 
3632.115 1987613 2014409 2031453 2039742 2043671 2047732 2054823 2064944 
3635.973 2075963 2085152 2089680 2089081 2083887 2075564 2065743 2054956 
3639.830 2042971 2029522 2015008 2000861 1990143 1986615 1993571 2012811 
3643.688 2043804 2083621 2127970 2170958 2207190 2231402 2239462 2228538 
3647.545 2196800 2144352 2072434 1985749 1891993 1802117 1728858 1683552 
3651.402 1672642 1696458 1748752 1818819 1893058 1957590 2001061 2015541 
3655.260 1999263 1958023 1904107 1851495 1811799 1791203 1789074 1800619 
3659.117 1818786 1838151 1854356 1865238 1871061 1872891 1872392 1871793 
3662.975 1873590 1879946 1893091 1914357 1944177 1981389 2023564 2066608 
3666.832 2104996 2132032 2140556 2124241 2080158 2011347 1929067 1852193 
3670.689 1800054 1787178 1817222 1882409 1966677 2048697 2107726 2125073 
3674.547 2091578 2011580 1906137 1803980 1728459 1689506 1682122 1693298 
3678.404 1709464 1721773 1727394 1728625 1730854 1738572 1754075 1776831 
3682.262 1804312 1833992 1865338 1899181 1937388 1980290 2025561 2067474 
3686.119 2098270 2109058 2093243 2049163 1981256 1900080 1818420 1748086 
3689.977 1695127 1661466 1645202 1643705 1654215 1674438 1701581 1732551 
3693.834 1763955 1792468 1816224 1834724 1849631 1863574 1879480 1898982 
3697.691 1921778 1945342 1965645 1978460 1979891 1968108 1943911 1909931 
3701.549 1871394 1834425 1804379 1785148 1778960 1785747 1804080 1831563 
3705.406 1865437 1902576 1940017 1975497 2006620 2031520 2048431 2055755 
3709.264 2052193 2036413 2008318 1969373 1922610 1873391 1828535 1794065 
3713.121 1775067 1772872 1786313 1811399 1843010 1875620 1904340 1926205 
3716.979 1939551 1945708 1946673 1945475 1944743 1945708 1948238 1951100 
3720.836 1953263 1954262 1954961 1956558 1960453 1966810 1974133 1979258 
3724.693 1978626 1969839 1952698 1931097 1911228 1901245 1907335 1932029 
3728.551 1972668 2022798 2072934 2113186 2136461 2139591 2125373 2100767 
3732.408 2075397 2056354 2045002 2036813 2023564 1997766 1956825 1905271 
3736.266 1853059 1812497 1792435 1795396 1818653 1857518 1907568 1966344 
3740.123 2033251 2107526 2185344 2259479 2316504 2339589 2314039 2233600 
3743.980 2110123 1974033 1865903 1815159 1828136 1890695 1979325 2069837 
3747.838 2142654 2185211 2193270 2170459 2125206 2068373 2008784 1952032 
3751.695 1901977 1862742 1838850 1833859 1848467 1878915 1918184 1957723 
3755.553 1990709 2012678 2023131 2024662 2021000 2015108 2007452 1996800 
3759.410 1981955 1963781 1946640 1936256 1937820 1952964 1978726 2008151 
3763.268 2032718 2045801 2044836 2032851 2017139 2006553 2007219 2019769 
3767.125 2039576 2058218 2067907 2063445 2044869 2016706 1987280 1964280 
3770.982 1952664 1953197 1963115 1977461 1991541 2002459 2009583 2014276 
3774.840 2018970 2026293 2037479 2051327 2064544 2071835 2068506 2051860 
3778.697 2023098 1987713 1954928 1933527 1929333 1942846 1969373 2001494 
3782.555 2031154 2052825 2064844 2069005 2069871 2071735 2077195 2086084 
3786.412 2095740 2103031 2105961 2104197 2099169 2093043 2087816 2084253 
3790.270 2082156 2080990 2080990 2082922 2088249 2097404 2109257 2120478 
3794.127 2126671 2123774 2110256 2089048 2067174 2054490 2058918 2084287 
3797.984 2127271 2178884 2226240 2254583 2252817 2215749 2148914 2067674 
3801.842 1995502 1953030 1950468 1985649 2046267 2115317 2174255 2207823 
3805.699 2207423 2172457 2112754 2045235 1989011 1956092 1949769 1965079 
3809.557 1993871 2028557 2064711 2102066 2142587 2188274 2238329 2287724 
3813.414 2327630 2348317 2341388 2305311 2247622 2185943 2140923 2128070 
3817.271 2152111 2205159 2271003 2329162 2361210 2353514 2301781 2213718 
3821.129 2109657 2016440 1955294 1936256 1955493 2000329 2054823 2104130 
3824.986 2138825 2155074 2155207 2146450 2138159 2137793 2148981 2170026 
3828.844 2196400 2222077 2241760 2253017 2256181 2254749 2252584 2254050 
3832.701 2261977 2276899 2297983 2322467 2347285 2368339 2381566 2383232 
3836.559 2370771 2343787 2305145 2260645 2217481 2182014 2158537 2147449 
3840.416 2146550 2151545 2157605 2160902 2158471 2149380 2134996 2117848 
3844.273 2102166 2092310 2092044 2103664 2127703 2162800 2206957 2257647 
3848.131 2313306 2373037 2436508 2502687 2567910 2625109 2662746 2666646 
3851.988 2622842 2524282 2378700 2211686 2058418 1949170 1896918 1896353 
3855.846 1932029 1986248 2045735 2101600 2149946 2190306 2223542 2251319 
3859.703 2274667 2294053 2310108 2322800 2331727 2335891 2333326 2321700 
3863.561 2300048 2270703 2240361 2219079 2216748 2239362 2285592 2346718 
3867.418 2407986 2454034 2471429 2454368 2407620 2346851 2292554 2259978 
3871.275 2254716 2270070 2293453 2310774 2312440 2296418 2268205 2239162 
3875.133 2220844 2221477 2243092 2281362 2328063 2373903 2409719 2428711 
3878.990 2427744 2407820 2375069 2339123 2311074 2300048 2309808 2337924 
3882.848 2375935 2412517 2435175 2434475 2407486 2360510 2307876 2266906 
3886.705 2251952 2268239 2311574 2370471 2431076 2480393 2508586 2511219 
3890.563 2489890 2452202 2407953 2367640 2338856 2324832 2325898 2340022 
3894.420 2364441 2395992 2431643 2467897 2501287 2528349 2546446 2554145 
3898.277 2551745 2541180 2526249 2510885 2498122 2489424 2483925 2479160 
3902.135 2471629 2458466 2438640 2413051 2384997 2358978 2339056 2327963 
3905.992 2325998 2332094 2343520 2357745 2372737 2386930 2399757 2410718 
3909.850 2419748 2426145 2429877 2431310 2431143 2431310 2433309 2438707 
3913.707 2447370 2458200 2468763 2476627 2479960 2478560 2473695 2467963 
3917.564 2463664 2462532 2464498 2468396 2472928 2477227 2481426 2486158 
3921.422 2492356 2499854 2507486 2513018 2514151 2509752 2500421 2489024 
3925.279 2479293 2475128 2478693 2490023 2507119 2526915 2545912 2561411 
3929.137 2571910 2576909 2576409 2570610 2560344 2546079 2529282 2512152 
3932.994 2497222 2486824 2482692 2484758 2491890 2501654 2512118 2521583 
3936.852 2529948 2537780 2546846 2558211 2572276 2588009 2603209 2615375 
3940.709 2621842 2621209 2613409 2599942 2583676 2567510 2554411 2545879 
3944.566 2542180 2541913 2543080 2543146 2539813 2531781 2519417 2504320 
3948.424 2489190 2476894 2470063 2469829 2476361 2488624 2504453 2522216 
3952.281 2540047 2556944 2572110 2585176 2595909 2604575 2611308 2616742 
3956.139 2621475 2626309 2631509 2636643 2640877 2642777 2641110 2635209 
3959.996 2625309 2612908 2600042 2589109 2582276 2580709 2584742 2593642 
3963.854 2606409 2621942 2638943 2656712 2674214 2690684 2705254 2716890 
3967.711 2725225 2729660 2730827 2729160 2725859 2722258 2719357 2718090 
3971.568 2718723 2721758 2726792 2733394 2740830 2748366 2754868 2759970 
3975.426 2763171 2764805 2765472 2766439 2768640 2772875 2779310 2787280 
3979.283 2795784 2803387 2808923 2811558 2810891 2807623 2802354 2795951 
3983.141 2789415 2783345 2778343 2775009 2773808 2775242 2779377 2786147 
3986.998 2794884 2804121 2812292 2818061 2820395 2819595 2816127 2811591 
3990.855 2807222 2804288 2802620 2801987 2800719 2798118 2793183 2785546 
3994.713 2776242 2766372 2757402 2750533 2746565 2745731 2747632 2751667 
3998.570 2756969 2762371 2767373 2771207 2773441 
##END=
