
##TITLE=mdmaHCL00398_2
##JCAMP-DX=5.01  $$ Nicolet v. 1
##DATATYPE=INFRARED SPECTRUM
##ORIGIN=UniL
##OWNER=Nicolet
##LONGDATE=2011/08/24
##TIME=09:34:09
##SPECTROMETER/DATA SYSTEM=Nicolet iS5
##DATA PROCESSING=
Ratio against background
%Transmittance->Absorbance
Truncated
ElementMultiply or ElementDivide
##COMMENTS=
Number of sample scans: 32
Collection length: 51.18 sec
Sample gain: 2.0
Background collected on: Mer Aout 24 09:32:43 2011 (GMT+02:00);
Number of background scans: 32
Background gain: 2.0
Sample spacing:  1.000
Number of scan points: 12415
Resolution points: 8192
Number of FFT points: 65536
Apodization: N-B fort;
Phase correction: Mertz;
Laser frequency: 15798.0 cm-1
Number of rejected sample scans: 0
Number of rejected background scans: 0
Bench serial number: ASB1000141;
##RESOLUTION=4.000
##XUNITS=1/CM
##YUNITS=ABSORBANCE
##FIRSTX=649.893372
##LASTX=4000.122314
##FIRSTY=0.096749
##MAXX=4000.122314
##MINX=649.893372
##MAXY=0.241566
##MINY=0.000038
##XFACTOR=1.000000
##YFACTOR=1.000000E-009
##NPOINTS=6950
##DELTAX=0.482117
##ZPD=6100
##XYDATA=(X++(Y..Y))
649.893 96749136 96143472 95596824 95127832 94737512 94417096 94155184 
653.268 93946576 93792960 93695056 93645032 93623160 93601296 93556528 
656.643 93481824 93392336 93317896 93291368 93332720 93437976 93582224 
660.018 93729968 93852384 93937768 93994336 94043256 94109504 94210336 
663.393 94351784 94531920 94744728 94983696 95239504 95494272 95715064 
666.767 95849240 95843408 95670464 95358632 94983280 94629344 94351832 
670.142 94159832 94031200 93930696 93829232 93711960 93584400 93463784 
673.517 93367760 93298672 93239616 93154776 93004680 92759744 92407040 
676.892 91952288 91410760 90798448 90125496 89397776 88625504 87827360 
680.267 87034160 86282816 85602896 85009544 84498384 84049984 83637152 
683.642 83236552 82834712 82427528 82016584 81603768 81188216 80768960 
687.016 80347472 79932648 79539224 79182544 78872720 78608256 78376824 
690.391 78158400 77937192 77706032 77471424 77248432 77055104 76903792 
693.766 76797680 76731808 76699344 76697848 76733152 76818912 76970520 
697.141 77200184 77511432 77899176 78351856 78857024 79405536 79991480 
700.516 80610920 81258008 81922472 82590472 83246584 83876800 84471696 
703.890 85025344 85533008 85988520 86385280 86718480 86989912 87211320 
707.265 87403632 87589456 87787896 88006632 88241720 88482056 88718736 
710.640 88952048 89195016 89467344 89786008 90154728 90556864 90957792 
714.015 91311600 91578760 91733968 91773832 91713792 91581376 91407984 
717.390 91222320 91052536 90930912 90894672 90991328 91269904 91767408 
720.765 92496448 93429560 94496336 95579896 96541344 97243928 97570712 
724.139 97460680 96918296 96019160 94888704 93681328 92549912 91603672 
727.514 90901824 90447088 90200120 90096912 90072288 90079256 90090880 
730.889 90100576 90114120 90141032 90189632 90264640 90369968 90508464 
734.264 90681008 90884088 91106928 91332496 91540016 91713464 91846536 
737.639 91946680 92031768 92124088 92241760 92392408 92572304 92770488 
741.013 92975944 93181952 93388800 93601208 93824416 94059424 94302704 
744.388 94547408 94787136 95019896 95247424 95473256 95700112 95927952 
747.763 96154344 96377544 96599240 96824872 97061792 97314352 97579336 
751.138 97845440 98095176 98312808 98489312 98626600 98735224 98830640 
754.513 98925048 99023504 99124656 99223832 99319192 99413912 99516896 
757.888 99637200 99780608 99945568 100124112 100305744 100482728 100653560 
761.262 100822408 100996128 101179216 101371240 101569000 101769824 
764.155 101979128 102213688 102504496 102892248 103417088 104112656 
767.048 104991792 106038192 107196776 108373984 109447848 110270968 
769.940 110708512 110662984 110098448 109059576 107665920 106095384 
772.833 104528272 103120824 101972920 101112128 100508280 100093072 99791784 
776.208 99534560 99268304 98954840 98556208 98029736 97329112 96406624 
779.583 95227624 93778808 92069696 90129616 87999128 85727400 83364112 
782.958 80961512 78577048 76264256 74072632 72040056 70185984 68513176 
786.332 67011000 65663704 64456584 63380420 62432608 61613120 60920356 
789.707 60349224 59889040 59528028 59256744 59070692 58971964 58967640 
793.082 59068108 59283444 59622096 60091956 60700328 61456060 62371172 
796.457 63459404 64738288 66229068 67955456 69948320 72244896 74884648 
799.832 77906984 81337400 85172016 89355600 93762160 98195816 102369256 
803.206 105946800 108593560 110004400 109992840 108528512 105759168 
806.099 101979128 97573120 92949224 88421080 84178552 80265032 76605232 
809.474 73057896 69483344 65805332 62028464 58238612 54561108 51134684 
812.849 48067912 45417888 43196324 41374404 39903096 38723164 37779644 
816.224 37025476 36418012 35923068 35513172 35167296 34873496 34627084 
819.598 34427472 34275776 34171056 34109516 34086076 34095788 34135784 
822.973 34205832 34307044 34440740 34606772 34804748 35034524 35297556 
826.348 35597680 35939368 36326644 36761644 37245272 37778996 38369360 
829.723 39029980 39784520 40667160 41717788 42980844 44500624 46310076 
833.098 48423152 50817300 53423940 56108044 58667004 60861880 62421052 
836.473 63106140 62769168 61377052 59035312 55956464 52434964 48769672 
839.847 45217040 41978108 39165360 36819672 34927504 33442590 32303788 
843.222 31446442 30814394 30357342 30031662 29804162 29648752 29547768 
846.597 29491662 29474926 29493578 29543370 29618918 29714634 29827158 
849.972 29955508 30101260 30266102 30450662 30653148 30870420 31099586 
853.347 31340980 31598292 31879220 32191872 32543174 32937438 33376138 
856.721 33859948 34391640 34976736 35625376 36351392 37170768 38103992 
860.096 39175692 40413584 41849880 43513460 45419580 47557928 49881284 
863.471 52300620 54679880 56861524 58684032 60002016 60725172 60826620 
866.846 60354856 59420344 58187008 56848036 55582168 54551528 53876832 
870.221 53626932 53830920 54480044 55538980 56948100 58628928 60488136 
873.596 62404876 64243352 65861276 67112496 67880992 68094496 67735856 
876.970 66847600 65522276 63890220 62085760 60238480 58453836 56795280 
880.345 55288576 53921320 52656008 51441748 50231572 48998392 47739816 
883.720 46480600 45263596 44142488 43165652 42366572 41762944 41354320 
887.095 41128788 41068180 41154364 41372252 41709832 42158588 42711400 
890.470 43363064 44110872 44955504 45901980 46958048 48135020 49445236 
893.844 50900924 52514232 54294412 56244436 58353352 60587856 62887296 
897.219 65152244 67256336 69060664 70422952 71235200 71435912 71020968 
900.594 70042376 68598304 66821708 64849296 62818752 60853796 59046548 
903.969 57465760 56152384 55121744 54373228 53894688 53669900 53682308 
907.344 53918092 54367368 55022968 55880224 56936276 58190532 59643796 
910.719 61297944 63151896 65198712 67419424 69778448 72227680 74707368 
914.093 77154392 79518656 81766568 83891064 85910256 87865968 89814408 
917.468 91810424 93898656 96092992 98364336 100624856 102730784 104498896 
920.843 105715120 106190448 105800672 104519504 102444888 99796488 96909600 
924.218 94160240 91940856 90606424 90391880 91397104 93543752 96592080 
927.593 100138392 103674760 106704040 108768072 109561520 108975752 
930.485 107083984 104102464 100305664 95983456 91369536 86627584 81870696 
933.860 77170024 72583984 68178848 64026088 60203424 56787200 53834824 
937.235 51386768 49464024 48068392 47187736 46794572 46846648 47277316 
940.610 47993452 48884164 49814312 50646108 51260876 51560900 51493076 
943.985 51050828 50273832 49237104 48036420 46778300 45554908 44438368 
947.359 43476728 42689428 42075680 41620224 41302320 41099616 40991672 
950.734 40961812 40993564 41071388 41181388 41310848 41451384 41599588 
954.109 41756488 41926104 42112440 42318536 42545016 42791652 43057452 
957.484 43342856 43648924 43977172 44327940 44699632 45089176 45492868 
960.859 45908312 46334260 46771320 47220096 47680536 48151312 48630080 
964.233 49114840 49605892 50105456 50617364 51145232 51691176 52255028 
967.608 52834920 53429636 54039656 54667708 55318796 55997924 56708472 
970.983 57452104 58229252 59040664 59889232 60779972 61718792 62711088 
974.358 63758732 64860992 66014932 67218584 68472712 69781680 71152096 
977.733 72590600 74101744 75687144 77347360 79084072 80902784 82813504 
981.108 84828648 86960272 89216664 91599784 94104808 96719032 99422816 
984.482 102183704 104950192 107652416 110191872 112448432 114301088 
987.375 115630464 116346536 116403976 115805808 114606928 112902920 
990.268 110829784 108541400 106192856 103939656 101907936 100191008 98849032 
993.643 97903384 97347392 97154200 97290144 97720688 98415536 99352056 
997.017 100510504 101872416 103420240 105135192 106998344 108990912 
999.910 111089032 113259512 115457352 117616776 119658824 121500216 
1002.803 123057712 124268000 125094624 125532640 125609352 125381768 
1005.695 124935512 124369912 123797200 123334000 123079880 123118992 
1008.588 123509528 124279696 125434920 126962496 128842280 131049248 
1011.481 133558016 136343888 139376624 142622448 146046992 149614976 
1014.374 153297936 157072544 160911504 164774480 168593664 172259072 
1017.266 175632176 178551824 180857920 182434608 183227056 183266080 
1020.159 182664528 181619264 180389664 179246000 178469952 178304128 
1023.052 178918208 180414704 182811536 186057488 190041632 194620976 
1025.945 199643616 204945392 210371888 215772752 220987376 225862432 
1028.838 230250480 234019376 237075568 239361744 240856768 241565632 
1031.731 241508368 240713200 239213216 237053408 234291392 230991392 
1034.624 227223824 223053552 218534192 213717248 208656208 203416336 
1037.517 198085888 192767696 187570864 182607776 177972160 173739088 
1040.410 169964544 166677296 163880064 161540784 159590608 157914752 
1043.303 156355424 154742368 152899088 150682928 148017968 144901456 
1046.196 141410048 137675632 133874536 130190480 126785128 123798744 
1049.089 121326336 119418232 118087440 117312280 117047040 117228032 
1051.982 117788920 118664160 119792312 121121816 122602320 124178200 
1054.875 125788640 127356944 128794712 130014824 130930040 131467608 
1057.768 131578712 131237480 130447672 129242896 127691296 125890552 
1060.661 123958328 122033824 120251920 118733008 117580896 116866480 
1063.554 116632056 116893144 117639624 118837032 120424160 122319608 
1066.448 124414696 126579360 128683608 130596456 132206800 133437928 
1069.341 134241680 134600832 134520704 134021608 133132232 131884632 
1072.234 130314616 128457520 126347672 124021320 121516472 118878720 
1075.127 116168336 113457600 110833160 108393552 106230944 104431584 
1078.020 103065960 102178552 101789592 101889840 102441320 103370880 
1080.913 104572272 105918128 107253784 108424552 109300024 109783480 
1083.806 109839120 109494144 108837544 107999968 107132656 106398080 
1086.699 105935632 105858384 106246472 107135840 108521792 110356832 
1089.592 112561984 115026016 117617904 120210320 122676768 124907728 
1092.485 126819384 128342448 129426224 130036728 130153672 129774944 
1095.378 128917440 127620336 125940712 123951136 121741568 119406712 
1098.271 117043568 114747024 112588912 110612712 108822352 107180880 
1101.164 105614328 104025664 102325144 100441928 98347088 96060208 93647088 
1104.540 91207640 88851544 86694808 84836544 83349704 82284896 81664704 
1107.915 81488584 81736456 82373848 83356328 84629464 86137624 87821192 
1111.290 89615040 91453416 93262320 94959408 96464832 97698984 98594536 
1114.665 99107048 99214456 98919768 98245920 97233400 95933408 94401112 
1118.041 92697224 90879600 88997312 87091808 85190320 83307752 81450736 
1121.416 79622520 77827816 76077288 74386992 72777520 71270888 69884920 
1124.791 68633664 67526400 66568732 65766164 65125368 64654528 64363612 
1128.166 64262256 64356348 64646684 65126488 65780044 66579892 67487840 
1131.542 68455848 69423632 70330808 71121032 71750568 72199704 72475480 
1134.917 72613160 72666384 72702344 72790368 72986200 73329512 73834912 
1138.292 74491056 75258896 76076848 76871320 77556824 78052104 78290984 
1141.667 78221712 77815216 77062976 75972768 74566384 72875632 70944448 
1145.042 68822496 66566340 64237780 61894020 59588680 57368340 55267652 
1148.418 53313192 51523256 49908084 48473196 47219096 46142164 45235136 
1151.793 44487516 43887608 43422712 43081636 42855792 42738780 42726204 
1155.168 42814836 43000856 43280872 43651452 44109700 44654572 45285956 
1158.543 46004480 46809924 47700944 48674296 49725324 50847696 52032916 
1161.919 53270260 54543152 55828788 57099344 58319552 59451688 60459456 
1165.294 61306264 61960548 62396304 62592320 62535724 62223548 61664216 
1168.669 60876556 59888928 58736872 57456152 56082892 54651508 53191232 
1172.044 51730024 50293548 48903856 47581592 46344212 45204576 44172824 
1175.420 43255872 42457832 41782168 41231412 40807676 40512584 40346680 
1178.795 40309920 40402020 40623756 40977472 41468004 42101596 42885084 
1182.170 43824380 44923168 46182036 47598596 49166188 50871308 52689600 
1185.545 54585380 56503128 58370444 60106076 61617896 62819288 63640944 
1188.921 64031848 63971564 63470452 62570320 61336600 59851088 58206824 
1192.296 56489392 54775608 53129820 51598436 50215988 49007292 47988344 
1195.671 47169676 46555612 46143748 45922160 45869132 45954244 46136156 
1199.046 46366848 46597032 46773536 46847016 46776008 46526732 46081180 
1202.422 45438564 44616824 43649216 42580760 41463632 40345080 39266972 
1205.797 38261552 37348572 36539672 35839036 35246240 34758224 34369800 
1209.172 34074496 33864068 33729724 33663984 33660764 33717228 33832872 
1212.547 34009132 34247168 34547392 34908468 35327496 35800212 36321132 
1215.923 36882972 37475912 38086592 38699652 39298204 39865980 40390564 
1219.298 40863188 41279180 41637184 41937600 42182356 42375156 42522544 
1222.673 42634412 42723316 42804960 42895216 43007912 43154420 43341352 
1226.048 43571040 43841460 44146924 44478192 44823308 45170384 45508948 
1229.424 45834000 46147912 46462528 46798372 47180496 47637416 48196808 
1232.799 48881604 49712468 50706056 51876292 53236064 54795868 56562948 
1236.174 58540956 60728712 63121320 65709224 68479936 71415376 74489208 
1239.549 77667632 80907856 84159968 87377088 90516792 93546096 96444272 
1242.925 99197176 101793152 104219584 106457304 108479632 110253848 
1245.818 111736440 112876832 113620352 113908056 113688800 112927152 
1248.711 111607632 109739368 107352624 104494512 101219696 97589464 93672936 
1252.086 89542272 85278336 80970336 76702312 72558568 68614488 64927436 
1255.461 61543364 58491100 55781880 53412140 51363460 49605520 48095192 
1258.836 46782172 45613012 44530836 43485588 42437004 41356104 40229544 
1262.212 39057276 37851364 36630584 35418512 34240104 33116556 32066356 
1265.587 31102966 30233882 29461664 28783952 28194584 27684442 27243160 
1268.962 26861502 26531352 26247244 26005816 25805802 25646508 25528458 
1272.337 25452630 25420870 25435556 25499538 25615366 25784246 26005464 
1275.713 26275650 26587568 26929076 27283696 27628260 27934120 28171922 
1279.088 28312868 28335644 28230722 28002182 27666784 27248768 26777900 
1282.463 26280824 25779360 25290166 24824398 24390146 23994878 23645486 
1285.838 23348190 23108158 22928578 22811124 22757314 22769570 22852402 
1289.214 23011650 23253552 23582478 23999570 24501648 25080616 25723810 
1292.589 26414362 27128588 27837488 28508876 29106996 29601256 29970916 
1295.964 30208342 30322272 30335490 30282304 30199320 30124024 30089932 
1299.339 30122284 30239922 30453364 30763318 31159174 31617500 32105490 
1302.715 32580174 32995776 33312060 33496164 33528988 33406448 33138440 
1306.090 32746672 32260246 31715758 31149384 30595230 30083860 29636550 
1309.465 29265650 28975214 28762072 28618892 28537394 28510892 28533962 
1312.840 28602684 28713716 28863018 29046344 29260334 29502940 29773572 
1316.216 30072994 30401620 30759122 31143796 31553890 31988916 32450080 
1319.591 32940868 33464346 34020884 34604980 35204520 35799888 36365120 
1322.966 36873448 37297876 37615972 37815360 37895432 37871500 37771872 
1326.341 37639064 37521932 37465872 37509976 37676824 37970716 38379240 
1329.717 38878556 39441284 40040348 40656576 41277576 41897388 42514248 
1333.092 43129352 43745656 44367424 44999860 45648088 46314056 46994932 
1336.467 47681272 48358592 49007180 49605632 50133980 50573844 50910872 
1339.842 51135316 51242644 51234592 51119180 50910684 50627904 50292880 
1343.218 49930756 49565368 49219288 48912680 48660620 48473752 48358000 
1346.593 48313560 48333892 48403780 48500688 48592428 48641792 48614112 
1349.968 48478904 48219356 47834804 47343380 46780400 46193384 45641168 
1353.343 45182444 44868752 44741096 44819704 45101748 45559764 46147580 
1356.719 46804832 47464000 48064880 48554600 48894140 49061788 49052584 
1360.094 48879532 48571756 48177000 47757348 47378964 47109584 47000172 
1363.469 47073876 47321836 47703720 48157308 48601324 48952140 49129676 
1366.844 49063044 48708768 48056848 47138612 46018520 44785728 43536976 
1370.219 42351340 41289160 40384492 39646700 39071160 38646084 38361396 
1373.595 38210568 38190780 38298024 38522672 38847900 39253664 39719160 
1376.970 40229324 40776120 41358948 41983148 42659856 43405392 44240504 
1380.345 45190424 46281176 47529244 48931708 50452280 52020852 53527452 
1383.720 54835528 55807952 56307768 56226976 55508892 54168724 52313292 
1387.096 50125352 47844380 45691192 43821740 42314704 41171120 40344784 
1390.471 39766112 39365708 39079828 38851848 38636232 38392092 38086700 
1393.846 37701400 37234480 36702836 36133232 35553592 34980180 34415560 
1397.221 33852892 33284944 32713662 32156936 31646222 31216136 30895716 
1400.597 30696956 30615104 30634020 30733694 30895894 31106562 31358000 
1403.972 31646080 31968158 32320992 32699730 33098534 33512772 33940304 
1407.347 34382636 34843660 35328576 35841160 36382776 36951800 37544652 
1410.722 38157384 38786740 39430468 40086164 40749588 41414132 42071880 
1414.098 42715456 43341756 43953596 44559872 45173988 45811136 46486464 
1417.473 47212668 47998408 48844492 49739180 50656756 51558512 52401768 
1420.848 53144196 53752580 54207500 54504120 54658652 54707764 54708220 
1424.223 54720508 54793876 54955128 55203572 55520112 55879280 56261784 
1427.599 56657204 57065184 57492044 57949044 58451940 59020508 59681696 
1430.974 60465516 61395980 62485484 63727268 65099000 66565840 68094304 
1434.349 69661544 71253744 72868192 74505176 76162368 77827104 79482288 
1437.724 81113208 82706504 84248984 85718320 87081768 88288048 89271312 
1441.100 89965560 90302744 90224184 89687336 88664112 87150368 85170720 
1444.475 82787440 80095296 77206192 74248984 71342776 68590664 66079080 
1447.850 63863120 61962116 60354932 58991244 57806588 56744076 55775660 
1451.225 54909028 54184788 53653924 53358372 53304500 53456656 53733868 
1454.601 54021572 54193984 54121692 53720440 52994584 52065264 51126296 
1457.976 50358620 49877160 49716144 49863928 50293064 50971712 51864048 
1461.351 52921780 54085888 55277320 56397172 57345160 58026032 58379732 
1464.726 58404104 58160452 57752084 57282320 56837652 56470032 56200956 
1468.102 56033132 55954956 55944136 55964868 55969840 55903700 55709396 
1471.477 55350636 54830604 54205396 53565680 53005740 52592240 52349248 
1474.852 52273900 52352684 52574852 52935928 53431960 54051928 54770496 
1478.227 55548052 56339188 57093752 57769908 58341680 58800600 59159644 
1481.603 59447660 59706104 59978468 60308104 60741896 61327516 62115612 
1484.978 63155116 64478644 66089460 67943168 69948288 71954840 73764976 
1488.353 75164888 75930848 75878208 74911464 73051000 70442520 67308608 
1491.728 63897320 60409456 56969668 53645980 50456524 47403684 44506900 
1495.104 41810184 39388528 37333584 35721704 34590736 33930452 33699148 
1498.479 33839496 34296036 35023784 35982276 37131788 38432852 39839244 
1501.854 41300972 42769460 44183572 45470792 46541304 47263356 47468920 
1505.229 46968272 45607236 43371192 40459120 37242564 34086184 31211400 
1508.604 28671698 26419504 24381944 22504870 20763412 19162314 17719828 
1511.980 16450364 15358672 14434926 13659666 13010319 12464771 12003080 
1515.355 11605104 11252036 10930548 10635613 10373827 10158155 10000092 
1518.730 9900589 9846898 9812227 9766814 9688033 9576001 9456311 9368411 
1522.588 9343019 9386220 9482658 9604929 9729031 9840527 9940489 10042069 
1526.445 10163141 10315768 10500864 10710355 10934184 11166458 11408618 
1529.820 11667148 11948924 12255693 12582769 12918999 13252349 13576415 
1533.196 13895250 14223768 14576727 14963271 15379475 15812848 16245276 
1536.571 16659509 17042710 17382896 17671098 17898162 18054674 18131980 
1539.946 18127076 18049284 17918674 17759728 17591248 17418350 17232214 
1543.321 17014626 16748417 16426448 16058438 15669167 15289475 14942214 
1546.697 14632959 14350362 14073254 13781684 13465564 13131778 12800569 
1550.072 12498632 12244514 12041538 11879620 11742340 11616199 11496286 
1553.447 11387597 11301889 11249861 11234525 11249316 11279003 11304202 
1556.822 11300324 11237687 11085451 10822170 10457960 10044781 9657168 
1560.198 9351212 9143865 9021791 8956842 8919570 8883010 8828497 8747756 
1564.055 8645025 8534546 8435379 8362986 8322049 8306039 8300501 8290132 
1567.912 8263183 8215467 8151079 8080962 8018247 7973393 7952774 7959084 
1571.770 7992428 8051426 8131667 8225227 8318705 8395550 8440278 8444298 
1575.627 8413792 8369100 8338160 8340288 8378896 8443420 8517481 8586453 
1579.485 8641138 8678995 8701813 8712732 8713813 8705126 8685520 8655402 
1583.342 8617986 8579627 8547117 8525896 8517144 8518056 8523632 8529984 
1587.199 8536168 8544718 8559418 8582938 8614944 8653002 8694038 8737174 
1591.057 8784981 8842937 8916424 9007311 9112733 9225052 9335943 9438872 
1594.914 9532307 9619361 9706295 9798873 9900217 10011314 10132379 10265621 
1598.772 10416995 10595310 10810043 11068863 11375624 11730154 12130118 
1602.147 12572980 13056379 13576107 14124253 14685394 15236006 15748354 
1605.522 16191002 16534651 16757920 16847916 16803898 16636271 16365578 
1608.897 16017525 15618673 15196646 14775852 14377761 14020892 13716430 
1612.273 13467956 13269804 13110092 12971775 12835788 12685241 12507089 
1615.648 12296628 12062216 11824799 11613850 11455086 11363788 11341101 
1619.023 11377460 11456243 11559028 11669156 11772742 11863547 11943678 
1622.398 12023518 12118227 12240766 12397840 12587578 12802822 13035448 
1625.774 13279609 13531668 13789071 14048339 14304028 14549658 14780788 
1629.149 14996916 15202479 15404432 15609640 15820716 16035678 16246205 
1632.524 16440110 16603325 16720282 16777826 16767563 16691530 16564701 
1635.899 16414095 16270112 16153309 16070575 16014706 15971804 15924506 
1639.275 15857521 15761925 15636636 15489958 15335605 15188651 15059275 
1642.650 14949072 14851036 14750998 14632137 14477711 14276360 14026231 
1646.025 13738864 13437778 13154591 12920229 12754673 12664601 12644065 
1649.400 12679032 12748873 12825993 12877631 12861351 12733450 12469987 
1652.776 12096659 11697408 11367733 11160984 11069339 11053806 11072160 
1656.151 11094152 11104044 11096633 11074506 11043236 11007993 10970645 
1659.526 10929223 10878904 10813542 10727778 10618839 10487761 10340674 
1662.901 10188547 10043968 9919403 9823207 9757123 9717274 9693962 9675022 
1666.759 9645615 9592396 9505450 9381920 9226744 9052576 8877261 8717364 
1670.616 8584358 8483625 8413217 8366364 8330898 8292564 8234613 8142031 
1674.474 8008593 7841391 7662416 7498380 7371005 7286625 7237703 7208225 
1678.331 7182386 7150891 7112728 7075916 7051467 7047190 7061536 7081439 
1682.188 7082551 7037760 6925097 6743672 6521420 6307014 6144061 6048328 
1686.046 6010027 6006836 6017620 6026355 6024474 6009288 5982177 5946973 
1689.903 5908580 5873986 5850544 5845003 5861089 5897462 5946737 5994372 
1693.761 6022861 6015335 5963499 5875430 5777170 5702533 5673864 5692932 
1697.618 5741176 5789963 5805779 5761053 5645498 5476753 5299689 5161422 
1701.476 5089338 5080119 5112806 5161388 5203571 5224228 5214771 5175404 
1705.333 5114013 5043747 4977380 4923590 4885422 4860827 4845682 4835631 
1709.190 4827791 4821827 4818945 4821157 4830203 4846218 4867629 4891621 
1713.048 4915145 4936023 4953115 4965984 4973459 4971850 4955930 4919803 
1716.905 4861196 4785275 4705316 4638967 4600288 4595600 4622021 4670951 
1720.763 4731744 4794388 4852920 4904455 4949864 4991892 5034461 5080487 
1724.620 5131815 5189286 5252935 5321927 5394049 5465915 5532759 5589578 
1728.478 5633112 5663893 5686419 5707435 5732883 5763807 5794161 5809440 
1732.335 5789426 5715056 5578268 5392774 5193645 5025311 4917994 4876609 
1736.192 4887265 4926774 4973526 5009389 5024070 5014986 4987703 4953115 
1740.050 4923288 4906935 4906667 4920373 4942726 4968297 4992462 5012841 
1743.907 5028528 5040361 5049512 5057222 5063793 5068687 5070531 5067279 
1747.765 5056317 5035233 5001210 4951305 4883746 4798241 4698449 4591715 
1751.622 4489360 4402627 4339001 4300650 4283818 4279669 4276892 4265080 
1755.479 4237341 4193010 4138415 4085097 4044327 4022689 4019311 4026969 
1759.337 4035296 4033290 4013492 3973665 3917458 3853135 3790527 3738421 
1763.194 3701493 3680641 3673457 3676130 3683415 3689931 3690933 3683949 
1767.052 3669547 3651837 3637770 3633727 3642147 3660057 3678603 3686689 
1770.909 3673356 3633560 3571050 3498662 3433132 3386713 3363538 3359798 
1774.767 3367078 3377797 3387815 3397132 3408486 3424315 3444888 3467265 
1778.624 3486604 3497693 3498128 3489643 3477085 3466764 3462489 3465094 
1782.481 3471240 3476617 3476751 3469870 3457045 3441582 3427822 3419373 
1786.339 3418538 3426586 3443919 3470906 3506712 3548701 3591797 3628348 
1790.196 3649799 3648295 3620697 3569981 3506478 3443485 3393892 3365341 
1794.054 3358463 3369115 3390820 3417536 3444120 3466998 3484132 3493852 
1797.911 3495522 3489009 3475482 3456878 3435938 3415599 3398367 3385844 
1801.769 3378765 3377062 3380836 3390086 3404378 3422879 3443919 3465261 
1805.626 3484667 3500666 3512758 3521409 3527756 3531898 3533435 3531163 
1809.483 3523581 3510720 3493385 3474546 3457913 3446391 3441648 3443218 
1813.341 3449597 3458314 3467499 3476550 3485869 3496023 3508349 3523280 
1817.198 3541218 3561830 3585315 3611843 3641279 3673557 3708411 3744838 
1821.056 3782037 3818738 3853303 3884059 3908464 3924948 3932671 3933440 
1824.913 3931835 3934510 3947283 3973297 4011352 4055932 4098375 4129651 
1828.771 4144168 4141492 4127275 4111353 4104028 4111286 4133531 4166448 
1832.628 4203851 4240955 4275319 4307812 4340809 4377055 4417421 4461105 
1836.485 4505899 4549927 4593222 4638029 4688066 4747555 4818979 4902512 
1840.343 4995747 5094534 5194249 5290096 5378047 5455883 5523598 5583738 
1844.200 5640967 5700888 5767399 5840569 5916977 5990273 6052628 6096814 
1848.058 6118656 6117278 6095772 6059315 6013387 5961887 5906061 5845137 
1851.915 5777506 5702533 5620994 5535075 5447293 5359597 5272924 5187107 
1855.772 5102278 5019813 4941821 4871214 4809832 4757437 4711881 4669109 
1859.630 4625739 4579594 4530574 4480455 4431848 4386560 4345427 4308983 
1863.487 4277460 4252130 4234564 4226032 4226032 4231620 4236739 4234364 
1867.345 4218638 4187189 4143098 4093492 4048440 4016234 4001353 4003660 
1871.202 4019913 4045430 4075464 4106102 4134267 4157482 4173239 4180431 
1875.060 4178525 4168287 4151762 4131223 4108276 4083825 4057838 4030146 
1878.917 4001219 3972896 3947851 3928659 3916656 3910504 3907628 3903516 
1882.774 3895593 3882688 3866708 3851230 3840265 3835953 3838260 3844812 
1886.632 3851899 3855977 3854907 3847954 3835986 3821011 3805535 3792165 
1890.489 3783641 3781703 3787552 3800120 3817501 3835552 3849793 3856813 
1894.347 3855843 3848823 3839864 3834014 3835050 3843709 3858317 3875133 
1898.204 3890544 3902079 3909367 3913312 3915720 3918528 3922206 3927455 
1902.062 3934276 3942769 3952632 3963232 3972963 3979918 3982091 3979015 
1905.919 3971892 3963165 3956110 3953167 3954605 3958384 3961193 3960590 
1909.776 3956010 3949690 3945410 3947416 3958116 3977577 4003593 4033156 
1913.634 4063256 4092054 4117374 4136943 4147045 4143633 4123696 4087605 
1917.491 4040815 3993160 3956678 3939525 3944440 3966007 3994899 4020114 
1921.349 4034394 4035899 4028775 4020549 4018843 4027070 4043858 4063758 
1925.206 4079979 4087839 4086200 4077337 4065196 4054226 4047169 4045062 
1929.063 4047403 4053992 4063791 4076300 4089813 4101954 4109948 4111521 
1932.921 4107273 4099914 4094161 4094428 4103292 4120017 4140923 4161162 
1936.778 4177488 4189297 4199167 4211412 4229177 4253101 4280372 4305804 
1940.636 4324042 4332576 4332041 4327556 4324912 4330434 4347703 4377021 
1944.493 4415781 4459632 4504493 4545607 4579861 4604876 4620515 4628920 
1948.351 4634245 4641311 4654909 4676980 4706823 4740219 4771641 4795259 
1952.208 4807889 4808961 4800586 4786481 4769630 4752211 4735830 4720589 
1956.065 4707660 4697980 4692018 4690042 4689975 4688669 4682841 4671185 
1959.923 4655511 4639871 4629356 4628318 4637761 4655411 4675875 4694028 
1963.780 4705115 4707928 4702067 4689607 4672291 4651827 4630427 4610602 
1967.638 4595700 4589271 4592352 4605177 4623763 4643857 4662879 4680631 
1971.495 4701664 4731543 4775527 4834190 4903283 4974330 5040026 5096512 
1975.353 5147373 5201258 5269469 5358993 5469707 5592565 5712336 5814174 
1979.210 5886849 5925173 5931151 5910259 5870056 5817532 5759979 5702802 
1983.067 5650802 5607099 5572361 5544740 5520108 5492893 5460815 5423640 
1986.925 5385998 5354230 5334438 5329306 5336887 5350942 5364662 5372881 
1990.782 5373921 5370868 5368016 5370063 5378081 5391298 5406563 5422063 
1994.640 5437530 5455111 5476686 5502826 5531316 5557560 5575750 5582195 
1998.497 5576455 5560950 5540176 5517524 5495074 5471921 5446455 5417332 
2002.354 5385662 5354598 5328770 5311764 5306363 5312568 5330044 5359060 
2006.212 5399585 5452494 5516316 5585752 5653588 5710154 5748429 5766224 
2010.069 5767601 5760113 5753364 5753230 5762262 5778211 5796780 5814678 
2013.927 5831368 5848260 5868310 5892155 5917649 5940960 5958024 5967799 
2017.784 5972805 5979221 5993633 6021114 6060692 6109213 6159386 6205061 
2021.642 6242135 6269128 6286137 6294408 6294777 6288894 6279347 6271044 
2025.499 6270506 6284154 6315285 6362254 6418744 6475242 6522900 6557176 
2029.356 6579243 6594314 6609957 6632700 6665000 6707026 6756258 6811117 
2033.214 6871537 6937958 7010047 7085548 7159985 7227259 7282144 7321703 
2037.071 7346336 7357727 7358333 7349302 7330902 7303540 7269071 7231369 
2040.929 7196063 7168642 7152407 7146579 7146815 7146983 7142099 7130782 
2044.786 7115423 7102153 7097505 7107844 7136272 7183128 7246160 7320355 
2048.644 7398708 7471918 7529733 7562470 7563954 7534520 7482132 7420717 
2052.501 7365849 7332048 7326421 7347954 7386912 7430087 7465581 7487188 
2056.358 7495279 7495852 7495919 7500336 7509539 7519956 7527407 7529092 
2060.216 7525620 7521136 7519990 7526058 7539813 7558458 7578249 7595513 
2064.073 7608630 7617734 7624074 7628120 7629368 7626164 7617262 7602864 
2067.931 7584723 7565538 7547466 7530778 7513685 7493290 7466963 7434502 
2071.788 7398472 7363726 7335721 7318636 7314054 7321231 7338215 7362512 
2075.646 7391900 7425335 7461367 7497740 7532531 7562942 7588095 7608393 
2079.503 7625962 7642890 7660966 7679480 7696377 7709058 7715770 7716647 
2083.360 7713949 7710947 7709868 7711285 7713915 7714927 7711891 7703797 
2087.218 7691520 7677052 7661809 7646397 7629401 7609304 7584959 7557446 
2091.075 7529935 7506943 7492582 7489413 7497571 7515236 7540218 7570326 
2094.933 7604347 7641406 7679784 7716782 7748791 7772538 7785998 7790417 
2098.790 7789607 7788392 7790990 7799761 7814469 7833159 7854380 7877526 
2102.647 7904013 7936103 7975148 8020913 8070868 8121302 8168568 8210538 
2106.505 8247006 8278852 8306985 8331033 8349644 8361331 8365789 8365283 
2110.362 8364269 8368323 8381936 8406393 8439467 8475685 8508798 8533904 
2114.220 8548265 8552658 8549178 8541068 8530931 8520962 8512413 8507210 
2118.077 8506973 8513461 8527957 8549415 8575977 8604196 8631167 8654894 
2121.935 8675514 8694511 8713510 8734334 8757121 8781735 8807770 8835835 
2125.792 8866642 8901746 8941926 8986643 9033800 9080285 9123291 9160784 
2129.649 9192528 9219265 9242753 9265059 9287705 9312415 9341766 9377993 
2133.507 9424075 9480964 9547684 9620681 9694606 9764306 9826122 9879743 
2137.364 9926725 9969713 10010365 10047562 10078082 10098565 10105891 
2140.740 10100363 10084491 10063432 10041527 10022368 10007178 9995006 
2144.115 9985105 9977172 9971307 9968357 9967746 9967475 9963882 9953507 
2147.972 9932963 9902725 9864625 9821445 9776168 9729031 9679393 9624780 
2151.830 9563129 9493156 9414391 9326126 9227658 9116963 8993882 8861164 
2155.687 8728655 8613119 8535897 8519678 8580303 8719629 8923087 9163052 
2159.544 9405316 9617396 9777320 9874963 9911031 9894352 9838120 9756343 
2163.402 9661539 9563028 9467114 9375690 9288279 9202308 9115711 9028421 
2167.259 8942061 8861332 8790458 8730954 8682308 8639076 8595172 8545968 
2171.117 8489133 8427136 8365215 8309484 8263757 8229009 8202468 8179879 
2174.974 8157494 8133186 8105300 8073974 8037486 7993136 7937994 7871385 
2178.832 7795274 7716748 7645622 7590320 7557210 7546961 7555019 7573394 
2182.689 7594299 7611462 7621983 7624175 7617532 7601582 7576597 7544061 
2186.546 7508629 7476705 7456109 7452401 7466322 7493762 7524946 7550467 
2190.404 7562369 7557648 7539307 7513450 7487087 7465547 7451221 7443266 
2194.261 7440705 7442525 7448592 7460120 7477177 7498313 7520900 7541465 
2198.119 7557480 7567999 7573192 7574574 7572922 7568067 7559065 7545342 
2201.976 7528654 7512640 7502729 7504786 7521406 7552220 7593085 7637124 
2205.833 7677119 7707642 7725450 7729734 7721841 7703662 7678199 7649196 
2209.691 7620971 7598446 7586038 7586308 7598919 7620701 7645790 7668351 
2213.548 7684539 7692768 7693814 7690003 7683123 7674084 7663158 7650107 
2217.406 7635606 7621612 7611395 7607011 7609574 7617431 7627108 7635033 
2221.263 7638472 7636753 7631054 7623871 7616318 7608191 7597266 7581183 
2225.121 7558188 7528823 7495414 7462513 7434941 7415627 7407134 7409258 
2228.978 7420414 7438413 7460154 7482536 7502123 7516315 7523361 7523800 
2232.835 7519787 7514798 7512438 7514865 7522417 7533205 7545005 7555828 
2236.693 7565504 7576159 7590523 7610720 7637258 7668385 7700289 7729970 
2240.550 7754728 7773989 7788629 7799424 7807149 7811501 7812007 7809612 
2244.408 7806609 7807183 7816224 7837073 7870508 7913124 7958814 8000257 
2248.265 8031882 8050042 8055173 8049367 8036777 8021352 8006063 7993473 
2252.123 7985408 7983315 7988512 8000697 8018550 8038565 8056792 8069181 
2255.980 8072894 8067662 8054464 8035764 8013926 7990470 7966137 7941671 
2259.837 7917443 7894430 7873916 7856742 7843011 7832046 7822465 7813626 
2263.695 7805563 7799862 7798277 7802763 7813322 7828335 7844630 7858530 
2267.552 7867539 7870542 7868416 7862782 7855629 7847599 7838996 7829246 
2271.410 7817776 7804821 7791665 7780094 7771155 7766062 7764577 7766230 
2275.267 7770008 7775776 7783029 7791867 7801987 7812614 7822769 7831169 
2279.125 7836803 7839873 7840851 7840818 7840717 7841526 7843348 7846013 
2282.982 7849590 7853571 7857687 7861432 7864198 7865279 7863928 7859880 
2286.839 7852997 7844057 7833767 7822633 7811062 7799322 7787313 7775574 
2290.697 7764982 7756448 7751051 7749398 7751321 7756144 7762756 7770413 
2294.554 7778408 7786908 7795645 7804214 7812074 7817809 7820441 7819192 
2298.412 7814064 7806137 7796759 7787617 7779622 7773010 7767647 7763093 
2302.269 7759079 7755807 7753783 7753851 7756617 7762014 7769907 7779656 
2306.126 7790349 7801414 7811906 7821656 7830393 7838355 7845912 7853875 
2309.984 7862882 7873409 7885353 7898176 7911200 7923449 7934686 7944843 
2313.841 7954698 7964855 7975654 7986826 7997220 8005793 8012172 8016762 
2317.699 8020811 8026212 8034920 8047746 8064792 8085147 8107191 8128999 
2321.556 8148682 8163503 8170425 8165732 8145913 8108575 8053417 7983282 
2325.414 7903912 7822667 7747509 7684876 7638371 7608427 7592242 7585701 
2329.271 7583981 7583442 7582026 7579193 7575451 7571911 7569921 7570730 
2333.128 7575350 7584757 7599424 7619049 7642485 7668048 7693679 7717355 
2336.986 7738402 7756448 7772370 7786638 7800098 7813357 7826513 7839705 
2340.843 7853605 7868416 7884037 7899795 7914203 7924900 7929692 7927836 
2344.701 7920244 7910593 7903810 7906037 7922673 7956958 8009910 8080050 
2348.558 8163740 8255618 8349712 8439568 8518664 8582634 8628835 8657531 
2352.416 8671863 8676900 8678252 8680415 8685824 8695086 8706985 8719594 
2356.273 8731089 8740791 8748568 8755126 8761178 8767805 8775243 8784000 
2360.130 8794312 8805504 8816697 8826570 8833401 8836850 8837154 8835767 
2363.988 8835564 8839284 8848448 8863565 8883044 8904722 8925623 8944090 
2367.845 8959109 8971523 8982178 8992664 9003794 9016073 9029605 9044389 
2371.703 9060459 9078053 9096898 9116659 9136657 9155979 9174286 9191276 
2375.560 9207351 9223022 9238963 9255582 9273420 9292884 9314345 9338720 
2379.417 9366617 9398138 9432642 9468536 9503926 9537050 9566653 9592701 
2383.275 9616447 9639890 9664418 9691658 9721679 9754208 9788300 9823308 
2387.132 9858693 9894318 9930048 9965644 10000431 10033829 10065535 10095648 
2390.990 10124849 10154052 10184070 10215278 10247437 10279736 10311662 
2394.365 10342675 10372775 10402231 10431249 10459894 10488372 10516649 
2397.740 10545097 10575007 10607600 10644170 10685598 10731480 10780457 
2401.115 10830595 10880399 10928306 10974349 11018969 11062881 11106865 
2404.491 11151126 11195696 11240408 11285395 11331408 11378957 11428892 
2407.866 11481384 11536129 11592717 11650573 11709525 11769916 11831574 
2411.241 11894740 11958630 12021882 12083066 12141021 12195235 12246354 
2414.616 12295367 12343396 12391362 12439539 12487412 12534440 12580142 
2417.992 12624553 12667706 12710011 12751773 12793164 12834354 12875753 
2421.367 12918009 12961977 13008134 13056652 13107019 13158348 13209821 
2424.742 13261572 13314286 13370082 13431182 13499196 13574877 13657479 
2428.117 13745191 13836239 13929224 14023630 14119905 14218907 14321116 
2431.493 14426911 14535301 14645262 14755387 14864511 14972256 15078622 
2434.868 15183950 15288789 15393893 15500500 15609811 15723135 15841609 
2438.243 15965685 16094781 16227219 16361244 16494175 16624015 16749760 
2441.618 16870788 16987302 17100022 17209356 17315962 17420074 17521488 
2444.994 17620026 17715444 17807466 17895608 17979796 18060096 18136750 
2448.369 18210376 18281940 18351928 18420888 18488788 18555282 18619986 
2451.744 18682244 18741606 18797894 18851044 18901430 18950160 18998758 
2455.119 19048920 19103240 19164254 19233550 19312454 19400866 19497822 
2458.495 19601664 19710452 19822770 19937616 20054850 20174584 20297438 
2461.870 20424146 20554714 20689352 20827892 20969776 21114562 21262282 
2465.245 21413186 21568636 21730618 21901722 22084468 22280754 22490982 
2468.620 22714054 22947790 23189272 23435888 23686216 23940046 24198264 
2471.996 24461860 24731264 25006272 25285392 25565988 25845606 26121922 
2475.371 26392884 26656652 26911628 27156452 27389662 27610252 27817424 
2478.746 28010488 28188608 28350534 28494334 28617938 28719272 28797088 
2482.121 28851544 28883912 28896234 28890994 28870490 28836674 28791210 
2485.497 28736194 28673680 28606010 28534882 28461220 28384172 28302222 
2488.872 28212616 28112988 28002076 27879990 27747768 27607392 27460252 
2492.247 27306418 27145096 26974380 26791610 26595108 26383730 26157392 
2495.622 25917104 25664716 25401970 25130818 24852958 24569524 24281300 
2498.998 23988750 23691918 23391268 23087576 22782246 22477442 22175922 
2502.373 21879838 21591548 21311836 21040686 20777314 20520566 20269280 
2505.748 20023344 19783132 19549636 19324544 19109440 18905306 18713274 
2509.123 18533946 18367378 18213346 18071426 17940772 17820412 17709716 
2512.499 17608502 17517210 17436596 17367480 17310478 17265276 17230696 
2515.874 17205184 17186984 17175092 17169232 17169748 17177470 17192706 
2519.249 17215390 17244556 17278584 17316618 17357858 17401760 17448392 
2522.624 17497476 17548568 17600736 17653324 17705402 17757104 17808640 
2526.000 17860218 17911594 17961286 18007250 18046590 18076744 18095916 
2529.375 18103240 18098852 18083894 18059508 18026524 17985978 17938528 
2532.750 17884904 17826248 17763526 17698188 17631378 17564094 17497442 
2536.125 17432146 17368688 17308134 17250486 17195568 17143344 17092990 
2539.500 17044054 16996432 16950538 16906992 16866550 16829454 16794840 
2542.876 16762020 16728858 16694009 16656412 16615717 16572446 16527835 
2546.251 16483437 16439937 16398542 16359318 16322505 16287792 16254805 
2549.626 16223365 16193306 16164863 16138075 16113281 16090656 16069716 
2553.001 16049774 16029971 16009344 15987823 15965892 15945369 15928116 
2556.377 15916085 15910139 15909899 15913369 15918009 15920622 15919281 
2559.752 15912510 15900137 15882678 15860820 15835047 15806215 15774809 
2563.127 15742065 15709531 15678957 15651818 15628805 15609536 15592844 
2566.502 15577664 15563377 15549915 15538445 15530581 15527627 15530203 
2569.878 15537895 15549091 15562071 15575157 15587108 15597207 15605758 
2573.253 15613005 15619806 15626986 15635503 15646461 15660957 15679576 
2576.628 15702488 15729148 15758488 15789069 15819410 15848277 15874876 
2580.003 15899071 15920931 15940936 15959909 15978919 15999168 16022304 
2583.379 16049292 16081130 16117683 16158605 16202867 16249646 16298078 
2586.754 16347723 16398370 16449746 16501093 16551862 16601259 16649010 
2590.129 16695388 16741496 16788434 16837480 16889010 16942476 16996776 
2593.504 17050394 17101708 17150136 17195568 17238246 17278894 17318134 
2596.880 17356134 17393138 17429180 17464258 17498822 17533182 17567510 
2600.255 17601944 17636450 17670854 17705022 17739226 17773706 17809020 
2603.630 17845822 17884732 17926340 17971266 18019856 18072704 18129978 
2607.005 18191372 18256402 18324656 18395480 18468596 18544422 18622788 
2610.381 18704244 18788658 18875406 18963590 19052452 19141330 19229844 
2613.756 19318034 19406168 19494324 19582564 19670614 19758476 19846180 
2617.131 19934146 20022478 20111242 20199784 20286882 20370910 20450368 
2620.506 20525012 20594806 20661032 20725252 20788612 20851948 20915152 
2623.882 20977530 21038390 21097344 21153870 21208420 21260614 21310550 
2627.257 21357774 21402152 21443680 21482984 21520934 21558538 21596494 
2630.632 21634836 21672972 21710416 21746260 21780296 21812732 21844298 
2634.007 21874960 21904684 21932878 21958564 21981184 22000390 22016596 
2637.383 22031168 22045112 22059544 22075126 22092280 22110722 22131012 
2640.758 22153188 22177876 22205320 22235380 22267640 22301404 22336040 
2644.133 22371308 22407800 22446388 22487910 22533312 22582766 22635890 
2647.508 22692164 22750820 22811438 22873392 22936054 22998900 23060950 
2650.884 23120738 23177390 23230306 23279910 23326898 23372804 23419242 
2654.259 23467188 23517344 23569780 23624248 23680406 23737970 23796696 
2657.634 23856690 23917430 23978840 24040122 24100850 24160572 24218900 
2661.009 24275974 24331760 24386606 24440444 24493374 24545330 24596242 
2664.385 24646002 24694714 24742522 24789634 24836082 24882078 24928046 
2667.760 24973914 25020206 25066996 25114704 25163292 25212734 25262948 
2671.135 25313488 25363962 25413738 25462926 25511696 25560400 25610306 
2674.510 25662396 25717868 25777390 25841562 25909718 25981472 26055842 
2677.885 26132196 26209830 26288640 26368484 26449048 26530190 26611594 
2681.261 26692872 26774096 26855332 26937256 27020534 27105946 27193594 
2684.636 27283696 27375934 27470064 27565660 27663256 27762636 27864552 
2688.011 27969634 28077890 28189388 28303922 28420926 28539978 28660374 
2691.386 28781510 28902750 29023600 29144096 29264444 29385290 29507514 
2694.762 29631974 29759450 29890406 30024846 30162842 30303940 30448068 
2698.137 30594980 30744398 30895894 31048724 31202320 31356328 31510602 
2701.512 31665396 31821386 31979356 32139242 32301004 32464114 32627572 
2704.887 32790516 32952630 33113622 33273890 33433822 33593492 33753220 
2708.263 33912828 34072524 34232468 34393504 34556076 34721288 34889548 
2711.638 35061428 35236748 35415884 35598508 35784704 35974212 36166724 
2715.013 36361660 36558236 36755228 36951404 37145720 37337160 37524532 
2718.388 37707216 37884552 38056208 38222652 38384852 38544288 38703096 
2721.764 38863336 39026864 39195240 39369664 39550876 39739424 39936008 
2725.139 40140532 40352788 40572280 40797772 41028196 41262380 41499648 
2728.514 41739596 41982272 42227492 42474748 42722952 42970488 43215392 
2731.889 43455744 43690032 43916932 44135812 44345736 44546072 44736140 
2735.265 44915228 45082780 45238516 45382648 45515460 45637964 45751120 
2738.640 45856240 45955344 46049904 46141832 46232672 46323972 46416548 
2742.015 46511688 46611088 46716456 46830440 46955688 47094440 47247764 
2745.390 47415588 47595864 47786156 47982868 48182740 48382704 48580128 
2748.766 48772192 48956112 49128748 49286760 49426748 49546428 49644260 
2752.141 49719492 49772584 49804280 49815576 49807104 49779272 49731824 
2755.516 49664060 49574468 49461392 49322652 49155948 48959556 48732344 
2758.891 48473976 48185440 47868168 47524476 47156600 46767672 46360472 
2762.267 45938404 45505488 45065872 44624092 44184888 43753132 43333264 
2765.642 42929744 42546880 42188200 41856816 41554992 41284024 41044072 
2769.017 40834976 40655664 40505308 40383004 40287996 40219184 40175240 
2772.392 40153904 40152488 40167680 40195812 40233212 40276912 40323588 
2775.768 40370532 40415188 40454860 40487304 40510836 40524112 40526336 
2779.143 40517348 40497344 40466572 40425912 40376568 40320064 40258988 
2782.518 40196320 40134932 40077152 40024756 39978328 39937388 39901100 
2785.893 39867936 39836668 39805548 39772864 39736228 39692988 39640200 
2789.269 39575080 39495312 39399920 39288952 39163652 39026284 38879568 
2792.644 38726640 38571048 38416416 38266256 38123996 37993028 37876092 
2796.019 37775488 37693196 37630536 37588548 37568244 37570268 37594980 
2799.394 37642316 37711840 37802852 37914632 38046660 38198196 38368748 
2802.770 38557468 38762940 38983148 39215728 39457576 39705692 39957696 
2806.145 40211040 40463916 40714104 40959444 41197236 41424336 41637692 
2809.520 41833756 42009392 42161396 42287344 42385128 42453376 42491300 
2812.895 42499160 42477816 42429004 42355064 42258712 42143068 42011908 
2816.271 41869076 41719316 41567608 41419196 41278964 41152284 41043016 
2819.646 40954860 40890344 40851392 40838760 40852556 40891724 40954384 
2823.021 41037736 41138552 41252692 41375788 41503804 41632040 41756740 
2826.396 41874000 41980484 42073376 42150664 42211060 42254188 42280372 
2829.771 42290708 42286944 42270876 42244764 42210840 42171076 42127628 
2833.147 42082468 42037312 41993804 41953260 41916764 41884872 41857688 
2836.522 41834156 41813540 41793768 41773960 41753604 41733032 41714576 
2839.897 41701444 41697360 41707060 41734672 41783848 41858056 41959788 
2843.272 42092288 42258932 42463748 42711584 43007476 43355080 43756760 
2846.648 44210680 44710576 45243812 45791880 46332232 46837124 47280052 
2850.023 47636756 47887776 48022392 48038268 47941760 47745624 47468288 
2853.398 47131152 46754936 46359880 45963816 45580368 45220096 44889328 
2856.773 44591192 44325628 44090592 43882732 43697544 43530452 43376904 
2860.149 43232592 43093456 42956332 42818236 42676744 42530144 42376800 
2863.524 42216132 42047644 41872540 41692656 41511752 41334968 41168240 
2866.899 41018072 40890452 40789984 40720544 40683752 40680332 40709300 
2870.274 40768000 40852772 40957696 41075284 41197384 41314888 41420364 
2873.650 41508216 41575192 41621356 41648632 41660268 41659868 41650312 
2877.025 41633684 41611108 41583104 41549852 41511716 41469136 41422952 
2880.400 41374436 41325568 41278416 41235492 41198988 41169988 41148896 
2883.775 41134580 41125112 41117388 41108972 41097536 41081912 41061844 
2887.151 41038176 41012280 40986716 40964140 40948232 40943024 40952892 
2890.526 40982384 41036244 41119248 41237276 41397324 41608120 41881040 
2893.901 42229024 42665228 43202324 43848972 44607056 45468732 46415368 
2897.276 47414848 48420964 49380452 50233284 50919364 51391432 51615716 
2900.652 51580600 51296296 50794056 50120592 49327184 48468604 47593348 
2904.027 46739148 45936452 45204800 44555948 43995980 43526388 43145124 
2907.402 42848076 42630104 42486000 42411104 42402812 42459328 42580028 
2910.777 42763936 43009452 43312432 43666916 44064260 44492728 44940108 
2914.153 45391220 45830172 46242144 46612712 46930544 47189212 47385912 
2917.528 47522736 47604956 47639784 47634460 47594864 47525324 47427780 
2920.903 47302440 47148880 46966428 46756192 46521164 46266876 46001904 
2924.278 45737316 45484700 45256204 45062528 44910784 44805120 44745836 
2927.654 44729528 44750024 44798988 44866988 44943452 45018456 45083108 
2931.029 45129576 45152664 45148988 45117188 45057012 44969100 44854164 
2934.404 44712888 44546180 44355464 44143004 43912024 43666696 43411104 
2937.779 43150100 42888416 42630760 42382648 42149716 41938004 41752912 
2941.155 41599076 41478832 41392004 41335808 41305164 41292004 41287340 
2944.530 41280968 41261068 41217456 41140008 41021384 40858160 40650896 
2947.905 40405404 40130684 39838848 39543108 39254788 38983876 38737252 
2951.280 38519052 38330744 38172288 38042320 37938752 37859316 37801588 
2954.656 37763308 37742200 37736636 37745016 37766124 37798768 37841856 
2958.031 37894348 37955384 38024380 38101096 38185312 38276784 38375116 
2961.406 38479736 38590020 38705596 38825976 38951036 39080552 39214060 
2964.781 39350328 39487908 39625028 39760520 39893508 40024288 40153944 
2968.156 40284144 40417112 40554960 40699840 40854232 41020620 41201612 
2971.532 41399696 41616288 41851488 42103640 42368980 42641392 42913360 
2974.907 43176156 43419852 43634856 43812464 43945972 44031512 44069176 
2978.282 44063196 44021684 43954624 43873972 43790220 43711944 43645408 
2981.657 43593680 43557156 43534592 43522872 43517596 43513204 43503536 
2985.033 43481452 43439556 43371412 43271648 43137072 42967164 42763788 
2988.408 42531348 42275916 42004828 41725336 41443544 41164632 40891580 
2991.783 40625576 40366820 40114728 39868700 39628620 39394588 39166336 
2995.158 38943208 38723272 38503412 38279680 38048436 37806392 37552496 
2998.534 37287260 37012992 36733048 36451092 36170252 35892800 35619944 
3001.909 35352224 35089912 34832960 34581480 34336052 34097004 33865000 
3005.284 33640532 33424266 33216730 33018726 32830968 32653860 32487396 
3008.659 32331452 32185018 32046594 31914630 31787124 31662650 31539890 
3012.035 31418196 31297352 31177364 31058548 30941116 30825316 30711252 
3015.410 30599176 30489546 30382998 30280386 30182590 30089790 30001980 
3018.785 29918340 29837876 29759380 29682420 29607284 29535106 29467868 
3022.160 29407590 29356360 29315486 29285534 29266820 29259200 29262318 
3025.536 29276248 29301096 29337074 29384154 29441628 29507620 29579122 
3028.911 29652052 29721058 29779960 29823858 29848098 29850476 29830954 
3032.286 29791670 29736030 29668158 29591926 29509996 29424396 29336330 
3035.661 29246794 29156780 29067812 28981270 28898360 28819960 28745574 
3039.037 28675028 28607462 28542314 28479650 28419580 28362948 28310216 
3042.412 28261626 28217390 28177330 28141234 28109172 28081036 28056894 
3045.787 28036640 28020100 28007270 27997870 27992498 27991296 27994620 
3049.162 28002358 28014020 28028370 28044238 28060426 28076122 28091038 
3052.538 28105424 28119742 28134446 28150214 28167396 28186594 28208550 
3055.913 28234044 28263784 28297732 28335502 28376178 28418484 28461572 
3059.288 28505480 28551124 28599852 28653470 28712866 28778360 28849136 
3062.663 28923646 29000362 29077768 29155256 29232652 29310454 29389010 
3066.039 29468860 29550074 29632542 29715770 29798910 29880822 29960266 
3069.414 30035212 30104386 30166180 30219710 30264860 30302164 30332542 
3072.789 30357554 30378912 30398278 30417112 30436766 30458018 30481370 
3076.164 30506642 30533514 30561422 30590038 30619192 30648882 30679498 
3079.540 30710970 30743118 30775446 30807388 30838796 30870030 30902156 
3082.915 30936844 30974954 31017444 31063816 31112826 31163088 31213250 
3086.290 31262740 31312168 31362132 31414062 31468708 31526350 31586890 
3089.665 31649820 31715118 31783238 31854686 31929962 32008924 32090790 
3093.041 32173708 32256390 32337200 32415628 32491860 32567032 32642466 
3096.416 32719698 32799806 32883324 32970612 33061170 33154390 33249278 
3099.791 33344618 33439260 33532600 33624636 33716300 33808692 33903080 
3103.166 33999960 34098764 34197908 34295284 34389024 34478084 34562608 
3106.542 34643984 34724092 34804892 34887932 34973504 35061712 35152064 
3109.917 35244404 35338816 35435548 35534860 35636848 35741060 35846340 
3113.292 35951824 36056148 36158228 36257160 36352404 36443668 36531456 
3116.667 36616524 36700740 36785916 36873844 36965760 37061848 37161092 
3120.042 37261772 37362148 37460776 37557224 37651996 37746140 37840696 
3123.418 37936508 38033136 38130036 38226128 38320860 38414464 38507464 
3126.793 38601140 38696648 38794528 38894860 38996812 39099256 39201076 
3130.168 39301212 39399160 39495132 39589564 39683508 39777836 39873712 
3133.543 39971428 40070904 40171680 40272840 40373404 40472936 40571296 
3136.919 40669016 40767056 40866388 40967528 41070660 41175304 41281076 
3140.294 41387048 41493088 41599260 41705676 41812556 41920160 42028008 
3143.669 42135584 42242716 42349256 42455640 42562632 42671296 42781852 
3147.044 42894520 43008428 43122436 43235192 43345928 43454424 43561076 
3150.420 43666916 43772920 43879472 43986848 44094112 44200668 44305812 
3153.795 44409448 44512148 44615060 44719172 44825216 44933012 45042052 
3157.170 45150900 45258740 45364772 45469468 45573452 45678048 45783888 
3160.545 45891300 45999916 46108816 46217412 46325080 46431924 46537872 
3163.921 46643296 46748000 46851740 46953952 47054672 47153940 47252784 
3167.296 47352208 47453540 47556860 47661896 47767592 47872128 47974360 
3170.671 48073612 48170004 48264492 48358632 48453640 48550668 48649760 
3174.046 48750616 48852312 48953736 49053624 49151048 49245712 49337652 
3177.422 49427528 49516236 49604592 49693184 49782024 49870504 49958000 
3180.797 50043956 50128368 50211936 50295820 50381168 50469068 50559328 
3184.172 50651284 50743852 50835924 50927044 51017172 51107064 51197160 
3187.547 51287684 51378376 51468344 51557168 51644448 51730476 51815920 
3190.923 51902020 51989216 52077816 52167476 52257268 52346708 52434928 
3194.298 52521524 52606116 52688332 52767940 52844276 52917664 52988444 
3197.673 53058076 53128056 53199512 53273484 53350016 53428704 53508600 
3201.048 53588996 53669220 53748792 53827392 53904740 53980788 54055304 
3204.424 54128936 54202732 54277704 54354748 54433840 54513736 54592708 
3207.799 54668160 54738848 54804628 54866620 54927188 54988596 55052120 
3211.174 55117680 55183632 55248424 55310364 55369380 55427160 55485888 
3214.549 55548052 55615384 55688112 55765300 55845024 55924992 56003768 
3217.925 56080180 56153776 56224524 56292680 56358880 56423812 56488676 
3221.300 56554644 56622548 56692728 56764956 56837916 56910472 56981684 
3224.675 57051240 57119864 57188424 57258352 57330564 57404944 57481224 
3228.050 57558428 57635456 57711856 57786828 57860380 57932236 58002704 
3231.426 58072232 58141664 58212048 58284456 58359644 58437876 58518436 
3234.801 58600220 58681528 58761188 58838656 58913900 58987716 59061352 
3238.176 59136140 59213108 59293356 59377456 59465784 59557820 59652500 
3241.551 59747696 59840744 59929360 60012056 60088572 60160456 60229992 
3244.927 60300340 60374008 60452260 60535516 60622868 60713512 60806308 
3248.302 60901068 60997716 61096296 61196156 61296532 61396060 61493736 
3251.677 61588836 61681060 61770664 61858564 61945532 62032128 62119244 
3255.052 62207528 62297812 62390644 62486248 62584208 62683260 62782184 
3258.427 62879176 62973052 63063724 63151544 63237584 63322760 63407412 
3261.803 63491620 63574576 63655176 63732908 63807316 63878976 63948268 
3265.178 64016216 64083300 64150088 64217120 64284848 64353780 64424796 
3268.553 64498208 64574400 64652800 64732828 64812908 64891844 64968304 
3271.928 65041764 65112008 65179692 65245992 65312536 65380664 65451540 
3275.304 65525396 65601924 65679820 65758488 65837332 65916888 65998264 
3278.679 66083244 66173224 66268584 66368944 66472648 66577308 66681176 
3282.054 66783144 66883468 66983236 67084232 67188264 67296576 67410168 
3285.429 67529456 67654848 67786672 67925120 68069808 68220176 68374736 
3288.805 68531608 68688848 68844936 68999096 69151688 69303984 69457952 
3292.180 69616384 69781296 69954552 70137344 70329840 70531256 70740112 
3295.555 70954912 71173880 71396312 71622256 71852280 72087264 72327976 
3298.930 72574192 72825088 73079576 73337080 73596976 73860280 74128352 
3302.306 74402720 74684896 74975400 75274544 75581416 75895536 76216312 
3305.681 76543216 76876064 77214472 77557888 77905912 78258688 78616640 
3309.056 78980528 79351048 79728328 80111240 80498280 80887416 81277384 
3312.431 81668464 82061976 82460136 82864912 83277200 83696248 84119912 
3315.807 84545240 84970176 85393640 85815928 86238200 86661720 87086912 
3319.182 87513704 87941144 88368000 88793888 89217888 89639600 90058144 
3322.557 90472024 90879560 91279264 91670696 92054176 92430688 92801832 
3325.932 93167744 93527888 93880760 94224080 94556392 94876464 95183520 
3329.308 95477344 95756496 96018872 96261896 96483536 96682360 96859112 
3332.683 97015224 97152328 97271032 97370200 97447160 97498624 97521976 
3336.058 97516256 97482696 97424104 97343664 97244256 97126768 96990992 
3339.433 96835088 96657064 96454408 96225464 95968536 95683096 95368952 
3342.809 95026832 94657776 94263432 93844608 93401912 92934992 92442992 
3346.184 91925664 91383736 90819480 90236616 89639512 89031480 88414744 
3349.559 87789680 87155232 86510056 85853560 85186328 84510344 83828408 
3352.934 83143128 82457288 81773136 81092440 80417368 79750544 79093928 
3356.310 78449176 77816760 77195904 76585664 75984640 75392928 74811312 
3359.685 74241664 73686168 73146040 72621384 72111008 71612928 71125080 
3363.060 70645944 70175592 69714336 69263832 68825328 68400568 67991064 
3366.435 67597824 67221408 66862172 66519184 66190280 65872580 65562500 
3369.811 65256692 64952680 64648604 64343944 64038640 63732752 63426048 
3373.186 63117868 62807760 62495508 62181220 61865100 61547256 61227096 
3376.561 60903240 60573952 60237376 59892464 59538820 59177072 58807888 
3379.936 58431924 58049244 57658992 57259752 56850116 56429016 55996456 
3383.312 55552800 55100076 54640312 54176120 53709492 53242844 52776920 
3386.687 52312432 51849036 51385948 50922236 50457568 49992056 49526748 
3390.062 49062640 48601288 48143868 47691332 47244624 46804980 46373668 
3393.437 45952216 45541584 45141964 44751604 44367940 43987180 43605804 
3396.813 43221796 42834692 42445776 42057572 41672488 41292260 40917432 
3400.188 40547576 40181676 39819056 39459388 39102704 38749280 38398860 
3403.563 38050604 37703420 37356300 37008876 36661948 36317168 35976660 
3406.938 35642028 35313908 34992068 34675564 34362916 34053388 33746772 
3410.313 33443340 33143982 32848906 32557956 32270384 31985204 31701822 
3413.689 31420152 31141588 30868074 30601452 30343448 30094868 29854168 
3417.064 29619558 29387240 29154478 28918546 28678566 28435288 28191368 
3420.439 27949634 27713648 27485630 27266304 27054916 26849446 26647810 
3423.814 26448098 26249674 26052854 25859040 25669884 25486818 25310010 
3427.190 25138788 24971562 24805944 24639794 24471430 24300046 24125860 
3430.565 23949604 23772932 23597766 23425468 23257536 23094774 22936928 
3433.940 22783396 22632922 22484246 22335970 22186802 22036432 21884788 
3437.315 21732396 21580614 21430906 21284484 21142216 21004586 20871276 
3440.691 20741204 20613532 20487150 20361430 20236614 20112562 19989482 
3444.066 19866784 19742906 19616258 19485278 19349108 19208684 19066402 
3447.441 18925796 18790628 18663116 18544076 18431914 18324172 18217978 
3450.816 18110908 18002106 17891950 17781404 17671580 17562922 17454944 
3454.192 17346686 17237144 17125904 17013248 16900068 16787778 16677482 
3457.567 16569588 16464407 16361484 16260549 16161047 16062977 15965994 
3460.942 15869996 15774775 15680330 15586662 15493907 15402441 15312265 
3464.317 15222966 15134027 15044422 14953909 14862248 14770229 14678950 
3467.693 14589130 14501350 14414991 14329198 14242531 14154376 14064732 
3471.068 13974593 13885671 13799674 13717490 13639254 13564314 13491744 
3474.443 13420691 13351016 13282821 13216652 13153055 13092233 13033741 
3477.818 12976725 12920467 12864115 12806439 12747200 12685481 12621108 
3481.194 12554869 12487958 12422695 12361703 12307195 12260533 12220896 
3484.569 12186579 12154310 12121327 12085315 12045796 12003454 11960027 
3487.944 11917353 11877305 11840462 11807298 11778290 11753302 11732639 
3491.319 11716300 11703433 11692506 11681716 11669292 11654215 11637198 
3494.695 11620249 11606228 11597890 11596971 11603812 11617254 11635734 
3498.070 11657924 11683146 11711636 11743940 11780402 11820271 11861947 
3501.445 11903049 11941431 11976511 12009176 12042492 12080477 12127255 
3504.820 12185966 12257533 12341418 12434799 12534440 12636492 12738124 
3508.196 12837563 12934838 13031419 13129866 13233116 13343362 13461667 
3511.571 13587696 13719507 13854370 13989341 14121959 14250611 14374780 
3514.946 14494121 14609314 14720389 14827276 14929526 15027511 15120510 
3518.321 15209239 15294280 15375562 15452567 15523472 15585392 15634473 
3521.697 15665937 15676243 15662914 15625818 15566605 15489751 15399626 
3525.072 15299669 15191911 15076049 14949518 14809483 14653692 14481720 
3528.447 14295775 14099471 13897337 13693689 13491129 13291088 13093462 
3531.822 12897290 12701208 12503611 12302661 12096080 11882720 11661872 
3535.198 11434845 11205181 10977849 10758753 10552396 10361169 10184850 
3538.573 10020673 9864964 9713512 9563807 9415068 9267429 9121836 8978727 
3542.430 8837526 8697012 8555193 8410414 8261697 8109351 7955068 7801920 
3546.288 7653985 7515371 7389473 7277932 7180096 7092520 7009373 6924660 
3550.145 6832389 6729370 6615206 6493605 6370390 6251446 6141474 6042314 
3554.002 5952515 5869485 5790198 5713243 5638785 5568199 5502725 5442529 
3557.860 5385528 5328702 5267793 5199916 5124305 5042808 4959382 4879223 
3561.717 4806750 4744540 4692755 4648713 4607622 4563521 4509514 4440284 
3565.575 4352489 4246175 4125603 3999213 3877172 3768200 3678101 3608067 
3569.432 3554714 3512992 3476817 3442316 3406916 3370651 3334155 3299197 
3573.290 3266112 3234265 3201919 3167140 3128091 3084274 3036490 2985976 
3577.147 2934967 2884932 2837104 2792082 2750233 2711722 2677415 2647577 
3581.004 2622875 2603508 2588542 2576876 2566043 2553445 2536181 2511085 
3584.862 2475828 2428344 2368239 2297117 2218413 2138092 2063013 1999330 
3588.719 1951566 1920980 1905970 1902443 1905305 1909631 1911262 1906969 
3592.577 1895521 1876818 1851728 1821581 1787777 1751347 1713257 1674239 
3596.434 1635457 1598275 1564055 1533895 1507894 1485351 1464971 1445157 
3600.292 1424712 1403437 1381930 1362187 1345900 1334799 1330412 1333403 
3604.149 1343939 1360491 1380601 1400412 1414606 1417664 1405166 1375449 
3608.006 1330578 1277006 1223406 1178020 1145827 1127323 1118586 1113836 
3611.864 1107092 1095101 1078060 1059825 1045044 1037571 1038601 1045410 
3615.721 1052783 1053946 1042852 1015319 970652 911014 842985 774668 715090 
3620.061 671582 648320 645002 658076 681936 710079 737659 762254 784659 
3624.400 807630 834387 866357 900322 929044 940234 921108 862573 766038 
3628.740 646428 528079 436926 387675 380379 403494 441072 477591 501375 
3633.080 506749 494276 468735 437390 407408 384193 369634 363864 365390 
3637.419 372785 383961 397027 410525 422598 431752 437622 440442 441901 
3641.759 444057 449729 460973 478818 503398 533255 565701 597353 624130 
3646.098 641882 646263 634682 605117 557672 494342 419878 341083 267076 
3650.438 207766 172231 165171 186949 232165 291843 353584 405517 436860 
3654.778 441138 417656 373083 319562 270060 234254 215258 210385 213568 
3659.117 218607 221988 222784 222518 222850 225999 231569 238696 246023 
3663.457 253217 260644 270491 284814 304674 329941 358061 385287 406048 
3667.796 414771 406977 380744 338563 288991 245592 221458 226132 260843 
3672.136 318103 383994 440972 471919 462532 407673 315616 208960 115951 
3676.476 56961 37608 48776 76049 104020 124237 134445 137892 140411 147305 
3681.297 160564 179126 199678 219734 239393 260810 287599 322314 364130 
3685.637 408569 448203 474141 479382 460741 420906 367446 309714 256234 
3689.977 211347 176507 151150 134975 128247 131197 143262 162155 183767 
3694.316 203755 218441 226032 227988 227392 229082 236442 251228 272082 
3698.656 295523 316412 329609 331035 319231 295324 263495 230143 201733 
3702.995 183866 180087 191126 215490 250001 290914 334683 378290 419149 
3707.335 456097 487509 511658 526222 528146 514379 483363 435765 375637 
3711.675 310709 250466 203656 175877 168419 178927 201335 229381 257163 
3716.014 280537 297479 308753 316744 324437 334219 346819 360847 373315 
3720.354 381109 382004 375968 365191 353485 344565 340751 341945 345725 
3724.693 348345 346587 339093 326857 314058 306332 308421 322779 348212 
3729.033 381142 415898 446478 468967 482169 488736 493712 503033 519620 
3733.373 541548 561686 570113 558236 521909 465252 398918 338032 294595 
3737.712 275663 281598 309151 353120 409530 474738 545928 618224 684591 
3742.052 733643 751765 727038 655189 547421 431022 341812 304641 324171 
3746.391 386349 468801 548648 606643 631330 619285 576019 512853 442830 
3750.731 376632 319529 274303 243073 228817 234917 262368 308587 366948 
3755.071 428468 484258 527151 553027 561321 554885 537302 511692 481107 
3759.410 447540 414771 387642 371657 370961 385785 412814 444621 472947 
3763.750 491324 496532 491324 481970 476430 480245 493513 510962 523899 
3768.089 523899 505256 467839 417722 365158 321088 293368 284946 293965 
3772.429 315285 342906 371823 398520 421536 441470 459314 476397 492518 
3776.769 506251 514710 514876 504559 484258 457457 430259 409431 399614 
3781.108 401704 412549 426246 435865 436030 424356 402533 374974 348113 
3785.448 327587 316512 315583 323011 335976 351296 366418 379517 389864 
3789.787 396828 401306 404688 409232 417159 430193 447971 468668 488172 
3794.127 501773 506019 499617 485552 469995 460807 464622 483827 515374 
3798.467 551368 580996 592144 575621 527914 455135 371856 300198 258522 
3802.806 256466 290715 349306 415600 471554 502934 501607 468270 413610 
3807.146 355209 312367 296153 308322 341912 386548 432216 473279 508109 
3811.485 539425 571009 604619 638830 667965 683529 677522 646229 593571 
3815.825 532458 480709 453012 456561 487907 535046 582057 613379 616432 
3820.165 585939 526620 453775 389267 350766 346952 375040 424687 481339 
3824.504 531795 566962 582854 581128 568521 554222 546127 548549 561222 
3828.844 580399 600605 616929 626519 629107 626652 622106 618754 618821 
3833.183 623333 631961 643276 655554 665708 670354 666538 651871 626419 
3837.523 593073 557672 526786 506019 497925 501143 511559 524065 533421 
3841.863 536572 532127 520980 505521 489599 476496 469630 471222 482368 
3846.202 502934 531961 567625 608535 653497 701649 752496 804543 854571 
3850.542 896438 919879 913106 863270 764080 621376 458353 306498 194772 
3854.881 137461 131595 164442 220662 287101 354612 417258 472284 518558 
3859.221 555781 584214 604852 619053 629472 638066 646528 654459 660067 
3863.561 660764 655289 645068 634748 630069 635876 652999 676626 697733 
3867.900 705930 691394 650742 588693 519189 460409 425914 420807 439546 
3872.240 470990 502105 522904 529572 524132 514047 507976 513317 532658 
3876.579 564241 602496 640555 671715 689967 692423 679381 654957 626287 
3880.919 602131 589456 591945 608203 632392 656350 670786 668728 648254 
3885.259 613810 576052 548051 540255 556378 592509 639095 684757 718675 
3889.598 732382 722259 690498 644869 595827 554288 528743 522340 535278 
3893.938 564274 605051 652567 702014 749044 789705 820776 840362 847898 
3898.277 844379 832395 815929 798369 782734 769756 758238 744994 726175 
3902.617 699293 663419 621177 577545 539259 512554 500910 504526 520118 
3906.957 543207 568023 590452 607904 619982 627946 633952 640190 648419 
3911.296 658972 671848 686549 701915 717181 731419 743567 752396 756844 
3915.636 756080 749873 738987 724416 708187 691660 676527 663883 654957 
3919.975 650211 650045 653994 660399 666970 671516 671516 666206 656749 
3924.315 645997 638000 636208 642845 658043 679779 704868 730324 753690 
3928.655 773274 788809 799696 805605 805738 799331 786153 766735 743368 
3932.994 718907 696472 678717 666903 661029 659934 662490 667235 673474 
3937.334 680675 688640 697169 705798 713962 720500 724516 724981 721263 
3941.673 713132 701749 689104 677821 671151 671416 679514 694647 713962 
3946.013 734108 751168 762221 766137 763316 755582 745194 734407 724018 
3950.353 714460 706063 698961 693883 691461 692489 696206 701981 707756 
3954.692 712004 713929 713696 712900 713232 715920 721562 729992 739750 
3959.032 749309 757740 764677 769888 773938 776992 779182 780908 782502 
3963.371 784792 788908 795315 804609 815564 827083 836677 843018 845209 
3967.711 843815 840064 835781 832627 831930 834287 840130 849492 862174 
3972.051 877679 895010 912143 927450 938806 945049 946112 943123 938175 
3976.390 933394 930505 930239 932663 936648 941496 946344 950628 953749 
3980.730 955144 954114 949797 942260 932398 921573 912375 906764 905867 
3985.069 910084 917489 926653 935087 941496 945149 946344 945979 944518 
3989.409 942326 939437 935585 931069 925823 920278 915131 910283 905768 
3993.749 901252 896537 891690 887174 883655 881663 881497 882393 883555 
3998.088 883655 881762 877446 871171 863768 856431 
##END=
