
##TITLE=mdmaHCL00398_1
##JCAMP-DX=5.01  $$ Nicolet v. 1
##DATATYPE=INFRARED SPECTRUM
##ORIGIN=UniL
##OWNER=Nicolet
##LONGDATE=2011/08/24
##TIME=09:31:07
##SPECTROMETER/DATA SYSTEM=Nicolet iS5
##DATA PROCESSING=
Ratio against background
%Transmittance->Absorbance
Truncated
ElementMultiply or ElementDivide
##COMMENTS=
Number of sample scans: 32
Collection length: 51.19 sec
Sample gain: 2.0
Background collected on: Mer Aout 24 09:29:50 2011 (GMT+02:00);
Number of background scans: 32
Background gain: 2.0
Sample spacing:  1.000
Number of scan points: 12415
Resolution points: 8192
Number of FFT points: 65536
Apodization: N-B fort;
Phase correction: Mertz;
Laser frequency: 15798.0 cm-1
Number of rejected sample scans: 0
Number of rejected background scans: 0
Bench serial number: ASB1000141;
##RESOLUTION=4.000
##XUNITS=1/CM
##YUNITS=ABSORBANCE
##FIRSTX=649.893372
##LASTX=4000.122314
##FIRSTY=0.091131
##MAXX=4000.122314
##MINX=649.893372
##MAXY=0.223100
##MINY=-0.000768
##XFACTOR=1.000000
##YFACTOR=1.000000E-009
##NPOINTS=6950
##DELTAX=0.482117
##ZPD=6100
##XYDATA=(X++(Y..Y))
649.893 91131448 90330808 89604128 88972872 88433792 87969832 87564688 
653.268 87214608 86928304 86720824 86600720 86558944 86569744 86601896 
656.643 86629928 86646104 86662288 86700272 86778760 86901744 87055856 
660.018 87216304 87361576 87480544 87579360 87675728 87791464 87942040 
663.393 88132160 88356464 88603120 88859264 89107584 89324704 89477888 
666.767 89525696 89436288 89212920 88911064 88613976 88396632 88291376 
670.142 88284104 88331256 88378232 88379536 88305584 88153016 87936968 
673.517 87683152 87411496 87126312 86818656 86474472 86085792 85658264 
676.892 85210840 84764280 84334312 83923184 83520544 83110904 82683136 
680.267 82235288 81774248 81309992 80848824 80389536 79925600 79449456 
683.642 78958752 78459696 77963280 77479784 77013280 76559416 76108552 
687.016 75653856 75195384 74743336 74314760 73926472 73587320 73295696 
690.391 73040808 72809968 72594168 72393304 72214840 72069896 71967784 
693.766 71911392 71897904 71921760 71978888 72069936 72199896 72374600 
697.141 72597448 72866896 73176344 73518080 73887304 74283424 74710320 
700.516 75172296 75669640 76196256 76740776 77289840 77832656 78364240 
703.890 78883888 79392336 79886800 80358792 80794696 81182752 81516016 
707.265 81797208 82036800 82249336 82447472 82638728 82826696 83014464 
710.640 83209616 83426544 83682184 83989872 84350688 84748008 85148592 
714.015 85507192 85780968 85938520 85967352 85874360 85683448 85428968 
717.390 85147792 84881456 84675320 84574224 84628208 84881904 85364152 
720.765 86079320 86993832 88035936 89092776 90032984 90728816 91072112 
724.139 91007920 90542256 89747304 88739592 87660848 86647600 85794528 
727.514 85150088 84713176 84449320 84307600 84241136 84220864 84233056 
730.889 84275288 84347512 84444288 84554136 84665136 84769072 84867192 
734.264 84968928 85087768 85232568 85404568 85595432 85792352 85984360 
737.639 86166592 86341544 86515672 86694688 86879368 87064680 87243888 
741.013 87412504 87571904 87729416 87893400 88069656 88257064 88448256 
744.388 88632904 88804584 88962664 89114456 89270048 89437424 89619112 
747.763 89810696 90004768 90194448 90377600 90556992 90737312 90921472 
751.138 91107256 91287928 91456448 91608336 91745792 91876496 92009576 
754.513 92151416 92302360 92456440 92605600 92744152 92872072 92994664 
757.888 93119632 93252544 93393808 93539600 93683840 93823960 93962576 
761.262 94107856 94268992 94452720 94660256 94887304 95128280 95382240 
764.637 95656872 95972384 96358640 96848216 97471336 98243968 99158168 
768.012 100173104 101213344 102174784 102928664 103354616 103364288 
770.905 102925128 102078456 100934472 99655672 98403528 97311120 96451968 
774.279 95828456 95385008 95032728 94687608 94283192 93785224 93185776 
777.654 92487096 91686824 90771736 89716792 88495736 87091288 85500736 
781.029 83737872 81829368 79811696 77724936 75611384 73516472 71481496 
784.404 69543936 67733424 66067084 64552644 63189796 61974384 60902400 
787.779 59971240 59178972 58522492 57996112 57590812 57296124 57103536 
791.154 57008508 57011908 57119220 57337260 57672804 58128896 58705540 
794.528 59400132 60209400 61130052 62159772 63297728 64544724 65905124 
797.903 67389352 69018136 70825520 72854160 75153624 77765832 80707624 
801.278 83951480 87406096 90915712 94241704 97098256 99196344 100266304 
804.653 100137968 98774192 96292752 92941880 89053888 84986056 81015248 
808.028 77310344 73908600 70738424 67666968 64560524 61342784 58011600 
811.402 54640916 51343880 48248420 45457216 43025804 40968840 39263420 
814.777 37867272 36728936 35801040 35043792 34422664 33910500 33486288 
818.152 33133648 32843296 32610354 32432086 32306146 32227662 32189730 
821.527 32185874 32211606 32266456 32353512 32477718 32643252 32851518 
824.902 33101142 33389308 33713396 34072136 34465028 34891596 35349564 
828.277 35835256 36346388 36884772 37460416 38093752 38817720 39672548 
831.651 40704280 41960152 43476396 45271136 47328192 49587988 51930024 
835.026 54172060 56098956 57465832 58057612 57740164 56482184 54377508 
838.401 51616424 48463788 45189688 42025780 39153064 36671176 34613664 
841.776 32963604 31674486 30687212 29941130 29386106 28978366 28682318 
845.151 28472294 28328820 28239490 28197484 28198296 28237368 28308978 
848.525 28405502 28519916 28647172 28786148 28938626 29108060 29297552 
851.900 29508152 29738798 29988064 30255658 30543468 30855658 31196944 
855.275 31571068 31980462 32426160 32910094 33436686 34013328 34651560 
858.650 35365272 36169748 37083284 38127720 39327184 40710392 42302688 
862.025 44117072 46142828 48334888 50610220 52841952 54884324 56587368 
865.400 57816468 58486852 58572084 58114392 57213936 56021144 54714908 
868.774 53462876 52418704 51698340 51369728 51463304 51973084 52866988 
872.149 54089680 55567560 57212652 58911700 60538220 61960548 63044572 
875.524 63684948 63817596 63429460 62562084 61302180 59770280 58089280 
878.899 56377704 54732008 53210636 51838468 50605824 49479996 48415224 
882.274 47368508 46313576 45245688 44184744 43167228 42239468 41442888 
885.648 40805928 40341804 40048232 39913052 39919844 40054192 40305704 
889.023 40666504 41131232 41693896 42347872 43087600 43910520 44818972 
892.398 45820008 46924640 48145944 49495848 50985204 52620216 54400492 
895.773 56313008 58325044 60380480 62389192 64237280 65799244 66946588 
899.148 67582256 67652488 67156968 66148148 64721940 63006184 61131196 
902.523 59225640 57402748 55744056 54307476 53124576 52204804 51543552 
905.897 51127936 50943284 50975180 51212856 51648852 52278236 53097464 
909.272 54104804 55299300 56681476 58252136 60008940 61943272 64035304 
912.647 66248976 68537392 70842872 73106008 75280416 77336560 79269792 
916.022 81099272 82866192 84624384 86426352 88315816 90309144 92383792 
919.397 94465032 96426112 98104152 99305200 99855864 99638624 98622440 
922.771 96888600 94629064 92141912 89764256 87850120 86721064 86591784 
926.146 87556096 89548696 92359288 95630688 98910816 101753408 103741064 
929.521 104586192 104171784 102539832 99862160 96370104 92317440 87919000 
932.896 83335408 78690304 74072200 69557736 65228552 61165372 57448584 
936.271 54152580 51330232 49016420 47226560 45958736 45198036 44914716 
939.646 45064696 45578972 46361284 47297676 48250048 49080224 49670564 
943.020 49928860 49809336 49314300 48491832 47422720 46204808 44943376 
946.395 43727004 42623084 41675404 40901300 40299632 39856100 39551164 
949.770 39363496 39272124 39259464 39307852 39400680 39523912 39665576 
953.145 39818292 39979564 40150924 40336060 40538700 40760868 41003180 
956.520 41264824 41545368 41845356 42165816 42507596 42870240 43251408 
959.894 43647168 44054140 44470264 44895756 45332552 45782600 46246492 
963.269 46722580 47207608 47698432 48193588 48694088 49203108 49724136 
966.644 50259916 50811192 51377444 51958292 52554804 53170260 53809320 
970.019 54476096 55172608 55898536 56652144 57432436 58241224 59083448 
973.394 59966560 60898208 61883244 62922880 64015300 65157324 66347176 
976.768 67585696 68875952 70222560 71629496 73099144 74633896 76237240 
980.143 77915184 79677056 81533520 83493560 85563192 87742760 90027200 
983.518 92405688 94861328 97366424 99876008 102328448 104635896 106690320 
986.893 108382792 109606080 110279176 110361272 109855456 108811408 
989.786 107315248 105489824 103473768 101407184 99430192 97656544 96169640 
993.160 95022416 94232896 93793120 93678128 93856912 94298712 94977224 
996.535 95872920 96968248 98245960 99688888 101277848 102994088 104819464 
999.910 106732424 108703944 110694704 112646840 114489600 116147984 
1002.803 117546712 118628504 119361352 119742240 119798248 119583808 
1005.695 119179040 118675312 118175128 117783184 117587888 117663128 
1008.588 118059000 118798912 119885920 121307232 123043064 125069128 
1011.481 127360552 129892632 132635680 135557152 138625648 141810592 
1014.374 145088880 148443728 151854784 155288864 158686464 161948528 
1017.266 164949360 167543376 169586752 170977344 171669152 171693744 
1020.159 171155056 170230992 169152816 168160272 167500688 167386448 
1023.052 167964928 169323648 171475344 174372048 177912864 181969616 
1025.945 186406848 191079648 195852640 200594608 205166160 209434304 
1028.838 213270896 216561072 219223488 221208576 222498912 223100176 
1031.731 223032032 222322016 221001456 219111600 216703424 213832000 
1034.624 210555472 206925536 202982480 198763424 194308176 189667280 
1037.517 184913792 180135232 175427376 170890400 166609888 162656112 
1040.410 159083664 155923824 153184800 150844592 148847504 147097264 
1043.303 145458976 143785968 141925792 139754832 137207232 134280096 
1046.196 131039616 127599312 124112232 120737976 117617904 114875768 
1049.089 112596552 110826104 109577120 108831376 108547776 108668744 
1051.982 109133560 109882008 110856984 112011712 113300448 114673576 
1054.875 116077248 117444008 118695520 119754632 120543576 120997248 
1057.768 121071640 120743008 120014672 118916712 117510536 115884584 
1060.661 114145096 112417528 110823456 109470992 108453432 107834296 
1063.554 107651144 107917720 108624536 109740440 111209928 112959248 
1066.448 114889968 116884608 118825752 120595232 122092680 123249008 
1069.341 124020344 124390872 124364216 123958104 123197392 122109880 
1072.234 120726904 119079784 117198384 115115584 112865960 110491808 
1075.127 108049984 105608112 103247144 101058096 99124864 97524672 96318976 
1078.502 95545088 95218384 95328008 95838744 96685256 97773016 98989256 
1081.877 100196552 101257056 102054432 102502408 102569456 102281152 
1084.770 101719568 101003992 100272688 99673720 99333936 99355176 99808792 
1088.146 100724752 102095008 103871176 105975176 108298304 110713128 
1091.039 113097144 115329600 117308896 118960112 120226056 121070192 
1093.932 121472512 121427688 120945192 120049048 118780312 117192176 
1096.825 115348056 113324584 111201072 109058680 106976680 105015000 
1099.718 103209408 101560792 100034752 98564264 97063000 95451456 93668416 
1103.093 91691120 89540232 87278360 84998184 82800232 80789872 79056480 
1106.468 77664976 76659656 76059840 75863848 76053168 76597280 77456816 
1109.844 78584240 79930296 81442504 83062280 84729608 86376384 87926384 
1113.219 89305136 90438808 91264584 91741704 91849600 91591400 90988552 
1116.594 90077952 88906552 87524152 85985656 84342640 82639248 80912328 
1119.969 79186368 77474592 75783672 74117344 72480960 70885624 69347168 
1123.344 67885016 66519224 65265244 64134188 63132540 62263472 61530764 
1126.720 60940336 60500476 60222188 60116120 60189532 60444036 60873240 
1130.095 61462052 62183820 63002244 63872792 64740516 65550560 66253072 
1133.470 66809148 67202224 67439552 67554032 67595232 67624416 67705112 
1136.845 67887344 68206336 68673864 69277896 69981880 70728296 71450408 
1140.221 72071184 72517920 72731800 72667128 72298120 71617104 70631288 
1143.596 69359720 67831176 66084832 64165340 62123072 60013276 57886764 
1146.971 55791596 53769828 51853068 50066268 48427040 46945680 45627548 
1150.346 44473056 43478484 42636716 41938004 41372180 40928316 40597448 
1153.722 40372676 40248300 40220240 40284252 40436280 40672000 40988140 
1157.097 41382348 41854404 42405512 43037036 43749616 44542360 45412004 
1160.472 46354312 47363220 48431412 49548916 50701068 51867220 53021800 
1163.847 54132392 55164144 56083008 56855180 57450932 57846032 58020576 
1167.223 57962792 57669588 57148776 56417812 55502868 54436620 53251832 
1170.598 51981488 50656756 49304132 47949196 46615476 45323540 44092864 
1173.973 42940240 41878340 40917136 40063312 39321200 38694000 38184192 
1177.348 37793380 37522872 37373056 37343660 37434484 37646072 37980808 
1180.724 38443240 39039148 39774424 40654064 41680800 42854948 44174072 
1184.099 45632704 47219468 48913608 50683828 52480916 54240044 55887832 
1187.474 57340584 58519384 59360096 59814924 59862608 59509064 58787892 
1190.849 57753900 56477660 55040948 53520628 51987536 50503008 49111868 
1194.225 47848820 46738924 45797988 45035844 44456356 44056116 43823720 
1197.600 43738952 43773948 43891420 44048524 44201144 44302036 44308052 
1200.975 44182836 43897544 43436956 42801160 42006652 41083444 40071488 
1204.350 39017508 37964136 36949564 36003732 35145776 34387084 33731804 
1207.726 33179496 32726202 32365754 32091078 31893302 31764024 31696546 
1211.101 31686104 31730908 31831868 31990808 32210000 32489930 32829680 
1214.476 33226602 33676624 34174212 34712280 35281672 35869768 36462984 
1217.851 37046472 37606292 38132060 38616352 39054776 39445272 39786992 
1221.227 40080316 40327080 40532520 40705732 40858740 41007000 41166020 
1224.602 41349400 41567936 41828024 42131204 42475040 42852868 43254264 
1227.977 43665560 44072620 44462628 44827344 45166196 45487792 45809296 
1231.352 46152628 46543736 47008592 47570052 48250384 49069948 50047156 
1234.728 51200592 52546276 54096060 55856820 57830208 60012212 62394316 
1238.103 64964072 67704064 70587968 73582608 76644752 79723432 82769920 
1241.478 85738336 88591504 91304280 93857688 96236632 98426632 100408856 
1244.853 102160232 103654112 104856912 105730376 106233992 106324176 
1247.746 105964304 105130680 103816344 102033984 99812208 97191872 94217496 
1251.122 90936912 87402576 83669808 79802664 75874536 71958472 68131248 
1254.497 64465040 61018116 57839140 54961072 52399004 50153096 48207580 
1257.872 46534440 45092964 43835340 42711036 41666320 40653880 39636172 
1261.247 38586220 37491876 36354060 35185008 34003436 32832752 31697008 
1264.623 30616668 29608598 28684654 27850560 27107250 26451090 25875426 
1267.998 25371444 24930328 24544912 24209932 23922330 23680580 23483452 
1271.373 23329310 23216012 23141882 23105850 23108892 23154042 23244602 
1274.748 23383960 23573662 23811818 24092618 24404586 24732070 25053306 
1278.124 25341342 25569360 25710344 25744342 25662044 25466510 25172528 
1281.499 24802366 24382960 23939276 23490516 23051096 22629818 22232310 
1284.874 21864404 21532004 21242068 21001596 20816210 20690672 20628578 
1288.249 20633338 20709230 20861334 21093866 21410020 21809630 22288846 
1291.625 22839864 23449772 24102566 24775776 25442126 26071568 26631322 
1295.000 27093460 27439038 27661982 27770690 27786622 27742010 27671200 
1298.375 27608524 27585500 27625578 27746424 27957866 28260564 28644836 
1301.750 29088608 29561176 30021898 30427490 30739952 30927736 30972498 
1305.125 30870030 30629858 30272426 29825668 29324350 28803106 28294052 
1308.501 27825336 27416098 27077168 26811204 26614940 26481694 26404926 
1311.876 26379680 26403130 26472888 26587042 26741710 26932216 27154300 
1315.251 27404308 27680912 27983912 28313398 28668832 29048752 29451274 
1318.626 29875462 30322522 30795046 31295966 31825486 32378644 32944516 
1322.002 33505220 34037264 34516468 34918704 35224172 35422536 35513892 
1325.377 35512780 35445832 35352584 35278296 35265068 35348628 35549024 
1328.752 35868508 36293032 36796948 37351604 37928916 38509276 39081132 
1332.127 39640420 40188836 40730992 41273604 41823724 42388636 42973564 
1335.503 43580712 44207012 44843292 45476128 46087484 46658380 47171260 
1338.878 47609912 47961184 48215692 48368036 48418040 48370704 48236980 
1342.253 48032200 47774172 47483740 47180752 46883852 46609540 46370020 
1345.628 46174368 46027100 45928716 45873992 45850972 45841768 45821336 
1349.004 45760544 45632812 45415572 45097152 44679360 44179608 43629616 
1352.379 43070916 42555360 42134308 41853236 41748316 41836344 42113604 
1355.754 42552984 43110724 43729460 44346068 44904464 45356240 45665976 
1359.129 45814520 45797880 45629024 45334980 44960868 44565016 44210204 
1362.505 43960672 43865064 43945824 44195088 44575480 45029264 45481572 
1365.880 45856060 46079452 46086820 45837460 45319788 44558224 43606608 
1369.255 42540816 41443692 40384204 39415088 38567244 37851364 37266792 
1372.630 36808744 36474408 36265192 36184440 36232920 36403240 36679760 
1376.006 37041856 37468580 37944608 38462788 39023416 39633196 40303560 
1379.381 41050484 41893116 42853340 43952788 45202852 46595264 48088676 
1382.756 49610420 51050188 52274908 53153672 53558896 53393628 52611276 
1386.131 51235860 49377260 47216108 44983104 42887936 41075796 39617624 
1389.507 38510832 37709384 37145936 36753964 36472712 36248080 36036276 
1392.882 35798444 35503572 35134996 34692216 34192456 33661980 33126642 
1396.257 32601566 32087688 31577374 31062676 30544678 30039330 29575468 
1399.632 29185378 28896234 28719378 28650958 28676088 28776764 28935794 
1403.008 29140232 29382878 29659964 29969106 30307670 30671496 31055594 
1406.383 31455848 31870376 32300040 32748424 33219628 33716688 34240460 
1409.758 34788988 35358624 35945776 36547496 37161636 37786260 38417032 
1413.133 39047380 39669316 40275272 40862020 41432356 41995228 42563584 
1416.509 43152368 43776184 44446880 45172628 45955052 46784572 47639676 
1419.884 48486832 49287172 50001500 50597188 51054628 51366968 51547844 
1423.259 51630828 51669080 51720024 51830892 52027872 52310640 52661172 
1426.634 53055044 53473184 53904664 54347016 54804212 55283384 55795592 
1430.010 56355940 56987388 57716888 58568408 59556608 60679100 61918820 
1433.385 63245712 64629532 66048608 67489128 68949192 70432152 71941856 
1436.760 73473264 75014784 76552744 78070104 79547504 80956360 82259624 
1440.135 83404184 84324976 84959216 85244624 85129488 84578248 83569384 
1443.510 82102928 80203616 77930216 75369240 72622240 69805920 67029320 
1446.886 64388744 61968460 59826520 57988464 56441392 55142320 54031588 
1450.261 53054108 52180668 51414856 50791228 50354676 50141528 50155664 
1453.636 50362268 50685652 51020568 51252636 51266172 50987176 50421544 
1457.011 49678512 48930036 48334296 47989900 47924036 48123916 48563936 
1460.387 49215952 50048680 51020084 52078524 53153708 54156788 54998036 
1463.762 55591924 55886212 55881312 55635268 55243040 54798616 54379236 
1467.137 54030464 53770128 53599644 53507140 53470972 53455984 53415924 
1470.512 53296108 53041040 52615840 52026940 51333328 50627528 50003992 
1473.888 49527340 49218880 49072652 49073248 49209532 49478284 49878756 
1477.263 50403792 51032752 51730512 52455604 53162208 53812508 54383176 
1480.638 54867292 55276648 55636624 55982920 56352392 56781760 57310904 
1484.013 57980776 58835016 59914564 61245216 62824836 64607352 66505016 
1487.389 68377144 70041520 71303448 71960312 71847432 70881880 69087392 
1490.764 66601956 63633076 60410256 57118428 53871204 50729592 47708492 
1494.139 44808208 42045964 39463272 37131532 35139200 33561380 32436512 
1497.514 31757608 31486556 31569642 31954642 32598708 33463418 34511192 
1500.890 35704476 36999492 38349168 39707760 41017816 42212188 43207228 
1504.265 43881376 44079552 43627272 42381476 40327080 37643904 34669896 
1507.640 31738502 29053040 26664014 24530186 22586744 20786910 19110790 
1511.015 17565096 16168544 14935115 13868771 12959348 12188453 11534971 
1514.391 10979276 10504395 10093444 9730184 9402540 9104579 8840265 8619574 
1518.248 8451224 8335761 8261629 8205945 8143719 8056927 7947914 7840345 
1522.105 7768794 7757831 7809780 7907893 8026381 8143686 8248223 8343192 
1525.963 8441933 8561344 8711177 8890145 9088541 9295321 9505111 9720323 
1529.820 9948863 10199097 10474185 10770233 11076851 11381950 11678891 
1533.196 11971062 12272121 12596173 12951531 13334239 13731785 14126546 
1536.571 14501555 14843939 15142502 15388915 15575535 15695617 15743783 
1539.946 15720319 15636671 15513067 15372335 15230481 15090629 14942145 
1543.321 14765328 14542017 14263554 13937606 13586364 13238821 12916883 
1546.697 12626736 12359555 12096558 11820781 11524083 11213784 10909075 
1550.072 10633983 10404234 10221146 10073402 9944998 9823037 9703517 9592734 
1553.929 9502673 9444391 9420959 9425362 9441852 9450453 9427088 9343594 
1557.787 9173745 8903200 8549144 8165462 7821790 7564796 7403123 7318940 
1561.644 7283020 7266914 7245520 7202565 7131691 7038266 6937184 6846627 
1565.501 6781062 6744009 6728192 6719409 6703392 6669979 6617157 6550718 
1569.359 6482742 6425873 6388783 6375669 6387034 6421737 6478134 6552500 
1573.216 6638756 6725702 6799707 6847671 6862785 6850600 6829326 6823133 
1577.074 6848142 6906682 6988530 7079351 7166150 7241207 7302597 7352032 
1580.931 7392338 7425335 7451289 7469154 7479368 7484188 7488267 7495953 
1584.789 7509741 7528148 7547028 7561121 7567730 7567966 7566887 7571573 
1588.646 7587319 7617363 7661674 7719143 7789607 7875232 7979097 8102904 
1592.503 8244238 8395212 8542893 8674973 8781261 8857985 8907969 8939153 
1596.361 8961105 8982246 9009104 9047197 9102143 9181799 9294779 9449640 
1600.218 9652594 9905776 10208561 10558405 10952839 11390045 11866102 
1603.594 12373395 12897257 13415223 13901032 14325088 14659964 14885495 
1606.969 14988890 14968586 14832453 14598040 14287421 13923954 13531907 
1610.344 13133827 12749316 12396169 12086133 11823812 11606534 11425014 
1613.719 11265570 11112235 10950495 10769112 10564040 10342336 10122645 
1617.094 9930421 9788232 9708972 9692912 9730997 9807448 9904725 10007348 
1620.952 10102431 10184273 10255409 10326355 10411632 10523913 10669977 
1624.327 10847921 11051223 11271725 11503941 11743975 11988978 12235585 
1627.702 12478581 12712501 12933541 13142091 13342508 13541170 13743413 
1631.078 13950608 14159647 14361766 14545238 14697253 14804306 14855768 
1634.453 14845585 14777326 14666167 14536672 14415951 14321355 14257733 
1637.828 14217777 14188300 14153143 14098410 14015999 13905308 13773988 
1641.203 13634535 13500768 13381563 13278277 13184305 13087042 12972150 
1644.579 12825447 12637924 12409057 12149199 11879416 11626953 11418925 
1647.954 11273188 11196240 11183286 11222046 11293319 11370895 11423245 
1651.329 11409468 11288082 11037254 10683594 10309321 10006025 9823037 
1654.704 9750582 9749736 9778675 9808193 9822969 9818124 9796332 9763425 
1658.562 9725135 9684001 9639009 9585858 9519133 9433657 9326228 9197502 
1662.419 9052881 8902760 8759961 8636845 8542183 8477949 8439771 8417913 
1666.277 8399299 8368999 8313301 8223301 8096962 7940726 7768625 7598278 
1670.134 7445457 7319782 7224194 7155270 7105251 7062546 7013717 6944052 
1673.991 6841377 6701508 6533563 6359496 6204691 6087976 6013387 5971461 
1677.849 5945562 5919899 5885103 5840838 5795571 5760549 5744299 5746280 
1681.706 5754539 5746817 5698269 5589545 5420889 5218963 5028260 4887030 
1685.564 4807588 4778977 4779547 4789564 4794488 4786984 4765477 4731979 
1689.421 4690544 4646369 4605981 4576212 4562918 4569414 4594160 4629690 
1693.279 4662210 4675171 4653033 4588702 4490331 4383414 4300182 4261466 
1697.136 4268794 4304566 4342616 4352857 4311526 4210408 4066066 3917392 
1700.993 3804298 3748046 3744236 3773581 3813390 3845179 3856412 3841168 
1704.851 3801022 3744069 3682479 3627212 3584748 3556451 3539782 3529860 
1708.708 3522745 3516031 3509852 3506211 3507514 3515463 3529827 3548568 
1712.566 3568378 3586318 3600851 3612177 3621332 3628715 3631890 3625876 
1716.423 3604392 3563534 3506545 3444387 3393425 3366811 3370517 3401940 
1720.281 3452970 3512891 3572721 3626678 3673189 3713992 3752692 3793602 
1724.138 3839463 3891213 3948487 4010215 4075196 4141291 4205791 4264846 
1727.995 4314036 4350614 4374311 4388502 4399045 4410794 4425020 4437271 
1731.853 4435329 4402827 4324712 4195754 4029645 3857782 3717734 3633627 
1735.710 3607232 3624739 3665069 3709112 3741429 3753227 3742565 3714493 
1739.568 3678335 3644921 3621866 3612377 3615117 3626544 3642482 3659790 
1743.425 3676063 3690666 3703398 3714961 3725454 3734711 3741529 3744069 
1747.282 3739724 3726056 3700591 3661527 3607600 3538312 3454974 3361601 
1751.140 3265078 3174616 3098690 3043230 3009197 2993249 2987644 2982607 
1754.997 2968928 2940205 2895173 2838738 2780411 2730327 2694618 2673781 
1758.855 2662346 2652511 2635343 2604609 2558311 2499288 2434208 2371571 
1762.712 2319269 2282095 2261544 2256648 2263342 2277132 2291255 2300248 
1766.570 2299815 2289256 2272002 2255349 2246656 2249753 2263176 2279397 
1770.427 2288057 2279030 2247255 2196001 2137027 2085352 2051860 2040108 
1774.284 2045768 2060582 2077295 2091578 2103364 2114551 2127870 2143420 
1778.142 2159003 2170925 2175354 2171491 2161368 2149980 2142454 2141056 
1781.999 2144818 2149846 2151411 2146417 2134396 2118380 2103298 2093742 
1785.857 2092410 2099935 2115384 2137027 2163699 2194335 2227272 2259112 
1789.714 2285159 2299416 2296618 2274667 2235965 2187908 2139890 2100734 
1793.572 2074998 2062813 2061381 2067008 2076496 2088149 2101200 2114751 
1797.429 2127437 2137626 2143187 2142887 2136727 2125772 2112520 2099402 
1801.286 2088348 2080558 2076363 2075897 2079093 2085518 2095074 2106927 
1805.144 2120478 2134662 2148947 2163399 2178151 2192837 2206957 2218746 
1809.001 2226207 2227638 2222810 2212585 2199797 2187375 2177885 2172557 
1812.859 2171624 2173889 2178517 2185311 2194569 2207124 2223242 2242626 
1816.716 2264175 2286558 2307943 2328063 2347118 2366074 2386330 2408819 
1820.573 2434075 2461898 2491723 2521516 2549145 2571776 2586742 2592742 
1824.431 2591142 2586142 2584509 2592475 2613542 2646677 2687050 2726192 
1828.288 2755401 2769006 2766539 2753601 2739830 2735462 2746365 2772975 
1832.146 2810624 2852646 2893405 2929363 2960288 2988512 3017238 3048802 
1836.003 3084307 3123652 3166005 3211366 3260838 3316158 3379366 3451668 
1839.861 3532767 3620663 3712321 3803429 3889709 3966843 4032253 4085732 
1843.718 4130855 4173874 4222519 4282547 4355032 4436434 4519626 4595868 
1847.575 4657085 4698315 4717943 4717542 4700291 4669310 4626107 4570586 
1851.433 4501948 4420434 4328292 4230416 4132326 4038808 3952566 3873260 
1855.290 3798549 3725722 3652973 3580605 3509885 3442083 3377329 3314622 
1859.148 3252325 3189469 3126823 3066554 3011933 2965425 2927462 2896840 
1863.005 2871124 2848344 2828033 2811391 2799652 2793116 2789648 2784879 
1866.863 2773508 2751733 2719157 2680048 2642343 2613908 2600508 2602942 
1870.720 2618142 2640277 2664646 2687216 2705754 2719457 2727359 2728760 
1874.577 2723025 2710388 2691951 2670413 2648411 2628142 2610508 2594342 
1878.435 2577743 2559111 2538080 2515584 2493456 2473095 2454434 2436341 
1882.292 2416516 2393393 2367273 2339922 2315005 2295851 2284826 2281595 
1886.150 2284260 2289956 2295252 2297917 2296284 2289623 2278064 2262809 
1890.007 2245857 2230270 2219945 2217281 2223609 2237164 2253983 2269071 
1893.865 2278064 2279097 2273268 2264641 2258413 2258413 2266207 2280796 
1897.722 2299216 2319002 2337990 2355047 2369905 2381299 2387163 2385730 
1901.579 2375969 2358378 2336857 2316237 2301714 2296284 2300215 2311141 
1905.437 2325265 2338756 2349916 2358078 2363775 2367073 2367173 2363375 
1909.294 2354680 2342387 2329129 2318569 2314039 2317103 2326464 2339456 
1913.152 2353181 2365241 2375069 2383531 2390361 2393959 2391327 2379400 
1917.009 2356213 2324332 2289956 2261177 2245457 2244924 2256681 2274267 
1920.866 2289856 2297917 2297450 2291421 2284959 2282961 2286891 2294919 
1924.724 2303280 2307677 2306144 2299582 2290455 2281062 2273568 2267839 
1928.581 2263076 2259512 2257980 2260112 2267273 2279097 2292321 2302846 
1932.439 2306377 2301114 2289223 2275366 2264575 2260278 2262377 2267672 
1936.296 2271636 2271536 2267473 2263076 2263076 2270970 2286758 2307343 
1940.154 2327130 2340755 2345452 2341854 2333026 2323066 2314905 2309342 
1944.011 2306044 2304279 2304878 2309542 2320868 2340089 2366940 2398990 
1947.868 2432209 2464164 2493189 2519284 2543280 2565044 2583676 2597575 
1951.726 2604708 2603675 2595208 2580809 2561511 2537913 2509985 2476661 
1955.583 2438873 2399723 2363109 2334492 2317803 2312706 2315771 2321700 
1959.441 2323932 2318069 2304679 2284260 2260078 2233833 2206624 2179150 
1963.298 2154242 2135329 2127603 2135229 2158737 2193936 2233633 2268971 
1967.156 2293986 2308742 2317503 2325898 2338656 2355047 2369206 2374803 
1971.013 2365974 2341788 2306844 2268139 2231202 2198765 2169859 2141655 
1974.870 2115351 2097171 2097637 2128936 2198298 2302014 2427011 2553345 
1978.728 2662246 2742164 2790182 2810924 2812558 2803187 2785946 2763304 
1982.585 2736062 2706487 2679582 2660512 2652178 2653978 2661279 2666613 
1986.443 2664012 2651978 2633043 2613375 2598842 2591909 2590342 2589909 
1990.300 2585776 2575976 2564210 2556511 2560011 2578543 2611508 2653745 
1994.157 2699986 2745231 2787214 2826365 2863219 2896173 2922959 2939004 
1998.015 2941473 2930131 2908248 2879929 2849378 2818861 2785980 2748299 
2001.872 2703353 2651844 2598709 2552545 2519883 2505886 2511185 2530548 
2005.730 2558178 2589009 2619975 2650244 2680549 2710088 2736795 2759136 
2009.587 2775542 2787380 2799052 2814493 2836471 2864820 2895439 2922725 
2013.445 2943541 2956485 2964124 2971430 2981105 2994183 3007696 3016871 
2017.302 3017405 3009998 2996953 2983774 2975667 2975967 2983541 2996452 
2021.159 3011599 3028282 3046634 3068823 3094552 3123151 3151419 3175184 
2025.017 3193842 3208228 3220879 3235433 3253260 3272022 3288380 3299331 
2028.874 3304706 3309213 3320432 3345207 3387347 3445723 3513125 3581173 
2032.732 3643450 3697249 3744437 3789624 3835552 3881618 3924714 3958819 
2036.589 3979818 3987408 3985135 3979082 3975103 3977644 3986305 3999814 
2040.447 4015565 4031685 4047838 4065397 4085230 4107841 4132527 4157984 
2044.304 4183844 4210508 4238981 4270701 4307142 4347402 4390945 4436769 
2048.161 4483903 4531143 4576714 4616797 4646904 4662812 4662243 4647206 
2052.019 4624634 4603235 4593156 4602130 4631566 4677650 4732849 4788324 
2055.876 4837004 4876509 4907471 4933577 4957773 4982206 5006741 5031277 
2059.734 5054876 5077604 5100300 5122495 5141975 5156057 5160885 5154012 
2063.591 5136778 5112336 5086220 5063491 5047032 5035802 5026852 5015422 
2067.448 4998563 4975335 4947954 4918664 4890649 4865250 4841795 4819984 
2071.306 4799111 4780150 4764706 4755092 4751876 4754958 4762964 4774354 
2075.163 4788626 4806415 4828628 4856103 4888572 4923389 4957439 4988172 
2079.021 5014015 5035869 5055714 5075760 5096982 5119075 5140198 5157935 
2082.878 5171783 5182043 5190393 5198944 5209205 5220908 5233350 5244618 
2086.736 5253270 5258804 5260749 5258939 5253036 5242103 5225737 5204108 
2090.593 5179495 5154581 5133291 5118673 5112135 5114013 5123467 5139091 
2094.450 5160215 5186335 5216281 5247771 5277921 5302305 5317969 5324308 
2098.308 5323000 5318807 5317130 5321759 5334371 5353793 5376973 5401094 
2102.165 5424948 5449038 5474841 5504034 5536551 5570851 5605286 5638013 
2106.023 5669567 5702063 5737920 5779084 5825088 5873146 5918656 5958259 
2109.880 5989937 6014395 6034620 6054006 6074435 6096276 6118051 6137508 
2113.738 6153505 6166477 6177971 6190205 6204859 6221362 6238942 6255513 
2117.595 6270170 6282641 6294340 6306779 6321370 6338852 6358824 6381217 
2121.452 6405932 6433238 6464042 6498919 6536994 6576653 6615475 6651003 
2125.310 6681958 6708574 6732029 6754071 6776283 6799203 6822561 6845752 
2129.167 6867396 6886551 6902239 6913752 6920452 6923650 6925401 6929979 
2133.025 6942167 6966341 7004490 7055002 7112122 7167430 7213413 7245115 
2136.882 7261389 7265836 7264489 7262366 7263006 7266813 7270857 7272204 
2140.740 7267757 7255897 7236356 7210179 7177536 7139640 7098448 7055508 
2144.597 7014390 6978563 6950483 6930316 6916984 6906884 6896886 6885777 
2148.454 6873759 6862314 6851811 6840030 6821450 6789240 6736336 6658607 
2152.312 6557647 6437576 6305064 6165839 6022760 5876672 5729056 5583705 
2156.169 5448669 5338128 5267289 5246094 5278189 5354330 5456520 5564574 
2160.027 5660570 5733588 5780998 5805209 5810548 5802556 5786102 5765150 
2163.884 5745239 5731037 5724859 5726874 5732715 5734696 5724960 5697497 
2167.741 5650298 5586692 5514034 5439946 5371640 5313910 5267457 5231438 
2171.599 5203739 5181808 5162964 5145495 5127054 5105363 5080353 5052328 
2175.456 5023266 4995010 4967459 4937096 4899664 4848832 4781054 4697746 
2179.314 4605680 4516244 4441689 4391681 4369759 4373139 4393188 4418291 
2183.171 4439614 4450962 4449623 4437405 4417020 4391615 4364738 4340039 
2187.029 4321331 4311694 4314371 4328995 4354363 4387431 4423614 4459365 
2190.886 4493010 4523141 4549659 4572829 4591548 4605612 4615659 4623495 
2194.743 4632336 4645933 4666329 4692889 4723202 4752110 4774957 4789865 
2198.601 4796298 4796565 4793450 4788659 4781858 4771908 4756499 4734591 
2202.458 4707727 4678922 4651861 4630260 4615592 4608760 4609329 4617836 
2206.316 4633977 4658660 4691549 4729533 4769262 4805410 4833654 4852618 
2210.173 4863407 4868970 4873761 4880395 4889711 4900568 4910621 4917692 
2214.031 4921278 4922049 4920943 4918932 4915883 4910889 4902947 4892124 
2217.888 4879256 4866356 4856036 4849669 4847793 4849803 4854930 4862134 
2221.745 4870879 4880328 4888605 4894000 4893598 4885589 4869573 4847894 
2225.603 4824641 4804706 4791707 4787051 4790167 4798777 4809899 4822765 
2229.460 4837138 4853422 4871683 4890147 4905360 4913671 4912297 4900937 
2233.318 4882373 4862134 4845448 4836870 4839283 4852317 4874900 4904690 
2237.175 4939743 4978486 5018942 5058563 5094769 5125311 5148613 5165077 
2241.032 5176209 5183519 5189052 5193176 5195691 5196261 5196160 5197233 
2244.890 5203068 5216448 5238447 5267289 5300124 5332124 5359999 5382912 
2248.747 5402336 5420620 5440247 5461083 5481619 5498900 5510678 5516517 
2252.605 5518531 5520175 5524403 5532793 5544203 5555614 5563501 5566085 
2256.462 5563265 5557392 5551183 5546351 5543230 5540377 5535511 5527256 
2260.320 5516047 5502558 5489269 5477290 5466419 5455514 5443334 5429008 
2264.177 5413910 5400188 5390795 5387642 5391433 5400155 5410723 5420218 
2268.034 5426391 5428136 5426894 5423774 5420486 5418003 5416360 5415655 
2271.892 5414950 5413810 5411595 5408106 5403510 5398411 5393815 5391734 
2275.749 5393378 5400222 5412367 5428974 5448535 5469137 5489337 5508564 
2279.607 5527088 5544673 5560950 5575314 5586121 5592498 5594546 5593640 
2283.464 5592196 5593203 5597868 5606830 5618846 5631669 5643450 5652682 
2287.322 5659328 5663927 5667486 5670205 5672051 5672655 5672017 5670306 
2291.179 5668996 5669399 5672756 5679839 5690146 5702668 5716701 5731809 
2295.036 5747925 5765385 5784087 5803529 5822301 5839025 5852223 5861694 
2298.894 5867907 5871970 5875128 5878083 5881039 5883826 5885942 5887521 
2302.751 5889032 5891249 5894540 5899242 5905053 5911200 5917850 5925374 
2306.609 5934410 5946066 5960745 5977642 5995178 6011337 6024339 6033242 
2310.466 6038483 6041339 6043624 6046681 6051117 6056627 6062742 6069160 
2314.323 6075980 6083944 6093722 6105617 6119294 6133509 6146649 6157672 
2318.181 6165940 6171451 6175518 6179685 6185533 6194070 6205767 6219951 
2322.038 6234875 6247883 6255883 6256018 6246068 6225497 6195549 6159588 
2325.896 6121311 6085053 6054208 6030252 6013118 6001427 5992994 5986074 
2329.753 5980094 5974787 5971092 5969949 5971662 5976399 5983823 5993733 
2333.611 6005861 6020274 6037207 6056157 6076921 6098259 6119361 6139155 
2337.468 6157336 6173770 6188827 6202943 6216589 6230437 6245563 6262875 
2341.325 6283381 6307283 6333507 6360270 6384647 6403914 6416693 6423754 
2345.183 6428193 6435087 6450254 6478437 6522160 6581329 6653055 6732836 
2349.040 6814617 6892981 6962738 7020081 7063051 7091981 7108855 7117039 
2352.898 7120071 7121250 7122193 7123439 7124651 7124921 7123675 7120879 
2356.755 7116905 7112560 7108586 7105824 7105285 7107912 7114850 7126672 
2360.613 7143817 7165308 7189865 7215468 7240095 7262299 7281470 7297879 
2364.470 7311931 7324567 7336328 7347684 7359176 7371443 7385564 7402416 
2368.327 7422503 7445558 7470502 7495818 7520125 7542949 7565100 7587353 
2372.185 7611395 7638203 7667913 7699446 7731589 7762857 7792643 7820677 
2376.042 7847329 7872937 7897939 7922437 7946261 7969647 7992900 8016897 
2379.900 8042481 8070362 8100878 8134266 8169918 8207330 8245791 8284695 
2383.757 8323299 8360959 8396901 8430616 8461900 8491227 8519475 8547827 
2387.615 8577092 8607812 8639853 8672506 8704991 8736667 8767264 8796341 
2391.472 8824170 8850511 8875164 8897857 8919197 8939694 8960834 8984004 
2395.329 9009950 9038840 9070068 9102278 9134897 9167823 9201665 9237812 
2399.187 9277008 9319220 9362994 9406061 9446424 9482759 9515509 9546600 
2403.044 9578914 9615194 9657066 9704567 9756410 9810735 9865642 9919946 
2406.902 9973849 10027828 10082830 10140009 10199979 10263382 10329985 
2410.277 10399517 10471266 10543806 10615444 10684444 10749752 10810927 
2413.652 10868338 10923006 10975980 11027772 11078007 11125799 11169959 
2417.027 11209636 11244624 11275704 11304134 11331136 11357631 11384093 
2420.403 11410659 11437261 11464204 11491693 11520273 11550760 11583869 
2423.778 11620453 11661396 11707960 11761201 11821598 11888951 11962070 
2427.153 12038779 12117477 12196564 12275904 12356554 12440084 12528199 
2430.528 12621448 12719734 12821727 12926475 13033024 13141921 13254022 
2433.904 13370560 13491847 13617475 13745738 13875374 14004432 14132570 
2437.279 14260096 14387727 14516082 14645364 14775166 14904424 15032965 
2440.654 15160584 15287965 15416208 15546034 15677685 15810648 15944304 
2444.029 16077178 16208611 16337436 16462926 16584253 16700553 16811370 
2447.405 16916330 17016176 17111634 17203944 17294204 17382308 17467708 
2450.780 17549500 17626926 17699776 17768874 17835602 17901720 17968158 
2454.155 18035676 18104000 18172852 18242062 18311766 18382586 18455528 
2457.530 18531144 18609368 18690096 18772742 18856824 18942236 19028702 
2460.906 19116122 19203974 19291566 19377966 19462858 19546308 19629222 
2464.281 19712914 19799118 19889120 19984000 20084694 20191868 20306846 
2467.656 20430884 20565728 20712740 20872840 21046076 21231766 21428886 
2471.031 21636230 21852486 22076450 22306704 22541654 22779626 23018708 
2474.406 23257398 23494576 23728940 23959758 24185338 24403710 24612794 
2477.782 24810400 24994514 25164312 25318650 25456776 25577620 25679726 
2481.157 25761674 25822432 25861466 25879718 25879014 25862240 25832490 
2484.532 25792052 25743708 25688970 25629144 25565742 25499538 25431198 
2487.907 25360660 25287076 25209290 25125482 25034352 24934538 24825346 
2491.283 24706428 24577308 24438304 24289568 24131148 23963434 23786826 
2494.658 23601192 23406026 23200492 22983108 22753124 22510174 22255190 
2498.033 21990246 21718288 21442184 21164480 20886676 20609538 20333512 
2501.408 20058668 19785836 19515808 19249690 18988546 18732680 18481978 
2504.784 18236290 17995924 17761730 17535322 17318858 17114290 16922426 
2508.159 16743250 16575648 16417777 16268322 16126726 15993116 15868759 
2511.534 15754675 15651923 15560423 15479726 15408483 15345526 15289612 
2514.909 15240364 15197778 15162505 15135400 15117525 15109428 15111384 
2518.285 15122637 15141507 15165593 15191980 15218436 15243624 15267579 
2521.660 15291500 15317448 15347241 15382461 15423486 15469390 15519386 
2525.035 15571516 15624203 15676036 15725711 15771855 15813466 15848929 
2528.410 15877385 15898213 15910827 15915260 15911445 15899381 15878897 
2531.786 15850235 15814118 15771579 15724165 15673598 15621214 15567944 
2535.161 15514097 15459605 15404776 15349782 15295619 15243247 15194038 
2538.536 15148574 15106547 15067267 15029466 14991737 14953153 14913374 
2541.911 14872740 14831835 14791415 14752267 14714836 14679328 14645502 
2545.287 14613186 14581694 14550651 14519474 14487851 14456062 14424205 
2548.662 14392728 14362178 14333067 14305843 14280949 14258897 14240066 
2552.037 14224522 14211923 14201275 14191621 14181487 14170122 14157183 
2555.412 14143730 14131133 14120624 14113026 14108028 14104195 14099539 
2558.788 14091975 14080305 14063876 14043204 14019113 13992455 13963917 
2562.163 13933979 13902777 13870927 13839386 13809491 13782367 13758700 
2565.538 13738625 13721731 13707505 13695125 13684765 13676318 13670198 
2568.913 13666471 13664727 13664659 13665821 13668146 13672249 13679020 
2572.289 13689381 13703777 13722141 13743481 13766464 13789686 13812638 
2575.664 13834974 13856559 13877666 13898022 13917488 13935416 13951942 
2579.039 13967579 13983251 14000634 14020995 14045293 14074246 14107686 
2582.414 14145064 14185596 14228562 14272902 14317691 14361870 14404613 
2585.790 14445511 14484803 14523447 14562643 14603694 14647557 14694477 
2589.165 14744109 14796009 14849561 14904493 14960459 15017495 15074917 
2592.540 15132209 15188411 15242355 15293662 15342230 15388400 15432962 
2595.915 15476326 15518802 15560011 15599370 15636431 15670987 15703484 
2599.291 15734714 15765497 15797041 15830029 15865047 15902612 15943274 
2602.666 15987307 16035162 16086977 16142648 16201595 16262956 16325772 
2606.041 16388908 16451741 16513828 16575199 16636545 16699243 16764637 
2609.416 16834242 16909060 16989334 17074174 17162132 17251312 17340270 
2612.792 17428352 17515796 17603358 17691976 17781992 17872750 17962770 
2616.167 18050562 18134608 18214902 18292030 18367480 18442668 18518730 
2619.542 18595500 18671762 18746034 18817064 18883920 18946976 19006788 
2622.917 19064360 19120484 19175820 19230226 19283774 19336358 19388152 
2626.292 19439294 19489714 19539168 19587000 19632446 19674982 19714472 
2629.668 19751366 19786392 19821314 19857106 19894984 19934944 19976748 
2633.043 20019424 20061756 20102530 20140742 20176248 20209016 20239806 
2636.418 20269212 20297922 20325978 20353478 20379764 20404976 20429044 
2639.793 20452694 20476834 20502678 20531128 20562532 20597170 20634382 
2643.169 20673958 20715450 20758964 20804636 20852574 20903018 20955764 
2646.544 21010532 21067014 21125172 21185112 21246798 21310478 21375698 
2649.919 21441660 21507564 21572640 21636578 21699548 21762214 21825308 
2653.294 21889386 21954278 22019734 22084956 22149318 22212782 22275662 
2656.670 22338936 22403440 22469942 22538686 22609746 22682844 22757418 
2660.045 22832636 22907864 22982444 23055532 23126328 23194270 23259390 
2663.420 23322036 23382770 23442672 23502304 23561908 23621310 23679880 
2666.795 23737234 23793056 23847450 23900834 23953876 24007588 24062044 
2670.171 24117452 24173602 24230180 24287116 24344550 24402974 24462842 
2673.546 24525066 24590106 24658346 24729614 24803664 24879588 24956506 
2676.921 25033404 25109508 25184572 25258874 25333156 25408470 25485938 
2680.296 25566690 25651044 25739454 25831364 25926250 26023618 26122448 
2683.672 26222500 26323314 26424786 26527160 26630898 26736388 26844406 
2687.047 26955200 27068986 27185658 27305114 27427108 27551432 27677980 
2690.422 27806790 27937796 28070712 28205228 28340948 28477636 28615424 
2693.797 28754638 28895668 29039082 29184882 29333140 29483436 29635450 
2697.173 29788902 29943722 30100372 30258856 30419280 30581222 30744504 
2700.548 30908524 31073316 31239064 31406298 31575520 31747092 31920656 
2703.923 32095536 32270524 32444656 32616854 32786694 32953844 33118020 
2707.298 33279292 33437472 33592668 33745628 33897060 34048408 34200916 
2710.674 34355672 34512916 34672192 34832712 34993436 35153644 35312868 
2714.049 35471324 35629368 35787220 35944732 36101512 36256580 36409004 
2717.424 36557516 36701284 36839580 36972256 37099484 37221992 37340916 
2720.799 37457924 37574928 37693736 37816152 37943632 38077224 38217768 
2724.175 38365816 38521984 38686180 38858480 39038388 39224904 39417224 
2727.550 39614428 39815712 40020620 40228852 40440312 40654536 40870868 
2730.925 41088068 41305012 41520284 41732632 41940560 42142924 42338956 
2734.300 42527148 42707012 42878064 43039668 43191932 43334652 43467424 
2737.676 43590308 43703296 43806712 43901868 43990996 44076216 44160168 
2741.051 44245240 44333260 44425632 44523528 44627876 44740108 44861696 
2744.426 44993980 45137848 45293308 45459644 45634804 45816324 46001496 
2747.801 46187340 46371160 46550004 46720956 46881488 47028712 47160624 
2751.177 47275504 47372312 47450624 47510352 47551868 47575376 47581328 
2754.552 47569944 47540924 47493832 47427300 47339424 47228296 47091712 
2757.927 46928296 46737412 46519544 46275720 46007464 45716072 45403176 
2761.302 45070320 44719392 44352968 43974680 43588768 43199436 42811252 
2764.677 42428200 42053772 41691744 41345464 41018728 40715088 40437660 
2768.053 40188288 39967612 39775368 39610000 39469732 39353520 39260228 
2771.428 39189184 39139684 39110388 39098644 39101652 39115504 39136568 
2774.803 39162204 39190232 39219352 39248584 39276948 39302628 39323848 
2778.178 39337776 39342020 39334728 39314308 39280468 39233824 39176092 
2781.554 39109376 39036612 38960860 38884716 38810980 38741420 38677380 
2784.929 38619644 38568332 38522924 38482412 38444580 38407220 38366864 
2788.304 38319992 38263468 38194612 38111768 38014724 37904108 37781488 
2791.679 37648928 37508892 37363916 37216864 37070980 36929252 36795148 
2795.055 36671644 36561300 36465940 36387172 36325600 36282012 36256836 
2798.430 36250532 36263856 36296888 36349736 36422156 36513292 36622436 
2801.805 36748624 36890580 37046980 37216248 37396780 37586708 37784016 
2805.180 37986884 38193492 38401972 38610776 38818116 39021716 39219828 
2808.556 39409684 39588404 39753220 39901136 40028720 40133952 40214532 
2811.931 40269312 40297920 40300976 40279456 40234780 40168844 40083588 
2815.306 39980980 39864416 39737316 39604084 39469584 39338792 39216564 
2818.681 39107492 39014972 38942268 38891492 38863880 38860112 38879860 
2822.057 38922368 38986304 39069528 39170144 39285292 39411964 39546228 
2825.432 39683944 39819928 39949776 40068760 40173532 40262076 40333372 
2828.807 40387476 40425184 40447444 40455224 40449988 40433516 40407764 
2832.182 40375152 40338424 40299668 40260768 40223072 40187124 40153508 
2835.558 40122176 40093036 40066000 40040020 40014368 39987848 39959984 
2838.933 39931356 39904152 39881740 39868556 39869536 39888860 39930012 
2842.308 39995404 40087328 40207876 40360132 40548156 40776884 41051612 
2845.683 41375968 41751488 42176076 42643296 43140588 43651084 44153272 
2849.059 44622144 45032868 45363080 45594832 45717512 45729032 45635204 
2852.434 45448204 45185020 44865740 44509580 44135632 43760684 43397704 
2855.809 43056792 42744560 42463712 42214308 41993768 41798256 41622964 
2859.184 41463556 41316204 41177568 41045456 40917720 40792568 40667964 
2862.560 40542156 40412932 40278472 40137368 39989336 39835216 39677412 
2865.935 39520136 39368576 39228928 39107816 39010696 38942300 38905700 
2869.310 38902184 38931208 38990108 39075040 39179424 39295916 39416536 
2872.685 39532980 39638784 39729148 39801876 39857408 39897392 39924892 
2876.061 39941892 39950392 39951264 39944796 39931504 39912576 39889516 
2879.436 39864416 39839320 39816292 39796576 39780888 39769376 39762332 
2882.811 39759392 39760300 39764004 39769340 39774680 39778020 39777836 
2886.186 39772644 39762332 39747156 39729004 39710592 39695308 39687140 
2889.562 39690372 39708960 39746828 39808048 39896812 40018220 40179128 
2892.937 40387948 40655592 40994220 41415952 41932272 42550500 43272200 
2896.312 44089524 44984500 45926876 46872592 47770920 48564900 49197580 
2899.687 49624132 49813720 49757088 49465848 48972316 48322704 47566688 
2903.063 46756080 45935272 45137736 44389152 43705276 43095356 42564384 
2906.438 42114264 41744484 41453496 41238296 41095460 41021492 41013484 
2909.813 41068912 41185908 41362300 41595248 41880276 42211460 42580760 
2913.188 42978136 43392608 43810888 44218384 44601624 44946832 45243408 
2916.563 45484332 45667008 45793388 45868432 45899472 45893728 45857236 
2919.939 45794160 45706172 45593252 45454384 45288640 45096492 44880508 
2923.314 44645612 44399720 44153052 43916056 43699740 43513168 43362404 
2926.689 43250860 43178208 43141720 43136232 43155404 43192224 43239148 
2930.064 43289004 43334432 43368740 43386020 43381372 43350764 43291636 
2933.440 43202252 43082624 42933548 42757720 42558980 42341916 42112144 
2936.815 41874800 41634412 41394956 41159644 40931628 40714648 40513272 
2940.190 40332464 40177204 40051756 39957948 39895540 39861184 39849016 
2943.565 39850976 39857624 39858568 39842372 39798900 39718764 39595228 
2946.941 39425424 39210612 38957196 38674880 38376308 38074728 37781780 
2950.316 37507048 37256788 37034640 36841596 36677164 36539780 36427956 
2953.691 36339756 36273044 36226004 36196256 36181920 36180552 36190168 
2957.066 36208932 36235188 36268072 36307080 36352436 36404680 36464568 
2960.442 36532356 36608196 36691440 36781048 36876152 36975936 37080036 
2963.817 37188312 37300656 37416644 37535476 37655972 37776608 37896448 
2967.192 38014944 38132352 38250080 38369976 38494284 38625480 38766344 
2970.567 38919144 39086172 39269004 39468136 39683440 39912468 40152088 
2973.943 40396896 40640348 40874868 41091672 41282020 41437932 41552732 
2977.318 41622596 41647064 41629124 41575264 41493816 41395320 41289312 
2980.693 41184780 41089308 41007764 40943280 40896492 40865736 40846624 
2984.068 40832716 40816628 40789440 40742964 40670800 40568164 40433040 
2987.444 40266332 40071452 39853268 39617768 39371588 39120360 38868592 
2990.819 38619068 38372692 38129240 37887588 37647048 37407760 37170732 
2994.194 36937944 36710656 36489364 36272576 36056972 35838352 35612536 
2997.569 35376560 35129392 34872420 34608568 34341324 34073996 33809052 
3000.945 33547814 33290844 33038392 32790910 32549314 32314248 32086726 
3004.320 31867202 31655952 31452854 31258114 31071608 30893760 30725050 
3007.695 30565652 30415514 30274026 30140220 30012986 29891080 29773182 
3011.070 29658296 29545214 29432976 29320946 29208908 29097006 28986196 
3014.446 28877572 28772126 28670814 28574020 28481562 28393262 28308766 
3017.821 28227998 28151204 28078772 28011052 27948042 27889530 27834946 
3021.196 27783514 27734982 27689140 27646550 27608098 27575052 27549030 
3024.571 27531874 27524990 27529932 27547654 27578334 27621234 27674660 
3027.947 27735970 27801388 27866884 27928150 27980694 28021054 28046078 
3031.322 28053924 28043852 28016318 27972674 27915464 27847522 27771928 
3034.697 27691754 27609510 27527214 27446310 27367606 27291812 27218922 
3038.072 27149292 27083092 27020500 26961970 26907398 26856814 26809656 
3041.448 26765214 26722928 26682406 26643652 26607260 26574148 26545160 
3044.823 26521244 26502648 26489160 26480212 26474720 26472184 26471938 
3048.198 26473734 26477362 26482750 26489546 26497928 26507544 26518638 
3051.573 26531564 26546674 26564108 26583764 26605042 26627412 26650346 
3054.948 26673564 26697522 26723138 26751436 26783258 26818960 26858258 
3058.324 26900734 26945540 26992150 27040458 27090428 27142132 27195642 
3061.699 27250780 27307090 27364466 27423154 27483440 27546172 27612194 
3065.074 27681758 27755220 27832120 27911966 27993948 28077358 28161032 
3068.449 28243980 28324538 28401152 28471868 28535024 28589448 28634854 
3071.825 28671380 28699982 28722318 28740266 28756090 28772374 28791104 
3075.200 28813976 28842018 28875164 28912136 28951412 28990942 29029022 
3078.575 29064730 29097890 29128894 29158516 29187220 29215570 29243426 
3081.950 29271286 29299428 29328566 29359870 29394116 29432020 29473682 
3085.326 29518722 29566460 29616118 29667130 29719070 29771656 29825242 
3088.701 29880076 29936764 29996300 30059394 30126902 30199106 30275304 
3092.076 30354180 30433780 30511902 30587018 30658838 30727754 30795862 
3095.451 30865192 30937734 31014774 31096774 31183416 31273746 31366940 
3098.827 31462260 31558738 31656202 31753652 31850230 31945296 32037708 
3102.202 32127004 32213244 32296900 32378536 32459330 32540318 32622140 
3105.577 32705516 32790624 32877210 32964996 33053442 33141982 33230536 
3108.952 33319288 33408594 33499348 33592200 33687436 33784660 33883236 
3112.328 33982080 34080088 34176616 34271048 34363452 34454264 34543556 
3115.703 34631676 34718996 34805500 34891596 34977596 35063688 35149868 
3119.078 35235888 35321600 35406612 35491136 35575388 35660052 35746096 
3122.453 35834180 35924544 36017232 36111376 36206124 36300960 36395564 
3125.829 36489976 36584732 36680408 36777620 36876440 36976404 37076608 
3129.204 37175820 37273072 37367316 37458392 37546712 37633388 37720116 
3132.579 37808312 37899376 37993680 38090864 38189728 38289160 38387856 
3135.954 38485092 38580824 38675784 38770220 38864860 38959772 39054596 
3139.330 39149004 39242528 39335380 39428004 39521116 39615444 39711608 
3142.705 39809976 39910620 40013424 40118472 40225800 40335336 40447116 
3146.080 40560708 40675204 40789512 40902320 41012316 41119028 41222120 
3149.455 41322104 41419852 41516636 41613516 41711400 41811136 41912680 
3152.831 42015888 42120472 42225628 42331104 42436312 42541036 42645124 
3156.206 42748400 42850820 42952384 43053500 43154380 43255432 43357168 
3159.581 43459588 43562504 43665704 43768192 43869572 43969692 44068440 
3162.956 44166332 44263876 44361480 44459436 44558040 44657104 44757112 
3166.332 44858168 44960352 45063516 45167148 45270068 45371024 45468952 
3169.707 45563440 45654972 45744604 45833852 45924004 46015940 46109404 
3173.082 46203816 46297800 46390256 46480412 46567784 46652332 46734312 
3176.457 46814464 46893668 46973108 47054008 47137356 47224084 47313708 
3179.833 47405352 47497488 47588392 47676724 47761932 47844456 47925032 
3183.208 48004516 48083496 48161936 48239904 48317000 48393556 48470200 
3186.583 48547596 48626448 48706728 48787948 48869224 48949508 49028252 
3189.958 49105412 49181736 49258108 49335648 49415088 49496664 49580596 
3193.333 49666176 49753116 49840400 49926856 50011276 50092892 50171060 
3196.709 50246120 50319032 50391404 50464524 50539076 50614760 50690528 
3200.084 50764820 50836332 50904500 50969588 51032416 51094320 51156008 
3203.459 51218112 51281268 51345860 51412952 51483112 51556984 51634036 
3206.834 51712820 51790796 51865240 51934096 51996948 52054840 52109568 
3210.210 52163588 52218440 52274500 52331156 52387340 52442292 52496248 
3213.585 52550656 52607500 52668428 52734828 52806032 52881100 52958312 
3216.960 53035836 53112140 53186140 53256968 53324320 53387708 53447548 
3220.335 53504740 53560584 53616700 53674512 53735104 53798588 53864492 
3223.711 53931936 53999808 54067648 54135168 54202504 54270120 54338340 
3227.086 54407740 54478536 54551416 54626448 54703148 54780648 54857332 
3230.461 54931512 55001872 55068444 55132052 55194920 55258996 55325984 
3233.836 55395992 55468232 55540448 55611204 55679488 55745976 55812168 
3237.212 55879848 55950244 56023748 56099408 56175988 56252392 56328400 
3240.587 56404380 56481204 56559288 56638364 56717380 56795356 56871380 
3243.962 56945416 57018520 57092280 57168240 57246976 57328828 57412884 
3247.337 57498248 57584120 57670380 57757308 57845196 57934356 58024628 
3250.713 58115640 58206860 58298024 58388676 58478744 58567800 58655436 
3254.088 58741236 58825072 58907524 58989192 59071184 59154556 59239464 
3257.463 59325336 59411228 59495880 59578380 59658812 59737960 59816784 
3260.838 59896304 59976524 60056724 60135872 60212748 60286292 60356456 
3264.214 60423700 60489124 60553836 60618788 60684892 60752456 60821436 
3267.589 60891688 60962640 61033372 61103008 61170712 61235676 61297984 
3270.964 61358044 61416556 61474188 61531720 61589676 61647948 61707368 
3274.339 61768140 61830904 61896008 61963568 62033356 62104488 62176440 
3277.715 62249016 62322556 62397608 62475456 62556044 62639436 62724604 
3281.090 62810368 62895836 62981284 63068056 63157984 63253260 63355536 
3284.465 63465120 63580832 63700868 63823396 63946420 64068788 64190304 
3287.840 64311320 64432600 64554872 64679220 64806560 64937784 65073752 
3291.216 65214916 65361524 65513880 65671756 65835288 66005096 66181212 
3294.591 66364044 66553288 66748172 66947676 67150824 67356736 67565528 
3297.966 67777840 67994088 68214904 68440208 68669048 68900496 69133976 
3301.341 69369168 69607240 69849696 70098480 70355200 70621184 70896704 
3304.717 71181448 71474784 71775624 72082656 72394712 72710216 73028224 
3308.092 73348296 73670496 73995808 74325056 74659352 74999032 75343784 
3311.467 75692672 76045000 76400448 76759248 77121984 77488976 77860280 
3314.842 78234640 78610800 78986760 79361984 79736448 80111240 80487832 
3318.218 80867264 81250424 81636192 82023520 82410616 82795944 83178480 
3321.593 83557136 83931344 84300440 84663880 85021760 85374240 85721792 
3324.968 86065144 86403880 86737088 87062984 87379392 87684736 87977824 
3328.343 88258648 88527304 88783528 89026520 89254584 89466328 89660576 
3331.719 89837592 89998336 90143600 90273536 90385848 90476760 90542136 
3335.094 90578784 90585888 90565648 90522752 90462432 90388576 90302696 
3338.469 90202976 90086352 89948768 89787112 89600176 89387760 89150712 
3341.844 88889352 88603888 88293648 87958272 87597888 87212736 86804128 
3345.219 86373280 85921032 85448336 84956152 84445856 83919240 83378120 
3348.595 82824696 82260312 81686136 81102824 80511600 79914120 79312464 
3351.970 78709088 78105440 77501888 76897656 76291584 75682808 75072048 
3355.345 74461440 73854864 73256392 72668816 72093720 71530992 70979336 
3358.720 70437456 69904768 69382112 68871104 68373848 67891920 67426000 
3362.096 66976012 66540772 66119088 65708996 65309256 64918168 64534308 
3365.471 64156964 63786320 63423284 63070088 62729156 62402692 62091456 
3368.846 61794496 61509652 61233660 60962828 60694688 60427356 60159696 
3372.221 59891288 59621372 59349304 59074072 58794720 58510968 58222776 
3375.597 57930036 57633300 57332380 57027056 56716816 56401288 56080256 
3378.972 55753548 55420532 55080328 54731220 54371348 53998980 53613328 
3382.347 53214828 52804872 52385992 51961168 51532768 51102592 50671724 
3385.722 50240612 49809336 49378076 48947132 48516544 48087048 47659088 
3389.098 47233096 46809480 46388636 45971000 45557040 45147000 44741500 
3392.473 44341372 43947180 43559504 43178240 42802732 42431200 42061768 
3395.848 41692252 41321160 40948232 40574640 40202828 39835832 39475828 
3399.223 39124024 38779860 38441756 38107100 37773536 37439900 37105872 
3402.599 36772464 36441288 36113932 35791360 35473732 35160540 34850628 
3405.974 34542872 34236124 33930164 33624816 33320684 33018478 32718950 
3409.349 32422662 32129966 31840816 31554784 31271894 30992034 30715308 
3412.724 30442488 30174386 29911952 29655564 29405676 29162060 28924142 
3416.100 28690848 28461148 28233654 28007484 27781782 27556092 27330836 
3419.475 27106510 26884590 26666516 26453836 26247384 26047364 25853344 
3422.850 25664224 25478666 25295294 25113124 24931696 24751116 24571312 
3426.225 24392774 24215746 24040190 23866072 23693074 23520912 23349238 
3429.601 23178122 23007912 22839306 22673278 22511012 22353272 22200716 
3432.976 22053060 21909564 21769670 21631944 21495830 21361012 21227418 
3436.351 21095222 20964734 20835748 20707944 20580770 20453354 20324832 
3439.726 20194402 20061304 19925094 19786114 19644856 19502848 19361960 
3443.102 19224200 19090778 18962308 18837582 18714552 18591212 18465762 
3446.477 18337858 18208578 18080336 17955484 17836120 17722382 17613366 
3449.852 17507412 17402106 17296032 17188742 17080582 16972450 16865380 
3453.227 16759919 16656550 16555544 16456973 16361073 16267668 16176041 
3456.603 16084775 15992291 15896700 15796799 15692731 15585563 15477219 
3459.978 15369452 15263632 15160206 15059000 14959224 14861082 14764779 
3463.353 14671034 14580633 14493402 14408894 14325533 14242223 14158141 
3466.728 14073459 13988931 13905650 13824302 13744678 13666198 13587936 
3470.104 13509484 13430977 13353510 13277936 13204355 13132256 13060168 
3473.479 12986284 12910159 12831863 12753615 12678281 12608145 12544570 
3476.854 12487242 12434253 12382976 12331294 12277677 12221782 12164123 
3480.229 12105041 12045251 11985299 11925832 11867906 11813256 11763617 
3483.604 11720010 11682567 11649586 11618650 11586830 11552393 11514863 
3486.980 11475600 11436614 11400216 11367121 11336816 11307228 11276281 
3490.355 11242414 11205760 11168191 11132767 11102718 11080284 11066144 
3493.730 11059483 11058191 11059687 11062168 11064954 11068319 11073826 
3497.105 11083173 11098027 11119069 11145992 11176997 11209840 11241938 
3500.481 11271215 11296822 11319437 11341067 11364910 11393991 11431341 
3503.856 11478084 11534631 11599761 11672083 11750034 11832255 11917694 
3507.231 12005430 12094377 12184194 12274098 12364123 12455291 12548832 
3510.606 12646351 12749077 12857664 12971672 13089945 13210982 13332907 
3513.982 13454558 13574535 13692048 13806139 13916153 14021371 14121651 
3517.357 14217195 14308412 14395982 14480041 14559217 14631690 14694340 
3520.732 14743766 14776709 14791072 14786239 14763237 14723988 14671239 
3524.107 14607634 14534171 14451128 14356937 14249653 14127436 13989718 
3527.483 13837540 13673481 13501110 13323784 13143560 12961499 12776717 
3530.858 12588533 12396238 12200654 12002910 11804983 11608065 11412189 
3534.233 11216504 11019377 10819725 10617786 10414653 10213208 10016028 
3537.608 9825274 9642092 9466234 9297419 9135100 8979065 8829140 8685114 
3541.466 8546001 8409907 8274901 8139128 8001506 7862140 7722010 7582363 
3545.323 7444581 7309167 7176458 7046954 6921798 6802198 6689260 6583381 
3549.181 6483246 6386395 6289499 6189633 6085826 5978986 5872239 5769313 
3553.038 5673561 5586390 5506953 5432732 5360871 5288721 5215241 5140466 
3556.896 5065737 4992462 4921848 4853824 4788425 4724777 4662109 4600154 
3560.753 4538944 4479049 4421806 4368319 4319993 4277159 4239115 4202713 
3564.610 4163169 4114330 4050079 3966409 3863465 3746342 3624071 3506879 
3568.468 3403844 3319497 3254161 3205157 3167573 3137068 3109335 3081704 
3572.325 3052239 3018973 2980738 2936869 2887334 2833402 2777410 2722524 
3576.183 2671280 2625309 2584742 2548445 2514418 2480926 2446804 2412084 
3580.040 2377401 2343820 2312107 2282827 2255748 2230736 2206791 2183313 
3583.897 2158904 2131266 2097538 2054656 1999929 1932462 1854423 1771042 
3587.755 1689506 1618262 1562891 1526447 1507495 1502441 1505201 1509656 
3591.612 1510720 1504336 1488543 1463342 1430596 1393166 1354841 1318414 
3595.470 1286011 1257898 1233474 1211378 1189981 1167853 1144099 1118486 
3599.327 1091115 1062881 1034848 1008345 984898 966036 952886 946311 946576 
3603.667 953251 964641 978157 989880 995293 989548 968526 930704 877812 
3608.006 815365 751566 695908 654592 630268 620015 617925 616697 610028 
3612.346 595628 575024 553591 537368 531364 536771 550771 567459 579569 
3616.686 580365 564971 531828 482202 421138 355474 291843 237205 195170 
3621.025 167292 152973 150023 155691 167756 184927 206971 234188 266479 
3625.365 301624 335147 359719 365821 344100 289820 206076 106340 10868 
3629.704 -60763 -98264 -103233 -85510 -58080 -32668 -17461 -15440 -25114 
3634.044 -41051 -57781 -69973 -75804 -75638 -72491 -69277 -68548 -71431 
3638.384 -77858 -86901 -97370 -108599 -120259 -132217 -144175 -155503 
3642.241 -164247 -169116 -167758 -159378 -144042 -123406 -100947 -80541 
3646.098 -67190 -65335 -77924 -106115 -148878 -202832 -263170 -323764 
3649.956 -377663 -417851 -438506 -436619 -412720 -371207 -318996 -265653 
3653.813 -221014 -193393 -188723 -207800 -245950 -293037 -338365 -372664 
3657.671 -391997 -397724 -394182 -386601 -379020 -373591 -371042 -371042 
3661.528 -372962 -376802 -382132 -388620 -395010 -399346 -399015 -391997 
3665.385 -377398 -356210 -331478 -307971 -292143 -290455 -308235 -347370 
3669.243 -404047 -467865 -522673 -553548 -550603 -513803 -452242 -381437 
3673.100 -319559 -283667 -286978 -333531 -414871 -509699 -592959 -647023 
3676.958 -667899 -663664 -647949 -632598 -624491 -624194 -628098 -631208 
3680.815 -629719 -622870 -612746 -602224 -592794 -583165 -569995 -548849 
3684.673 -517510 -477331 -434368 -397029 -375180 -376537 -402954 -450389 
3688.530 -508773 -566156 -612845 -643913 -660356 -665649 -663466 -656386 
3692.387 -645468 -631572 -615591 -598915 -583859 -572179 -564965 -561457 
3696.245 -560167 -558247 -553515 -545077 -533693 -521812 -512380 -508707 
3700.102 -512711 -524857 -544183 -567314 -590312 -609404 -621084 -623036 
3703.960 -614466 -595838 -568704 -535513 -499142 -463331 -430992 -404775 
3707.817 -385906 -374551 -370313 -372300 -380212 -394943 -417288 -447973 
3711.675 -485208 -525486 -562549 -590113 -603547 -601496 -585977 -560895 
3715.532 -532137 -504834 -482858 -467501 -458300 -453401 -450389 -447973 
3719.389 -446185 -446417 -449628 -456479 -465912 -475742 -483587 -487558 
3723.247 -488154 -487624 -489180 -495998 -509203 -527173 -545639 -558512 
3727.104 -559902 -546434 -518304 -479416 -435792 -394877 -362931 -344060 
3730.962 -339325 -346311 -359984 -374716 -387660 -399247 -413812 -436520 
3734.819 -470910 -515921 -565461 -610429 -642258 -656319 -653607 -638189 
3738.677 -614466 -585150 -550074 -507217 -455552 -397724 -341080 -299229 
3742.534 -288369 -322738 -406331 -525486 -649306 -738625 -768493 -736706 
3746.391 -660918 -567480 -480277 -419307 -394778 -407821 -449826 -507184 
3750.249 -565130 -613573 -649041 -672299 -685135 -687880 -679246 -658503 
3754.106 -626609 -587003 -544415 -504073 -470248 -445689 -431455 -427285 
3757.964 -433077 -447840 -470546 -498579 -526909 -549213 -559439 -554574 
3761.821 -535778 -508210 -479813 -458564 -449197 -452607 -464522 -477960 
3765.678 -485440 -482925 -470910 -454725 -441022 -436222 -443570 -462503 
3769.536 -488518 -514928 -535612 -546665 -547294 -539650 -526875 -512546 
3773.393 -499208 -488187 -479251 -471142 -461775 -449495 -433772 -415997 
3777.251 -399445 -387958 -385376 -392990 -409112 -428675 -445027 -452673 
3781.108 -448999 -435428 -416096 -396863 -382264 -375378 -376007 -381503 
3784.966 -388389 -393288 -394678 -392858 -389415 -385906 -384251 -385078 
3788.823 -388620 -394414 -401663 -409078 -414905 -417122 -413978 -404610 
3792.680 -390176 -373227 -357898 -348595 -347768 -354952 -366804 -376570 
3796.538 -377034 -363692 -336246 -299362 -261050 -232041 -221842 -237042 
3800.395 -279064 -340517 -408019 -463364 -492324 -489544 -458498 -410734 
3804.253 -359620 -319096 -299825 -307143 -339424 -387793 -438440 -476967 
3808.110 -495468 -493251 -475577 -449727 -422154 -395936 -370644 -343795 
3811.968 -312838 -277309 -240519 -208859 -189949 -190777 -213562 -253335 
3815.825 -297806 -331048 -340981 -323135 -282442 -230617 -182927 -153681 
3819.682 -153582 -186537 -247076 -319990 -384913 -425927 -435560 -417751 
3823.540 -381966 -341146 -305554 -281746 -270885 -269859 -272342 -271249 
3827.397 -262309 -244659 -221543 -197632 -177992 -166168 -162856 -166566 
3831.255 -173753 -180278 -182497 -178721 -168122 -152191 -133145 -114363 
3835.112 -99191 -92003 -95548 -110984 -137186 -169712 -202269 -228498 
3838.969 -244129 -247606 -240917 -228167 -214026 -202898 -198295 -202368 
3842.827 -215715 -237108 -263170 -289991 -312341 -325353 -326512 -314957 
3846.684 -291845 -260388 -223961 -185113 -145003 -103995 -62287 -22364 10371 
3851.024 26508 13783 -39295 -137087 -270786 -415434 -539219 -617047 -640406 
3855.364 -617312 -564105 -497917 -431290 -371836 -322738 -283567 -252871 
3859.221 -228564 -209091 -193327 -180079 -169016 -159941 -154145 -153847 
3863.078 -161962 -180377 -207965 -239327 -265653 -278137 -270587 -243764 
3866.936 -204852 -165804 -139438 -135828 -158451 -201408 -249924 -286680 
3870.793 -299925 -287342 -257010 -221378 -193161 -180145 -183656 -198195 
3874.651 -213827 -220550 -211840 -187067 -150998 -111713 -78222 -58245 
3878.508 -57351 -76731 -113005 -157656 -199785 -227736 -233797 -215880 
3882.365 -178986 -133277 -90380 -62585 -58345 -78686 -116781 -158451 -188160 
3886.705 -193857 -172660 -130296 -78123 -29156 5533 18489 7587 -22994 -64805 
3891.527 -108036 -143579 -166301 -174813 -170673 -156530 -135165 -108699 
3895.384 -78984 -48505 -19714 4340 20642 27038 23459 10967 -6262 -24087 
3900.206 -38201 -46650 -50062 -51354 -54833 -64242 -81435 -105121 -131224 
3904.546 -153946 -168122 -170606 -161697 -144009 -121916 -99556 -80276 
3908.403 -64871 -53309 -44165 -35617 -26506 -16036 -4439 7985 20510 32837 
3913.225 44136 53581 59579 60308 55138 43805 27899 10039 -6527 -19316 -26771 
3918.529 -28925 -26672 -20443 -10569 3247 21504 43440 67002 88476 103357 
3923.351 108063 101368 84831 63058 42214 28131 24188 30815 45727 65013 84698 
3928.655 101302 113333 119994 121320 117674 110018 99048 86256 73762 63787 
3933.476 58319 58220 63124 71310 80589 88476 94044 96695 97358 96961 97259 
3938.780 98783 101733 105379 109024 111576 112372 111046 108063 104649 
3943.120 101899 101401 104484 111278 121221 132622 143460 151084 153802 
3947.459 150620 141936 129009 113896 98651 85162 74856 68692 67433 71078 
3952.281 79396 91128 104649 117476 127949 134644 138157 139781 141969 146941 
3957.103 155724 167922 181579 194009 202827 206706 205545 200573 194308 
3961.443 188441 184562 182573 182573 183866 185822 188606 192319 197424 
3965.782 204054 212010 220795 229911 239061 247747 256069 263860 271485 
3970.122 278813 286074 293169 299933 306299 312234 317672 322613 327487 
3974.461 332726 338761 346090 354745 364461 374609 384093 392053 397956 
3978.801 401372 402300 401073 397856 393180 387542 381507 376333 372818 
3983.141 371856 373514 377726 383032 388338 392418 394109 393578 391091 
3987.480 387178 382900 378257 373581 368905 364826 361576 359819 359719 
3991.820 360813 361974 361609 358326 351661 341646 329875 318236 309118 
3996.159 303713 302785 305868 311836 319397 327156 334119 339856 344067 
4000.499 346521 
##END=
