
##TITLE=mdmaHCL00398_6
##JCAMP-DX=5.01  $$ Nicolet v. 1
##DATATYPE=INFRARED SPECTRUM
##ORIGIN=UniL
##OWNER=Nicolet
##LONGDATE=2011/08/24
##TIME=09:46:35
##SPECTROMETER/DATA SYSTEM=Nicolet iS5
##DATA PROCESSING=
Ratio against background
%Transmittance->Absorbance
Truncated
ElementMultiply or ElementDivide
##COMMENTS=
Number of sample scans: 32
Collection length: 51.18 sec
Sample gain: 2.0
Background collected on: Mer Aout 24 09:45:05 2011 (GMT+02:00);
Number of background scans: 32
Background gain: 2.0
Sample spacing:  1.000
Number of scan points: 12415
Resolution points: 8192
Number of FFT points: 65536
Apodization: N-B fort;
Phase correction: Mertz;
Laser frequency: 15798.0 cm-1
Number of rejected sample scans: 0
Number of rejected background scans: 0
Bench serial number: ASB1000141;
##RESOLUTION=4.000
##XUNITS=1/CM
##YUNITS=ABSORBANCE
##FIRSTX=649.893372
##LASTX=4000.122314
##FIRSTY=0.095352
##MAXX=4000.122314
##MINX=649.893372
##MAXY=0.243796
##MINY=0.000058
##XFACTOR=1.000000
##YFACTOR=1.000000E-009
##NPOINTS=6950
##DELTAX=0.482117
##ZPD=6100
##XYDATA=(X++(Y..Y))
649.893 95351904 94643072 93994416 93414480 92891280 92405320 91945608 
653.268 91519072 91148904 90865224 90685744 90606136 90599728 90629288 
656.643 90661944 90683248 90700040 90732256 90800160 90909256 91050656 
660.018 91203960 91351752 91487864 91622000 91773008 91959816 92190952 
663.393 92459632 92747352 93030824 93288608 93499776 93645152 93701968 
666.767 93649472 93484456 93236816 92975696 92775288 92683320 92699480 
670.142 92786160 92885248 92938560 92906304 92771024 92544912 92259744 
673.517 91953272 91650768 91356624 91055240 90725232 90352024 89936296 
676.892 89492304 89039088 88587720 88137512 87675936 87188640 86669528 
680.267 86125784 85574488 85034008 84514648 84013512 83518144 83013184 
683.642 82489536 81950320 81407176 80874488 80361184 79868368 79389632 
687.016 78919488 78458264 78015144 77604480 77240240 76926496 76657328 
690.391 76417248 76189736 75965896 75746792 75543008 75369008 75236080 
693.766 75146808 75097216 75080592 75093512 75140312 75231672 75380232 
697.141 75595336 75878208 76221680 76614792 77047312 77514560 78017560 
700.516 78558864 79137856 79746960 80371432 80993168 81595448 82168296 
703.890 82708472 83217320 83695928 84142192 84551680 84920456 85248984 
707.265 85545112 85820496 86086880 86350880 86611640 86863776 87104688 
710.640 87339248 87583696 87860744 88188584 88572200 88995160 89420000 
714.015 89795712 90075464 90226840 90241808 90135320 89939680 89695976 
717.390 89442832 89219104 89064224 89018544 89130248 89446336 90001520 
720.765 90804896 91824424 92983496 94157080 95197712 95961512 96327040 
724.139 96234152 95691856 94783424 93641408 92424672 91285600 90329096 
727.514 89608600 89122144 88830520 88675856 88603808 88580288 88588856 
730.889 88628552 88702560 88810680 88945712 89096848 89254224 89413768 
734.264 89577488 89751048 89937232 90134384 90334520 90528504 90710528 
737.639 90881480 91047872 91218752 91399232 91588248 91778000 91959200 
741.013 92126136 92281464 92434504 92597440 92779392 92981864 93198056 
744.388 93416864 93628752 93830424 94025768 94222600 94427344 94641416 
747.763 94859848 95074296 95277712 95468176 95649600 95829656 96014168 
751.138 96204872 96397896 96586208 96763872 96929232 97084792 97235184 
754.513 97384216 97531304 97672512 97803608 97923352 98035920 98149920 
757.888 98274544 98415664 98573336 98741752 98913520 99083688 99253352 
761.262 99428784 99618784 99829888 100064080 100318928 100590312 100878952 
764.637 101194304 101557824 102001464 102560176 103266016 104135944 
767.530 105160232 106292432 107445880 108503072 109317336 109752848 
770.423 109710528 109153456 108126944 106753472 105213928 103690200 
773.315 102338304 101253872 100457712 99910904 99535432 99249936 98981432 
776.690 98679120 98311480 97851080 97266104 96519504 95568872 94380240 
780.065 92937200 91243776 89323696 87213952 84961960 82617160 80232512 
783.440 77864208 75564024 73378232 71342776 69476936 67786400 66266732 
786.815 64907968 63700408 62636376 61710808 60918528 60252792 59704848 
790.189 59266124 58929764 58694316 58563632 58544784 58645388 58871476 
793.564 59225524 59707472 60316972 61055832 61929172 62946776 64120404 
796.939 65465220 66999712 68745360 70732312 72999608 75589968 78548032 
800.314 81904384 85658304 89755984 94071392 98406688 102472912 105933008 
803.689 108452240 109726320 109572264 107964400 105058168 101155952 96650688 
807.063 91957112 87391760 83143328 79250496 75629880 72131120 68605640 
810.438 64970916 61228200 57462464 53800356 50382136 47317440 44663092 
813.813 42429552 40586864 39085012 37865356 36874636 36068712 35408948 
817.188 34865384 34414020 34036832 33723604 33469178 33271388 33127926 
820.563 33034138 32982480 32965928 32978866 33020406 33092990 33201494 
823.938 33349268 33537220 33763532 34025616 34322716 34657264 35033876 
827.312 35458344 35934908 36466116 37053148 37700240 38417140 39223052 
830.687 40148452 41231776 42518232 44055020 45878336 48005144 50413616 
834.062 53033368 55724352 58277028 60445100 61951456 62555580 62113128 
837.437 60599892 58134616 54943320 51333328 47611500 44036684 40806876 
840.812 38026804 35727712 33885420 32445264 31340588 30504224 29880822 
844.186 29422340 29089140 28852076 28688548 28584174 28530814 28523242 
847.561 28556468 28623848 28717538 28829732 28955450 29093676 29246794 
850.936 29418474 29611188 29824852 30057086 30305288 30569348 30851958 
854.311 31159424 31498738 31875118 32291758 32749638 33249780 33796372 
857.686 34397632 35066240 35818740 36672332 37647484 38767612 40058876 
861.060 41552004 43274908 45242820 47445152 49833344 52316096 54752004 
864.435 56977868 58825604 60144816 60842820 60893672 60349716 59327312 
867.810 57997892 56561892 55204736 54094184 53354700 53057252 53231232 
871.185 53865956 54922456 56336400 58023944 59887064 61801260 63629092 
874.560 65228700 66456048 67198240 67386992 67008636 66107980 64778788 
877.935 63150740 61356596 59523924 57755908 56114152 54623292 53270824 
881.309 52019768 50819828 49625096 48409372 47170816 45934572 44743304 
884.684 43650316 42703356 41935044 41361792 40982348 40784088 40748968 
888.059 40859656 41102416 41466400 41943184 42525360 43205656 43979408 
891.434 44845352 45808116 46876728 48064472 49386764 50857152 52488020 
894.809 54287160 56253980 58374160 60611816 62904344 65152356 67230536 
898.183 69000496 70320872 71083752 71228216 70751656 69708888 68202184 
901.558 66369756 64353012 62293144 60315032 58510132 56944208 55654592 
904.933 54653352 53936892 53491468 53300308 53346236 53615572 54098572 
908.308 54788088 55680016 56772320 58065456 59561620 61263184 63169332 
911.683 65271868 67549976 69965568 72468704 74998440 77492224 79901704 
915.058 82196448 84372296 86449768 88471568 90493040 92566648 94734016 
918.432 97005240 99348552 101673128 103832368 105641248 106883104 107367848 
921.807 106971760 105671168 103569856 100895208 97991736 95244008 93050856 
925.182 91770640 91637928 92748456 95016400 98192584 101861896 105504432 
928.557 108612192 110718096 111510864 110879952 108900344 105792056 
931.450 101835168 97326128 92506128 87546160 82568592 77653648 72869008 
934.824 68289576 63993104 60061140 56570908 53578352 51120444 49213836 
938.199 47856624 47033148 46712912 46850076 47372868 48181000 49154684 
941.574 50148556 51016092 51633104 51901312 51771760 51246632 50376812 
944.949 49248644 47966512 46642888 45371760 44224400 43245772 42451728 
948.324 41838208 41387160 41076268 40881788 40782416 40760652 40799560 
951.698 40883316 40998116 41131632 41276372 41429732 41593244 41771224 
955.073 41968004 42185972 42425864 42686612 42967564 43268648 43590968 
958.448 43935192 44300824 44684904 45083220 45491580 45907540 46331308 
961.823 46765416 47213072 47676316 48154752 48646280 49147972 49658488 
965.198 50178460 50710116 51256476 51818944 52397132 52989156 53593048 
968.573 54208812 54839288 55489804 56165960 56872628 57612908 58388032 
971.947 59199324 60049800 60943920 61887220 62884504 63937820 65046080 
975.322 66206336 67415864 68674408 69984960 71352376 72782736 74279808 
978.697 75845696 77481960 79191648 80981632 82863344 84849712 86952992 
982.072 89181264 91536008 94012192 96597256 99271920 102004520 104744728 
985.447 107423480 109943240 112184688 114026776 115350480 116065696 
988.339 116127120 115538288 114354376 112671496 110625880 108371264 
991.232 106062392 103853544 101869768 100202520 98910400 98013288 97502816 
994.607 97351544 97525208 97989576 98714720 99679096 100863320 102249280 
997.982 103819368 105554328 107434640 109441280 111550008 113727632 
1000.874 115928936 118087400 120122928 121951112 123487464 124668752 
1003.767 125460136 125859200 125897672 125636440 125165568 124586776 
1006.660 124013960 123562712 123331224 123400952 123827256 124635688 
1009.552 125829416 127394184 129308312 131546064 134081576 136889936 
1012.445 139941136 143201760 146638352 150216976 153910960 157699184 
1015.338 161556624 165444480 169295472 172998688 176413104 179374384 
1018.231 181719152 183329136 184148736 184209600 183627104 182601264 
1021.123 181394416 180279136 179538272 179414608 180077856 181630192 
1024.016 184089152 187403216 191460368 196116768 201219072 206601728 
1026.909 212109360 217590384 222883296 227833632 232292064 236123696 
1029.802 239232032 241557360 243077152 243796192 243736160 242927648 
1032.695 241406224 239218784 236423952 233086048 229275040 225055744 
1035.588 220482080 215606816 210485792 205185776 199796960 194423504 
1038.481 189174512 184162000 179479408 175200704 171381248 168049264 
1041.374 165206176 162818448 160815040 159078880 157449808 155755952 
1044.267 153820480 151501648 148726064 145494096 141886848 138040192 
1047.160 134134680 130357560 126872856 123822976 121303248 119363624 
1050.053 118014872 117232240 116966576 117150304 117714000 118589968 
1052.947 119715560 121039632 122512784 124080528 125682816 127243640 
1055.840 128673984 129886192 130792144 131318344 131416264 131060408 
1058.733 130255952 129037928 127475680 125667944 123732520 121808928 
1061.626 120031584 118520448 117378656 116676232 116454880 116729032 
1064.519 117487520 118695648 120291568 122194208 124295792 126467320 
1067.412 128580016 130504144 132128912 133377936 134202424 134584080 
1070.305 134526848 134049488 133178648 131945056 130383152 128527360 
1073.198 126411096 124070968 121545192 118880424 116139240 113395944 
1076.091 110740072 108273048 106089376 104276744 102906440 102021872 
1078.984 101642024 101755128 102321112 103265256 104480512 105839608 
1081.877 107188808 108374584 109267976 109773584 109856096 109543136 
1084.770 108923848 108128128 107307272 106623264 106215960 106198824 
1087.663 106652696 107614208 109078656 110997552 113289264 115838248 
1090.556 118507432 121163336 123673536 125924512 127830792 129324512 
1093.449 130358728 130904552 130947696 130491752 129558296 128190008 
1096.343 126446872 124402784 122148592 119779080 117390728 115076240 
1099.236 112905360 110917976 109114600 107454928 105862400 104239000 
1102.129 102495184 100562040 98414328 96075424 93615760 91138272 88754672 
1105.504 86580704 84714016 83224384 82159168 81538240 81359464 81602448 
1108.879 82233960 83210944 84480752 85988192 87674032 89471944 91315448 
1112.254 93129152 94829960 96337672 97573120 98469280 98982592 99091688 
1115.630 98800104 98131432 97125976 95834656 94311848 92617696 90808536 
1119.005 88932984 87032016 85132552 83249632 81390304 79557768 77756912 
1122.380 75999088 74300600 72683184 71169776 69779464 68526448 67419728 
1125.755 66463852 65662472 65020876 64546340 64249196 64140528 64227604 
1129.131 64513356 64991736 65647060 66450796 67362928 68333936 69303008 
1132.506 70209272 70997704 71625664 72075096 72353736 72497200 72559192 
1135.881 72606144 72706456 72915096 73270632 73787080 74451720 75225208 
1139.256 76045072 76837312 77516816 78002656 78229688 78147016 77726992 
1142.632 76961896 75860496 74444440 72745784 70807224 68677824 66412844 
1146.007 64073584 61716808 59396980 57161928 55047868 53082976 51286456 
1149.382 49668816 48234980 46983852 45910744 45006620 44260096 43659148 
1152.757 43191124 42845444 42614052 42490644 42471168 42552144 42729824 
1156.133 43000452 43360464 43807448 44340492 44959876 45666752 46461052 
1159.508 47341716 48305372 49347448 50461772 51640156 52872192 54142112 
1162.883 55427048 56699184 57922768 59058888 60070232 60919328 61573984 
1166.258 62008432 62201904 62142564 61827888 61267076 60478728 59491052 
1169.634 58339216 57058988 55686720 54257540 52801276 51346380 49918672 
1173.009 48539372 47228220 46001276 44870112 43844316 42930440 42133248 
1176.384 41457068 40905304 40480904 40186108 40021852 39988572 40086424 
1179.759 40316828 40683064 41190972 41847472 42659456 43632988 44770520 
1183.135 46072120 47534344 49150084 50905508 52776024 54725544 56697784 
1186.510 58618920 60405992 61965248 63208804 64066484 64487444 64451740 
1189.885 63969880 63083804 61858716 60375720 58727276 56998760 55267652 
1193.260 53599904 52043524 50634940 49400500 48356780 47514568 46877612 
1196.635 46442580 46197256 46119392 46178460 46333228 46535916 46737340 
1200.011 46884664 46929144 46830184 46555208 46086892 45425100 44587744 
1203.386 43607744 42529160 41403160 40276616 39191320 38179924 37262892 
1206.761 36452136 35751852 35161188 34675708 34288756 33992724 33778468 
1210.136 33637168 33561740 33547528 33593204 33699896 33870340 34106752 
1213.512 34409788 34777788 35206784 35691452 36224924 36798932 37403208 
1216.887 38024492 38648260 39258452 39839792 40380312 40871488 41308112 
1220.262 41688132 42011248 42279056 42494772 42665228 42800540 42913908 
1223.637 43021636 43140256 43284132 43465264 43690692 43962504 44278184 
1227.013 44630816 45009452 45399788 45787792 46161104 46513236 46845836 
1230.388 47170488 47508248 47884708 48329372 48871372 49535360 50344484 
1233.763 51318300 52473548 53826268 55389292 57171644 59177756 61406972 
1237.138 63854256 66509724 69359792 72385400 75557560 78839984 82186072 
1240.514 85541808 88857272 92087224 95197464 98166904 100981240 103628912 
1243.889 106096264 108362464 110398656 112169760 113630336 114728944 
1246.782 115411800 115621776 115310808 114447208 113019432 111040248 
1249.675 108542040 105573896 102190664 98453736 94431792 90196536 85829696 
1253.050 81421280 77057240 72823752 68797808 65038344 61591624 58486244 
1256.426 55732416 53325368 51244920 49459460 47924740 46589140 45398580 
1259.801 44295320 43228680 42158440 41055836 39908072 38716316 37493284 
1263.176 36258672 35036356 33850960 32723628 31671848 30708158 29839226 
1266.551 29066714 28387248 27793968 27277592 26828262 26437638 26099436 
1269.927 25809704 25566268 25367684 25212170 25098028 25023682 24989110 
1273.302 24995814 25047480 25148548 25302914 25512362 25775104 26084130 
1276.677 26426686 26784596 27132750 27440942 27679146 27818202 27837242 
1280.052 27727600 27494420 27155358 26735930 26266146 25772854 25277032 
1283.427 24794192 24333756 23902026 23505346 23149918 22842868 22590830 
1286.803 22399112 22271336 22210480 22219652 22302764 22465124 22711088 
1290.178 23043968 23463726 23966726 24544912 25185520 25872226 26581510 
1293.553 27284580 27949314 28540332 29027144 29389296 29619842 29727976 
1296.928 29736740 29680540 29596040 29520174 29486024 29518650 29636976 
1300.304 29851894 30164334 30564266 31028368 31523642 32006178 32429408 
1303.679 32752354 32941368 32977256 32856266 32589424 32199294 31716436 
1307.054 31178006 30620970 30078888 29581570 29148560 28790926 28510964 
1310.429 28304414 28164214 28083190 28056186 28080044 28152654 28271596 
1313.805 28432422 28629546 28857352 29111744 29390254 29693204 30021188 
1317.180 30375072 30754640 31159494 31590200 32048412 32537640 33060130 
1320.555 33615508 34197404 34793148 35382956 35941060 36441504 36858336 
1323.930 37170768 37367672 37449656 37432244 37343772 37225780 37126480 
1327.306 37090068 37154704 37342216 37656372 38083880 38600272 39177396 
1330.681 39787460 40410492 41034132 41651952 42262988 42868448 43472224 
1334.056 44079184 44695408 45326520 45975384 46640084 47312232 47978428 
1337.431 48620188 49216876 49749620 50200292 50554080 50800648 50934084 
1340.807 50954428 50868404 50689336 50435348 50128216 49792352 49451032 
1344.182 49125672 48835072 48592504 48407708 48285676 48226540 48224540 
1347.557 48265900 48329520 48384964 48396664 48331408 48159936 47866208 
1350.932 47450108 46930656 46343364 45736064 45167920 44697464 44376528 
1354.308 44246080 44325884 44612708 45078108 45674956 46341188 47008296 
1357.683 47615048 48108296 48448748 48615184 48602772 48425264 48112148 
1361.058 47712336 47288880 46908916 46641152 46536948 46619096 46877724 
1364.433 47271408 47736968 48192960 48556188 48747432 48696980 48361816 
1367.809 47732236 46838452 45743428 44534064 43304488 42131752 41074556 
1371.184 40165896 39415412 38819568 38369180 38057476 37881624 37841672 
1374.559 37935460 38152936 38476148 38882796 39350548 39864160 40416748 
1377.934 41009808 41651224 42353824 43134876 44014720 45017392 46166704 
1381.310 47477016 48942348 50522364 52142372 53686696 55013456 55981640 
1384.685 56451884 56316972 55523804 54094860 52146256 49870804 47515972 
1388.060 45306772 43398688 41866848 40707588 39870264 39281556 38870004 
1391.435 38570720 38326940 38093212 37830000 37506072 37104900 36626656 
1394.811 36089236 35519648 34943912 34376504 33818044 33260726 32697372 
1398.186 32131214 31581614 31080862 30664100 30359226 30176552 30109926 
1401.561 30141532 30250614 30418854 30632420 30883904 31169782 31488124 
1404.936 31836252 32210000 32604280 33014580 33439048 33878972 34338168 
1408.312 34821656 35333392 35875056 36445652 37042324 37661284 38299220 
1411.687 38952776 39618168 40289488 40958572 41616468 42255572 42873344 
1415.062 43473688 44067376 44669296 45296472 45965696 46691104 47482260 
1418.437 48340408 49253060 50192260 51116832 51980700 52739656 53359308 
1421.813 53820456 54119140 54273424 54322084 54324372 54342772 54427684 
1425.188 54605516 54875000 55215952 55602092 56013644 56440184 56880788 
1428.563 57340700 57829716 58361616 58954772 59635436 60434020 61375372 
1431.938 62473164 63721396 65098344 66569664 68102872 69677648 71283888 
1435.313 72924152 74603720 76323224 78067968 79814488 81539160 83221256 
1438.689 84843064 86379944 87798440 89046936 90058704 90766144 91099904 
1442.064 90999872 90423336 89342784 87756144 85690712 83212712 80420752 
1445.439 77431032 74376056 71378544 68544688 65963900 63692772 61751180 
1448.814 60116236 58734976 57539704 56470600 55498048 54628664 53902976 
1452.190 53371972 53076872 53023408 53175204 53451332 53738740 53914568 
1455.565 53854928 53481240 52801764 51936856 51075048 50388500 49984692 
1458.940 49892992 50099468 50576264 51291788 52210968 53286856 54462612 
1462.315 55662312 56790524 57750536 58449248 58826932 58879444 58664312 
1465.691 58280596 57828540 57392880 57025432 56748420 56565436 56465772 
1469.066 56427660 56415360 56382044 56272876 56032112 55625856 55060544 
1472.441 54395496 53723516 53139068 52707296 52451040 52366332 52439940 
1475.816 52662144 53029584 53538696 54177468 54919068 55721980 56539324 
1479.192 57320280 58023796 58624792 59116168 59512068 59842036 60147328 
1482.567 60471036 60856276 61349576 61998576 62854132 63964196 65360136 
1485.942 67042044 68961304 71021352 73066952 74895080 76288544 77021432 
1489.317 76909648 75861008 73901720 71185000 67940768 64422340 60833332 
1492.693 57299144 53887636 50616512 47488100 44522940 41766300 39295228 
1496.068 37202352 35564344 34417536 33749136 33514920 33655716 34115104 
1499.443 34848080 35814208 36974276 38287932 39707836 41182192 42659964 
1502.818 44077460 45360212 46416472 47113832 47284852 46742356 45336632 
1506.194 43059208 40114872 36878208 33712680 30835738 28296528 26045042 
1509.569 24007274 22129304 20386988 18784920 17340892 16068546 14971056 
1512.944 14037353 13247874 12579631 12011833 11526023 11104281 10730596 
1516.319 10393646 10089307 9822969 9604556 9441581 9331509 9259338 9199161 
1520.177 9124882 9020606 8894407 8776764 8706985 8709960 8784507 8908239 
1524.034 9050343 9186402 9303851 9407009 9512088 9638568 9798636 9991819 
1527.892 10208256 10436747 10671709 10914885 11173971 11456243 11763345 
1531.267 12089880 12424706 12756072 13078983 13400016 13735342 14099745 
1534.642 14499705 14927262 15366053 15794566 16193202 16547628 16846228 
1538.017 17081720 17249866 17348376 17377586 17342272 17255174 17134488 
1541.393 16999258 16861488 16720593 16564080 16371876 16127139 15823672 
1544.768 15473030 15100646 14737493 14405400 14107994 13832888 13558057 
1548.143 13264134 12942792 12603200 12267758 11964148 11710342 11507854 
1551.518 11344264 11201646 11066042 10933539 10811300 10712597 10648788 
1554.894 10621895 10621997 10629704 10621827 10570932 10448490 10230238 
1558.269 9908827 9512799 9105730 8760062 8517819 8379639 8320461 8307289 
1562.126 8309654 8301716 8267201 8200273 8107292 8004240 7910492 7841290 
1565.984 7800199 7779656 7764443 7739650 7695095 7629604 7551243 7474446 
1569.841 7414549 7381284 7377846 7402753 7452536 7522485 7606708 7696917 
1573.698 7780398 7842269 7869631 7857721 7816258 7768625 7743529 7759012 
1577.556 7816055 7901381 7997187 8088017 8164111 8222626 8264939 8293712 
1581.413 8310768 8316071 8309079 8290402 8263621 8234850 8210436 8194837 
1585.271 8188455 8188050 8188962 8188050 8185720 8186058 8194398 8214826 
1589.128 8248628 8294084 8348630 8411359 8483862 8569454 8670849 8786840 
1592.986 8911554 9035356 9148805 9245664 9325042 9391773 9453467 9517575 
1596.843 9588500 9668551 9759427 9864388 9990768 10148082 10346069 10592254 
1600.700 10889368 11236327 11630255 12067906 12546718 13062457 13606911 
1604.076 14163961 14709353 15214318 15646838 15977820 16186289 16260445 
1607.451 16201457 16020998 15740760 15386855 14985598 14563363 14143148 
1610.826 13744815 13384810 13073383 12813059 12598424 12418058 12256613 
1614.201 12096932 11924471 11728656 11507683 11270875 11039701 10841160 
1617.577 10697925 10621726 10611165 10654968 10735861 10835181 10936767 
1620.952 11027806 11103737 11168634 11235749 11321512 11440083 11597686 
1624.327 11790785 12011050 12249149 12499178 12758119 13024079 13294163 
1627.702 13563117 13823480 14069729 14299748 14516629 14726559 14935287 
1631.078 15145247 15353798 15552147 15727842 15867351 15956644 15985554 
1634.453 15950836 15860476 15734611 15601362 15487176 15406252 15358055 
1637.828 15330628 15307769 15272349 15210818 15116427 14990640 14843425 
1641.203 14689062 14542429 14412182 14298549 14193093 14081160 13946262 
1644.579 13773133 13552930 13287399 12991541 12691928 12420683 12206549 
1647.954 12065419 11998856 11996506 12040856 12108754 12171484 12195474 
1651.329 12140101 11967690 11664324 11269786 10877918 10582815 10426532 
1654.704 10389302 10424156 10485386 10542178 10579556 10592627 10584173 
1658.080 10559864 10525034 10482195 10430774 10367583 10288896 10191804 
1661.455 10075877 9943778 9802330 9662013 9534001 9428680 9351652 9302836 
1665.312 9276330 9261539 9245191 9212022 9148669 9046284 8903639 8728790 
1669.170 8537655 8350691 8185383 8052742 7955406 7888424 7841965 7801920 
1673.027 7753378 7680930 7573091 7428031 7257716 7086929 6941628 6839256 
1676.885 6780591 6753532 6739398 6721462 6691178 6649623 6606425 6574063 
1680.742 6560675 6564106 6570531 6555293 6492226 6362623 6170678 5948518 
1684.599 5747052 5607132 5539505 5530276 5553868 5588236 5617034 5631434 
1688.457 5628950 5610388 5579744 5542055 5504705 5475747 5461620 5465815 
1692.314 5485813 5512524 5530712 5522859 5474237 5381569 5259307 5139561 
1696.172 5058094 5034361 5063826 5121522 5174935 5189689 5141036 5023936 
1700.029 4862101 4703808 4593959 4553576 4573265 4628016 4689975 4737572 
1703.886 4757001 4742430 4697277 4632370 4563220 4503321 4460804 4436836 
1707.744 4427597 4427095 4429338 4430844 4430509 4429505 4430342 4434760 
1711.601 4443364 4454745 4466562 4476237 4482129 4483635 4480857 4472856 
1715.459 4457189 4429271 4385523 4325916 4257752 4195152 4153970 4144536 
1719.316 4168622 4219174 4285391 4355635 4421204 4477978 4526422 4570452 
1723.174 4615123 4665258 4722867 4787855 4857979 4930762 5003859 5074688 
1727.031 5140835 5199178 5246932 5282650 5307638 5326354 5343730 5363287 
1730.888 5383347 5395794 5385461 5333868 5226676 5062586 4863307 4668205 
1734.746 4520061 4441957 4430610 4465524 4520429 4573600 4608727 4618371 
1738.603 4603503 4572729 4538141 4511691 4500308 4504895 4521467 4544770 
1742.461 4569883 4593624 4614487 4632537 4647942 4661540 4673228 4682540 
1746.318 4688435 4689640 4684214 4670181 4645397 4607321 4553443 4482129 
1750.176 4394125 4294092 4190635 4095365 4019010 3967880 3942267 3936516 
1754.033 3940729 3942902 3932805 3904152 3857481 3800019 3743668 3700056 
1757.890 3674693 3666306 3666941 3666339 3653976 3623437 3573589 3509685 
1761.748 3441014 3378298 3330749 3302469 3293855 3301034 3318429 3339263 
1765.605 3356192 3363305 3357160 3338762 3313454 3289482 3274659 3271855 
1769.463 3277797 3283239 3276629 3248319 3195110 3123852 3050204 2991681 
1773.320 2959554 2955317 2971664 2998254 3025546 3049003 3068523 3086643 
1777.177 3106132 3127123 3147081 3161132 3165571 3159129 3144778 3128057 
1781.035 3114842 3108468 3108601 3111538 3113173 3110236 3102361 3091748 
1784.892 3082171 3076665 3076865 3082371 3092616 3106999 3125688 3148683 
1788.750 3175184 3201319 3221547 3228624 3216640 3183494 3133030 3075798 
1792.607 3023310 2986210 2969195 2970963 2986043 3008330 3032353 3054308 
1796.465 3071860 3083706 3088545 3085642 3075064 3057812 3036623 3015069 
1800.322 2997186 2985742 2981973 2985376 2994650 3008063 3024345 3042896 
1804.179 3062583 3082138 3100225 3115042 3125588 3132062 3135166 3135900 
1808.037 3135333 3133264 3128625 3120715 3108968 3094485 3079535 3067088 
1811.894 3059247 3056978 3059247 3064252 3069658 3074162 3077499 3080703 
1815.752 3085308 3092683 3104063 3119547 3139004 3161866 3187533 3215405 
1819.609 3244714 3274726 3304907 3334956 3364273 3392223 3417870 3439344 
1823.467 3455008 3464192 3468401 3471474 3479222 3496524 3525852 3565070 
1827.324 3608235 3646491 3671017 3677032 3664802 3641680 3618525 3606831 
1831.181 3613046 3637837 3676564 3722647 3770239 3815997 3859053 3900441 
1835.039 3941498 3982794 4023692 4063423 4101720 4139987 4181636 4230382 
1838.896 4289909 4361994 4445840 4538308 4634848 4730136 4818912 4896748 
1842.754 4961561 5014316 5060005 5106268 5161522 5231204 5315051 5407435 
1846.611 5499000 5579174 5638852 5673293 5681921 5668224 5637308 5593941 
1850.469 5540344 5476585 5401229 5313944 5216750 5114247 5012003 4914643 
1854.326 4824105 4738946 4656382 4573198 4488590 4404334 4323841 4250290 
1858.183 4185149 4127510 4074594 4024093 3974969 3928057 3885897 3850261 
1862.041 3821847 3799485 3780867 3764724 3751054 3741462 3737285 3738388 
1865.898 3741362 3740159 3727693 3699020 3654343 3600082 3546764 3505543 
1869.756 3484032 3483097 3498161 3521743 3546830 3568979 3586218 3598579 
1873.613 3606798 3610673 3609604 3602722 3589759 3572019 3551908 3532032 
1877.470 3513827 3497760 3483130 3468935 3454841 3441481 3430093 3421109 
1881.328 3413929 3405981 3394560 3377530 3354523 3328078 3302002 3280534 
1885.185 3266313 3259636 3258200 3258701 3257499 3252258 3242210 3227922 
1889.043 3211366 3195143 3182026 3174616 3175350 3184896 3201853 3223349 
1892.900 3244246 3259269 3265011 3260404 3248185 3233631 3222849 3219711 
1896.758 3225586 3238404 3254361 3269852 3282437 3291452 3297495 3301100 
1900.615 3301902 3299798 3293789 3284441 3273390 3263175 3255496 3251123 
1904.472 3248887 3246383 3241743 3234065 3224384 3215405 3209697 3207928 
1908.330 3209029 3210632 3210498 3207928 3205124 3204857 3210498 3223283 
1912.187 3242010 3264076 3285976 3306242 3324772 3342869 3360867 3377162 
1916.045 3388182 3389584 3378364 3355357 3325807 3298162 3279199 3272522 
1919.902 3276195 3284441 3290751 3289949 3281469 3267982 3254495 3245248 
1923.760 3241442 3242143 3244413 3246449 3248686 3253393 3263208 3278865 
1927.617 3297929 3315457 3325807 3325206 3313754 3294790 3273824 3256030 
1931.474 3243545 3236134 3231962 3228957 3226888 3227155 3231027 3238772 
1935.332 3248553 3256932 3260471 3258601 3253393 3249120 3250122 3258234 
1939.189 3271320 3284374 3291652 3289081 3277063 3259703 3242611 3231060 
1943.047 3226788 3228390 3233564 3240407 3249788 3265011 3289682 3325006 
1946.904 3369616 3417336 3462456 3499864 3528057 3547732 3562064 3572921 
1950.761 3580405 3583144 3579302 3568678 3553812 3538479 3525518 3516232 
1954.619 3507647 3494520 3472108 3438709 3395629 3349280 3305808 3269551 
1958.476 3241142 3216840 3192406 3165371 3137068 3111838 3095253 3090747 
1962.334 3096888 3109235 3121216 3128491 3129593 3126956 3124887 3126489 
1966.191 3132930 3142475 3151520 3158195 3161566 3162166 3160197 3154023 
1970.049 3141073 3118246 3085508 3046800 3009597 2982840 2973232 2982807 
1973.906 3009030 3046133 3090914 3144845 3213602 3304473 3420875 3558756 
1977.763 3704868 3841937 3953836 4030949 4072755 4084662 4075497 4053356 
1981.621 4022522 3985168 3942869 3898468 3856545 3823485 3802226 3793334 
1985.478 3792633 3793201 3789123 3778394 3762719 3746275 3734678 3729264 
1989.336 3728295 3728495 3726123 3720608 3715562 3716999 3729097 3753394 
1993.193 3786382 3821078 3851765 3874564 3890077 3901444 3912911 3925717 
1997.051 3938890 3948119 3950325 3944440 3933841 3922306 3915352 3914315 
2000.908 3916321 3915051 3903750 3877339 3835886 3783207 3725822 3671619 
2004.765 3626878 3596340 3583678 3591763 3622067 3673991 3743200 3820409 
2008.623 3893955 3953134 3991287 4008609 4011185 4008744 4010683 4022321 
2012.480 4044092 4071785 4100717 4127275 4149889 4169960 4188594 4205523 
2016.338 4218839 4226233 4226568 4221282 4214155 4209638 4210809 4217802 
2020.195 4228107 4238713 4249521 4261834 4280807 4311660 4356003 4411631 
2024.052 4472454 4529704 4577216 4612544 4636857 4654071 4668405 4680999 
2027.910 4691549 4699923 4706823 4715699 4732079 4760854 4804472 4860593 
2031.767 4924126 4988340 5049680 5106938 5162360 5219366 5278189 5335914 
2035.625 5387742 5428773 5455950 5471452 5480344 5487893 5498162 5511014 
2039.482 5523699 5533330 5538431 5540579 5544639 5555681 5576019 5605085 
2043.340 5637476 5666814 5688803 5701392 5706864 5711463 5721837 5744366 
2047.197 5782677 5838286 5908882 5989669 6072116 6146447 6201700 6229127 
2051.054 6226102 6196691 6152429 6107902 6079307 6077526 6105584 6157806 
2054.912 6222673 6287213 6341072 6380074 6405595 6422274 6434448 6444604 
2058.769 6451599 6453650 6448841 6437710 6423351 6409194 6399610 6395407 
2062.627 6395979 6399274 6403276 6406739 6409127 6411010 6411649 6409866 
2066.484 6403780 6392549 6376981 6359664 6344232 6333204 6327186 6324765 
2070.342 6322513 6317773 6309570 6299215 6289768 6284894 6286003 6292861 
2074.199 6303552 6315856 6328128 6340399 6353545 6368037 6383403 6397189 
2078.056 6406739 6410875 6410337 6408387 6409530 6417230 6433002 6455870 
2081.914 6482876 6510893 6538675 6566528 6595794 6627351 6659347 6688048 
2085.771 6708776 6717592 6713319 6698412 6677954 6656924 6639059 6624491 
2089.629 6610967 6595054 6574870 6550247 6524616 6502417 6487551 6482708 
2093.486 6488358 6502955 6524817 6551895 6582540 6614567 6644913 6670181 
2097.344 6687207 6694778 6693903 6688654 6684448 6685861 6695754 6714093 
2101.201 6738523 6766557 6797015 6829899 6867026 6909443 6956913 7006376 
2105.058 7053756 7094945 7127616 7152238 7171506 7189292 7208528 7230527 
2108.916 7254819 7280729 7307449 7335283 7365410 7398506 7433525 7468378 
2112.773 7499729 7524372 7541263 7551478 7557345 7561593 7566246 7570730 
2116.631 7573967 7574608 7572416 7569213 7568067 7571809 7581756 7597266 
2120.488 7615610 7633616 7649298 7663124 7677659 7696680 7722887 7756718 
2124.345 7796657 7838962 7879180 7914440 7942717 7964349 7980210 7991787 
2128.203 8000494 8008121 8016289 8026921 8041671 8061079 8084742 8111310 
2132.060 8138925 8166070 8192811 8220904 8251903 8287802 8328500 8372376 
2135.918 8417305 8461055 8501634 8539108 8573408 8603183 8626672 8641476 
2139.775 8644856 8637521 8622142 8603791 8587704 8577227 8572293 8569420 
2143.633 8563540 8549921 8526842 8495620 8459265 8421393 8383253 8343395 
2147.490 8298779 8246433 8185618 8118298 8048151 7978456 7910155 7842167 
2151.347 7770345 7690846 7601414 7501987 7394158 7278741 7155405 7023415 
2155.205 6883386 6740845 6609285 6508336 6461452 6486307 6586980 6750403 
2159.062 6947183 7142234 7303304 7412055 7466457 7476974 7460828 7435143 
2162.920 7412864 7398472 7392271 7389069 7384115 7371746 7349100 7314222 
2166.777 7266207 7206305 7136272 7059044 6978227 6896482 6815897 6738557 
2170.635 6665202 6596938 6535581 6482338 6438383 6404116 6378225 6358286 
2174.492 6342853 6330044 6319487 6310612 6301501 6287751 6264321 6226438 
2178.349 6171485 6102526 6027732 5958125 5904583 5873079 5863003 5867403 
2182.207 5875363 5876303 5865488 5843760 5815921 5789628 5771193 5761893 
2186.064 5760583 5763336 5766593 5768642 5769917 5771965 5777237 5786605 
2189.922 5799365 5815249 5833416 5853466 5875295 5898403 5921175 5942102 
2193.779 5959771 5974182 5987351 6002636 6022659 6048563 6078467 6107768 
2197.636 6130552 6142079 6139693 6124201 6098191 6066068 6032201 5999747 
2201.494 5970957 5948148 5933469 5929102 5936190 5954128 5980564 6010632 
2205.351 6039895 6064791 6083911 6097922 6108911 6118387 6126822 6133677 
2209.209 6137911 6139793 6140667 6143860 6152160 6167855 6190272 6216186 
2213.066 6240925 6260320 6271615 6274809 6271615 6264926 6257497 6250707 
2216.924 6244689 6239648 6235311 6231614 6228757 6226337 6223211 6218438 
2220.781 6210405 6199347 6185802 6171921 6159621 6150245 6144196 6139961 
2224.638 6136197 6131560 6125679 6119462 6113380 6108172 6104005 6100174 
2228.496 6096578 6094193 6094226 6098762 6108944 6124369 6142684 6160764 
2232.353 6174745 6182743 6184995 6183214 6180895 6180929 6185634 6195045 
2236.211 6209195 6226942 6247379 6270506 6295988 6323017 6350385 6376678 
2240.068 6400417 6420795 6437912 6452204 6464345 6474804 6483246 6489603 
2243.926 6494614 6499726 6507966 6522059 6543856 6573626 6609520 6647369 
2247.783 6683035 6713386 6735932 6750268 6757032 6757605 6753465 6746297 
2251.640 6738355 6732197 6730716 6736336 6750100 6771100 6796241 6821315 
2255.498 6842016 6855110 6859789 6856153 6846493 6832861 6816806 6799472 
2259.355 6781297 6762787 6744716 6727418 6711468 6696696 6682664 6668936 
2263.213 6655646 6643399 6634113 6629538 6630816 6637680 6649052 6662039 
2267.070 6673916 6682866 6688048 6689730 6689260 6688048 6686870 6686669 
2270.927 6687947 6691043 6696864 6705815 6717727 6732197 6747811 6763023 
2274.785 6777191 6789913 6801659 6813507 6826264 6840266 6855110 6869585 
2278.642 6883252 6895371 6906144 6916075 6925905 6936275 6947351 6959001 
2282.500 6970987 6982974 6994456 7004625 7012235 7016276 7015502 7009845 
2286.357 7000046 6987722 6974859 6963176 6953445 6945466 6938093 6930484 
2290.215 6921899 6913280 6905773 6901262 6900824 6905066 6913045 6923178 
2294.072 6934221 6945062 6954927 6963816 6971795 6978765 6984523 6989136 
2297.929 6992772 6996409 7001090 7007353 7015266 7024089 7032204 7037996 
2301.787 7040757 7040522 7038266 7035538 7033315 7031631 7029914 7026681 
2305.644 7021125 7013212 7003952 6995365 6989708 6988698 6993143 7002975 
2309.502 7017017 7034023 7052511 7071336 7089455 7106228 7120846 7132870 
2313.359 7141931 7147927 7151026 7151430 7149442 7145299 7138866 7130950 
2317.217 7122294 7114008 7107508 7104038 7104881 7110640 7121317 7137047 
2321.074 7156550 7177603 7197108 7210044 7210886 7195019 7159244 7104038 
2324.931 7032878 6952638 6871335 6796476 6733879 6685592 6650936 6627015 
2328.789 6609924 6596837 6586005 6577460 6571843 6569757 6571439 6576418 
2332.646 6584088 6593911 6605786 6619781 6635863 6653324 6671359 6688654 
2336.504 6704570 6718904 6732230 6745422 6759355 6774095 6789307 6804621 
2340.361 6819936 6835991 6853696 6874230 6897559 6922472 6946611 6967553 
2344.219 6984254 6997925 7012269 7032776 7065308 7113503 7178546 7257919 
2348.076 7346909 7438783 7526362 7603403 7664473 7706327 7727946 7730948 
2351.933 7719278 7698097 7672702 7647712 7625422 7606640 7590792 7576901 
2355.791 7564628 7553906 7545579 7539982 7537420 7536914 7537015 7536678 
2359.648 7534992 7532396 7529362 7527170 7526766 7528553 7533104 7540960 
2363.506 7552591 7568775 7590017 7616082 7645757 7676749 7707507 7736244 
2367.363 7762925 7788426 7815144 7844394 7877661 7914811 7955204 7998030 
2371.220 8042210 8087814 8134671 8182816 8231676 8280474 8328465 8374808 
2375.078 8420007 8464806 8510419 8557457 8605886 8654523 8701745 8746167 
2378.935 8786739 8823831 8858830 8893223 8928633 8965976 9005688 9047535 
2382.793 9091011 9135744 9181258 9227150 9272370 9315733 9356155 9392653 
2386.650 9425158 9454483 9481845 9508837 9536609 9565602 9595546 9625696 
2390.508 9655169 9683662 9710870 9737129 9763053 9788842 9814802 9841476 
2394.365 9869065 9898216 9929573 9963000 9998668 10035627 10073267 10110877 
2398.222 10148048 10184715 10221045 10257005 10292662 10327881 10362561 
2401.598 10397005 10431724 10467871 10506364 10548220 10593306 10641317 
2404.973 10691711 10744114 10798154 10854341 10912880 10973567 11035691 
2408.348 11098095 11159556 11219496 11277914 11335693 11393991 11453521 
2411.723 11514353 11575839 11636483 11695297 11751805 11806174 11859359 
2415.099 11911971 11964148 12015172 12064022 12109300 12150493 12187500 
2418.474 12221306 12252694 12282721 12311694 12339646 12366747 12393374 
2421.849 12420581 12450006 12483287 12521856 12566363 12616844 12672652 
2425.224 12732938 12797225 12864627 12934906 13007895 13083491 13162208 
2428.600 13244628 13331745 13424723 13524182 13630296 13741703 13856969 
2431.975 13973430 14088998 14202405 14313205 14422527 14531670 14642795 
2435.350 14757580 14877334 15002335 15132518 15266481 15402648 15538823 
2438.725 15672980 15803706 15930830 16054725 16176797 16298458 16420152 
2442.101 16541706 16661817 16778792 16891490 16999396 17103502 17205462 
2445.476 17306892 17408832 17511138 17612642 17711510 17806294 17896022 
2448.851 17980556 18060372 18135712 18207128 18274580 18337996 18397934 
2452.226 18455458 18512334 18570184 18630742 18694454 18761222 18830490 
2455.602 18901498 18974182 19048988 19127340 19210486 19299778 19395844 
2458.977 19498308 19606342 19718392 19832654 19947538 20061514 20173992 
2462.352 20285216 20396156 20508860 20625554 20748782 20880002 21019992 
2465.727 21168550 21324956 21488660 21659562 21838270 22026184 22224850 
2469.103 22435084 22657324 22890436 23132864 23382562 23637298 23895338 
2472.478 24155388 24416256 24677284 24938046 25198124 25456916 25713790 
2475.853 25967508 26216552 26458730 26691992 26914130 27123156 27317534 
2479.228 27495160 27654072 27792202 27907338 27998082 28064104 28106414 
2482.604 28127730 28131160 28120414 28097966 28065766 28024836 27975290 
2485.979 27917478 27851726 27778780 27699204 27613464 27521672 27423438 
2489.354 27318204 27205588 27085242 26957036 26820686 26675396 26520398 
2492.729 26354014 26175552 25984074 25779746 25563246 25335580 25097746 
2496.104 24850254 24593298 24326888 24051574 23767822 23477192 23181374 
2499.480 22882158 22581160 22279604 21978360 21678162 21380016 21085170 
2502.855 20795078 20511048 20234078 19964468 19702130 19446916 19199160 
2506.230 18959230 18728598 18508738 18301086 18106348 17924612 17754998 
2509.605 17596388 17447598 17307616 17176194 17053290 16939100 16834380 
2512.981 16739670 16655345 16582049 16519748 16468570 16428271 16398404 
2516.356 16378345 16367471 16365821 16373046 16388873 16412685 16443139 
2519.731 16478550 16516959 16556509 16596060 16635478 16675003 16715359 
2523.106 16757509 16801314 16846744 16893076 16939824 16986234 17032028 
2526.482 17076826 17119666 17159752 17195256 17224042 17243968 17253174 
2529.857 17250348 17235350 17208564 17171334 17125456 17072690 17015280 
2533.232 16954812 16892902 16830762 16769182 16708920 16650282 16593238 
2536.607 16537817 16483575 16429855 16376246 16322332 16268048 16213702 
2539.983 16160084 16108157 16058920 16012747 15969878 15930073 15892576 
2543.358 15856972 15822882 15790375 15759176 15729457 15700564 15671536 
2546.733 15641343 15609158 15574230 15536762 15497169 15456103 15414629 
2550.108 15373536 15333443 15295275 15260098 15229005 15203131 15182886 
2553.484 15168167 15157873 15150290 15143566 15136189 15127440 15117113 
2556.859 15105689 15093648 15081229 15068606 15055570 15041746 15027168 
2560.234 15011836 14995784 14978841 14960595 14940225 14916905 14890605 
2563.609 14861356 14830328 14799129 14769407 14742566 14719566 14700749 
2566.985 14686011 14674804 14666510 14660375 14656160 14653418 14652321 
2570.360 14652835 14655783 14661266 14669560 14680562 14693552 14707741 
2573.735 14722171 14736739 14751616 14767898 14786753 14808900 14834476 
2577.110 14862727 14892044 14920952 14948044 14972942 14995784 15017290 
2580.486 15038213 15059412 15081469 15104763 15130185 15158388 15190230 
2583.861 15226397 15266721 15310584 15356441 15403128 15449442 15495280 
2587.236 15540986 15587692 15636327 15687339 15740829 15796009 15852332 
2590.611 15908901 15965341 16021308 16076317 16130233 16182473 16232412 
2593.987 16280293 16325876 16369879 16412891 16455354 16497066 16537646 
2597.362 16576370 16612757 16646942 16679652 16711984 16745489 16781202 
2600.737 16819912 16861694 16906166 16952846 17001290 17050808 17101330 
2604.112 17152548 17204462 17257276 17311238 17367170 17425696 17487646 
2607.488 17553606 17623716 17697810 17775364 17855834 17938460 18022482 
2610.863 18107454 18192960 18278794 18364544 18450584 18537162 18624896 
2614.238 18714346 18805854 18899320 18994050 19089046 19183126 19275288 
2617.613 19364974 19451976 19536638 19619446 19700848 19781084 19860124 
2620.989 19937580 20012866 20085596 20155250 20221722 20285078 20345700 
2624.364 20404212 20461134 20517300 20572572 20627188 20680700 20732446 
2627.739 20781974 20828968 20873432 20915638 20956250 20995858 21034982 
2631.114 21073656 21111988 21149382 21185564 21219972 21252262 21282744 
2634.490 21311452 21339016 21365954 21392860 21419732 21446432 21472540 
2637.865 21497224 21520552 21542590 21564318 21587058 21612444 21641662 
2641.240 21675236 21712750 21752984 21794580 21836458 21877854 21919112 
2644.615 21960900 22004606 22051352 22101934 22156674 22215328 22277512 
2647.990 22342562 22409684 22477826 22546156 22613760 22680014 22744604 
2651.366 22807108 22867664 22926412 22983598 23039286 23093866 23147786 
2654.741 23201854 23257118 23314764 23375324 23439212 23505382 23572824 
2658.116 23639888 23705216 23768242 23829178 23888722 23947854 24007624 
2661.491 24068208 24129640 24191434 24252920 24313784 24373884 24432976 
2664.867 24491132 24548100 24603536 24656944 24708184 24757290 24804752 
2668.242 24851274 24897870 24945418 24994270 25044776 25096940 25150198 
2671.617 25204200 25258628 25313242 25368494 25424772 25483128 25544514 
2674.992 25609742 25679058 25752216 25828164 25905708 25983584 26061262 
2678.368 26138636 26216448 26295468 26376722 26460386 26546426 26634352 
2681.743 26723810 26814376 26906340 27000188 27096494 27195500 27296894 
2685.118 27400146 27504586 27609546 27714780 27820568 27927302 28035474 
2688.493 28145654 28258266 28373382 28491256 28612098 28735982 28862912 
2691.869 28992570 29124500 29258242 29393124 29528792 29665178 29802530 
2695.244 29941130 30081516 30223758 30368216 30514924 30664208 30815782 
2698.619 30969936 31126672 31285532 31446122 31608232 31771366 31935848 
2701.994 32101530 32268882 32437976 32608532 32780010 32951772 33123564 
2705.370 33294388 33464600 33634124 33803072 33971688 34140228 34308764 
2708.745 34477548 34646856 34816916 34987656 35158996 35330764 35502424 
2712.120 35673968 35845764 36018276 36192796 36370236 36551532 36736728 
2715.495 36925284 37115728 37306252 37494984 37679604 37858664 38031252 
2718.871 38196856 38355900 38509676 38659772 38808296 38957488 39109012 
2722.246 39264580 39425356 39592288 39766508 39949012 40140420 40341260 
2725.621 40551216 40768984 40993344 41222776 41456012 41692580 41932380 
2728.996 42175276 42421332 42669324 42917748 43164484 43407696 43646140 
2732.372 43879104 44106360 44328012 44543720 44752192 44952232 45141744 
2735.747 45319604 45484844 45637268 45777336 45905552 46023160 46131404 
2739.122 46231864 46326628 46418428 46510176 46604192 46702952 46807748 
2742.497 46919508 47038720 47165720 47301440 47446856 47602996 47770144 
2745.873 47948196 48136096 48331592 48532104 48734456 48935344 49130976 
2749.248 49317716 49492284 49651468 49792724 49914476 50015812 50096236 
2752.623 50156036 50194976 50212864 50209700 50184932 50138408 50069352 
2755.998 49977296 49861068 49719116 49550104 49352428 49125372 48868700 
2759.374 48583168 48270008 47931324 47568504 47184412 46782024 46364560 
2762.749 45936304 45502324 45067268 44636176 44213580 43803012 43407992 
2766.124 43031548 42676704 42346772 42044760 41772976 41533192 41325784 
2769.499 41149956 41004012 40885792 40793372 40724804 40678332 40652572 
2772.875 40645332 40654352 40676404 40707992 40745728 40785944 40826056 
2776.250 40863548 40896784 40924456 40945464 40958428 40961884 40954532 
2779.625 40935088 40902900 40858236 40802832 40739140 40670328 40600068 
2783.000 40531208 40466284 40406384 40352208 40303704 40260112 40221000 
2786.375 40184980 40150452 40114984 40075192 40027376 39968300 39894960 
2789.751 39806092 39701844 39583468 39453148 39313764 39167752 39017692 
2793.126 38865872 38714976 38567320 38426008 38293832 38173664 38068036 
2796.501 37979324 37909424 37859932 37832636 37828700 37849052 37894240 
2799.876 37964280 38058308 38175076 38312976 38470028 38644096 38833336 
2803.252 39035564 39248732 39471072 39700828 39936044 40175312 40416820 
2806.627 40658648 40898608 41134184 41362776 41581536 41787712 41978328 
2810.002 42150520 42301296 42427764 42527404 42598008 42638436 42648412 
2813.377 42629080 42582184 42510300 42416440 42303744 42175860 42036292 
2816.753 41889068 41738504 41588904 41445332 41312960 41196512 41100524 
2820.128 41029284 40985372 40970440 40984716 41026776 41094588 41184924 
2823.503 41294120 41418252 41552916 41693820 41835580 41973112 42101304 
2826.878 42215696 42313024 42391192 42449940 42489988 42512860 42520388 
2830.254 42514576 42497220 42470548 42436568 42397660 42356308 42314340 
2833.629 42273140 42233592 42195724 42159536 42124960 42092032 42061152 
2837.004 42032348 42005776 41981176 41958328 41937784 41920524 41908480 
2840.379 41905016 41913808 41938988 41984568 42054908 42153364 42283984 
2843.755 42451072 42658756 42911896 43214624 43570160 43979372 44440020 
2847.130 44945432 45483008 46035132 46578924 47087204 47532644 47890256 
2850.505 48139388 48268564 48274824 48164896 47952084 47655720 47298300 
2853.880 46901200 46486128 46071460 45671720 45298456 44958664 44655160 
2857.256 44387500 44152392 43944688 43758960 43589724 43432780 43284428 
2860.631 43142380 43004256 42868008 42731140 42591432 42446396 42294360 
2864.006 42134600 41967528 41794936 41620372 41448504 41284792 41135380 
2867.381 41006452 40902832 40829040 40787908 40780412 40806108 40862676 
2870.757 40946012 41050008 41167040 41289016 41406620 41512300 41600096 
2874.132 41666724 41711804 41737192 41746860 41744592 41734200 41718184 
2877.507 41697872 41673652 41645572 41613736 41578764 41542088 41505192 
2880.882 41470376 41439464 41414132 41395288 41382892 41376188 41373236 
2884.258 41371924 41369736 41364088 41353704 41337884 41317040 41292516 
2887.633 41266464 41241648 41220812 41206968 41203432 41213448 41241212 
2891.008 41291568 41370140 41484264 41642656 41854952 42133104 42489328 
2894.383 42935740 43483572 44140140 44906744 45775128 46726672 47728904 
2897.759 48735084 49691144 50536436 51210880 51667324 51874200 51821672 
2901.134 51522360 51009500 50330712 49536624 48680856 47809832 46959528 
2904.509 46158524 45425872 44773312 44207964 43732464 43346444 43046988 
2907.884 42829644 42689612 42621696 42622388 42689136 42820720 43015488 
2911.260 43271392 43584668 43949380 44356820 44795536 45252636 45712760 
2914.635 46159336 46576784 46950372 47268412 47523920 47714628 47842788 
2918.010 47914452 47938024 47921704 47872424 47794592 47689816 47557340 
2921.385 47395112 47201364 46975920 46721620 46444680 46155132 45865888 
2924.760 45590380 45342044 45132332 44968512 44853944 44787896 44765888 
2928.136 44780476 44822312 44881908 44949112 45014596 45070872 45110900 
2931.511 45130200 45125384 45094580 45036576 44950908 44837448 44696692 
2934.886 44529808 44338988 44127228 43898680 43658012 43409856 43159360 
2938.261 42910908 42669544 42440148 42228076 42038080 41874768 41741240 
2941.637 41639008 41567280 41523128 41501616 41495344 41495344 41491192 
2945.012 41471212 41423792 41339232 41209804 41032640 40809748 40548156 
2948.387 40258044 39952900 39646044 39348916 39071016 38818732 38594948 
2951.762 38400960 38236476 38100304 37990896 37906680 37846084 37807260 
2955.138 37788136 37786728 37800504 37826748 37863044 37906680 37956072 
2958.513 38010316 38069556 38134448 38206624 38287172 38376928 38475676 
2961.888 38582816 38697044 38817100 38941648 39069820 39200604 39333352 
2965.263 39467156 39600928 39734412 39866812 39998420 40129736 40261680 
2968.639 40395584 40533136 40676404 40828348 40991852 41170352 41366712 
2972.014 41582596 41817956 42070568 42336000 42607624 42877148 43135976 
2975.389 43374228 43582872 43754048 43881268 43961184 43993596 43982160 
2978.764 43933616 43857660 43765260 43667240 43573384 43491488 43425824 
2982.140 43378444 43348200 43331908 43323964 43317372 43304780 43278424 
2985.515 43231020 43156868 43051780 42913468 42741924 42539500 42309880 
2988.890 42058556 41791652 41515288 41235420 40956752 40682264 40414096 
2992.265 40153104 39899428 39653160 39414032 39181748 38955240 38732580 
2995.641 38511196 38287568 38058128 37819840 37570704 37310368 37039688 
2999.016 36761176 36477220 36191032 35905288 35622068 35343168 35069904 
3002.391 34803344 34544128 34292556 34048944 33813388 33585904 33366692 
3005.766 33156142 32954738 32763038 32581280 32409486 32247112 32093040 
3009.142 31945902 31804166 31666252 31531088 31397716 31266018 31136428 
3012.517 31009436 30886430 30768050 30654856 30546702 30442914 30342418 
3015.892 30244184 30147678 30052788 29960016 29870102 29783686 29701152 
3019.267 29622608 29547412 29475208 29405994 29340124 29278552 29222480 
3022.643 29173080 29131374 29098318 29074686 29061294 29059274 29069974 
3026.018 29094524 29133748 29187148 29253210 29328566 29408334 29486876 
3029.393 29557876 29614946 29653686 29670678 29665142 29638536 29593912 
3032.768 29535248 29466592 29391102 29310878 29227054 29139878 29049992 
3036.144 28958106 28865852 28774784 28686884 28603428 28525152 28452056 
3039.519 28384066 28320508 28261484 28206676 28155800 28108818 28065022 
3042.894 28024058 27985608 27949634 27916982 27888470 27864834 27846534 
3046.269 27833568 27825090 27820250 27818272 27818800 27821838 27827598 
3049.645 27836076 27846922 27859358 27872182 27884406 27895572 27906066 
3053.020 27916772 27929422 27945252 27965076 27989142 28016884 28047136 
3056.395 28078842 28111080 28143638 28176942 28212156 28250698 28293806 
3059.770 28342436 28396588 28455806 28518676 28584034 28650604 28717964 
3063.146 28786324 28856610 28929808 29006952 29088574 29174144 29262780 
3066.521 29353098 29443152 29531312 29615976 29695512 29768604 29834220 
3069.896 29891754 29941236 29983306 30019164 30050304 30078356 30104598 
3073.271 30129706 30154426 30178718 30203086 30227632 30252924 30279176 
3076.646 30306854 30336058 30366936 30399380 30433106 30467900 30503266 
3080.022 30538812 30573684 30607496 30640314 30672458 30704922 30738602 
3083.397 30774628 30813470 30855090 30899132 30944744 30991892 31040610 
3086.772 31091648 31145718 31203496 31264912 31329476 31396110 31463790 
3090.147 31531908 31600534 31670030 31740818 31813544 31888060 31963878 
3093.523 32040388 32117084 32193832 32271094 32349408 32429624 32512140 
3096.898 32597140 32684226 32773006 32863058 32954130 33046044 33138834 
3100.273 33232394 33326656 33421476 33516600 33611712 33706416 33799920 
3103.648 33891832 33981504 34069016 34154676 34239564 34325152 34412692 
3107.024 34503268 34597160 34693724 34791500 34888832 34984384 35077196 
3110.399 35167440 35255728 35343416 35431632 35521552 35613684 35708360 
3113.774 35805172 35903452 36002720 36101908 36200288 36297104 36391892 
3117.149 36484316 36574528 36662884 36749924 36836696 36923840 37012232 
3120.525 37102552 37195096 37289752 37386380 37484364 37583096 37681956 
3123.900 37780404 37877720 37973864 38068724 38162232 38254676 38346704 
3127.275 38439112 38532920 38629064 38727944 38829420 38932336 39035128 
3130.650 39136312 39234624 39329976 39423288 39516436 39611160 39708924 
3134.026 39810052 39913668 40018220 40121924 40223876 40323808 40422420 
3137.401 40520984 40620772 40722072 40824852 40928280 41031364 41133232 
3140.776 41234108 41334020 41434212 41535596 41639300 41745544 41854588 
3144.151 41965920 42078780 42192216 42305280 42417024 42527108 42635292 
3147.527 42741960 42847856 42953700 43060048 43167228 43275200 43383860 
3150.902 43493096 43602508 43712312 43822656 43933212 44043796 44153932 
3154.277 44262812 44370180 44475696 44579336 44681708 44783340 44884772 
3157.652 44986704 45089800 45194652 45301844 45411560 45523592 45637120 
3161.028 45750900 45863236 45972952 46079748 46184096 46287408 46391696 
3164.403 46498372 46607988 46719956 46832140 46942432 47048656 47149616 
3167.778 47245360 47336988 47426712 47516268 47607508 47701056 47797032 
3171.153 47895140 47994824 48095304 48196624 48298412 48400852 48503504 
3174.529 48605736 48706728 48804964 48899480 48989676 49075996 49159320 
3177.904 49241776 49325328 49411564 49501272 49594264 49689172 49784476 
3181.279 49878532 49970344 50059572 50146216 50230980 50314492 50397468 
3184.654 50480156 50563348 50647448 50733200 50820836 50910388 51001448 
3188.030 51093124 51184448 51274784 51363872 51451892 51539708 51627728 
3191.405 51716068 51804536 51892572 51979584 52065116 52149580 52233056 
3194.780 52315684 52397508 52478000 52556748 52633120 52707260 52779652 
3198.155 52851308 52923128 52995744 53069648 53144008 53218760 53293528 
3201.531 53368492 53443800 53519992 53597168 53674920 53752916 53830096 
3204.906 53906316 53981196 54054704 54127248 54198752 54269256 54338828 
3208.281 54407476 54475460 54543188 54610776 54678192 54744752 54809664 
3211.656 54871920 54931512 54989200 55046400 55105492 55168240 55235516 
3215.031 55307128 55381764 55457016 55531148 55602544 55670748 55735692 
3218.407 55798456 55859988 55921376 55983864 56048664 56116788 56188964 
3221.782 56265368 56345188 56426904 56508372 56587708 56663392 56734788 
3225.157 56802528 56867792 56931816 56996152 57061480 57128408 57196776 
3228.532 57266252 57336612 57407476 57478692 57550032 57621872 57694828 
3231.908 57769344 57846144 57925308 58006336 58088180 58169392 58248612 
3235.283 58325044 58399024 58471196 58542968 58615276 58688664 58763196 
3238.658 58838880 58915720 58994620 59076764 59163176 59254388 59349000 
3242.033 59444812 59538556 59627376 59709448 59785184 59856524 59927040 
3245.409 60000000 60077576 60160724 60248680 60339704 60432076 60524396 
3248.784 60616200 60707908 60800168 60893444 60988264 61084092 61180248 
3252.159 61276008 61370680 61463924 61555696 61646800 61737812 61829376 
3255.534 61921956 62015124 62108160 62199996 62289476 62375992 62459732 
3258.910 62541576 62623052 62705232 62788844 62873968 62959568 63044032 
3262.285 63126908 63207304 63285844 63363320 63440964 63519500 63599168 
3265.660 63679420 63759000 63836908 63911944 63983472 64051428 64116368 
3269.035 64178860 64240516 64302824 64366764 64433708 64503624 64576088 
3272.411 64649956 64723484 64795560 64865492 64933248 64999624 65066092 
3275.786 65133804 65203904 65277644 65355784 65439180 65528096 65622544 
3279.161 65721520 65823412 65925716 66026152 66122988 66216096 66306604 
3282.536 66397244 66490688 66589436 66695088 66807836 66926724 67050552 
3285.912 67177816 67307560 67438888 67571456 67704760 67839080 67974440 
3289.287 68111744 68252080 68396688 68546856 68702936 68864928 69032384 
3292.662 69205072 69382848 69566368 69756280 69953224 70157864 70369568 
3296.037 70587232 70809952 71036576 71266712 71500288 71737312 71977760 
3299.413 72221144 72467456 72716208 72968208 73224624 73486808 73756568 
3302.788 74034352 74320576 74614816 74916776 75226112 75543320 75868344 
3306.163 76200944 76540256 76884728 77232160 77581584 77932512 78286304 
3309.538 78644392 79008624 79379720 79757632 80141280 80529432 80921664 
3312.914 81318424 81720768 82129704 82545392 82966528 83391536 83818280 
3316.289 84245328 84672656 85101432 85532520 85966832 86403760 86841928 
3319.664 87279488 87714976 88147496 88577240 89004472 89428704 89848880 
3323.039 90263216 90670064 91068920 91459920 91844768 92225040 92601536 
3326.415 92973400 93338520 93694032 94037496 94367520 94683656 94985960 
3329.790 95274784 95549136 95808168 96050168 96274184 96479528 96666136 
3333.165 96833312 96979768 97102896 97199944 97268592 97308544 97321280 
3336.540 97310208 97279200 97230536 97164680 97079776 96972144 96838368 
3339.916 96675648 96482832 96260032 96008176 95728080 95420256 95085064 
3343.291 94722880 94334488 93920992 93483800 93023432 92540360 92034104 
3346.666 91504632 90952480 90379272 89787432 89180048 88559408 87927640 
3350.041 87285568 86633848 85973296 85304912 84630304 83951280 83269416 
3353.417 82586424 81903744 81223096 80546656 79876288 79214832 78563512 
3356.792 77923312 77293760 76673768 76062560 75459744 74866264 74283504 
3360.167 73713656 73158032 72617704 72092584 71582176 71085632 70602512 
3363.542 70132200 69674968 69230560 68799120 68380632 67974912 67582216 
3366.917 67202496 66835472 66480376 66135912 65800556 65473080 65152472 
3370.293 64838724 64531840 64231448 63936284 63643820 63350512 63052884 
3373.668 62748304 62436284 62117448 61793888 61468048 61141036 60812940 
3377.043 60482232 60147288 59806140 59457996 59102428 58739676 58369652 
3380.418 57991644 57604624 57207664 56799964 56381972 55955068 55520452 
3383.794 55079612 54633396 54182012 53725392 53263748 52797424 52327720 
3387.169 51856576 51385464 50916312 50450420 49988448 49530868 49077552 
3390.544 48628524 48183852 47743732 47308612 46879460 46456960 46041320 
3393.919 45632116 45227928 44825916 44423832 44019668 43612876 43205512 
3397.295 42800720 42402848 42015156 41639116 41273492 40915060 40559432 
3400.670 40202500 39842044 39478040 39112312 38747540 38386516 38030784 
3404.045 37680904 37336364 36996248 36659820 36326752 35996892 35670156 
3407.420 35346508 35025576 34707040 34390960 34077796 33768188 33462666 
3410.796 33161580 32864596 32570888 32279554 31990200 31702642 31417660 
3414.171 31136462 30860462 30590360 30326820 30069656 29818038 29571210 
3417.546 29327858 29087226 28848534 28611638 28376530 28144346 27915958 
3420.921 27692814 27476030 27265738 27061934 26863370 26668808 26476444 
3424.297 26285120 26093808 25902298 25710380 25518616 25327360 25137770 
3427.672 24950610 24767180 24588352 24414504 24245420 24079870 23916482 
3431.047 23753824 23590910 23427216 23263094 23099560 22936928 22776098 
3434.422 22617286 22460520 22305972 22154166 22005896 21861894 21722572 
3437.798 21587682 21456248 21326488 21196522 21064614 20929652 20790976 
3441.173 20649252 20505352 20360700 20217346 20076158 19937858 19802238 
3444.548 19668292 19534352 19398996 19261570 19122976 18984980 18850698 
3447.923 18722474 18602314 18489412 18381516 18275650 18168740 18058956 
3451.299 17946506 17833150 17721312 17612848 17508758 17407900 17308444 
3454.674 17207874 17104398 16998018 16889354 16780236 16672112 16565906 
3458.049 16461652 16358836 16256938 16155476 16054999 15955819 15858380 
3461.424 15763162 15669921 15578111 15487520 15397772 15308524 15219637 
3464.800 15130940 15041608 14951610 14860294 14768036 14675592 14583922 
3468.175 14494121 14406497 14321218 14237429 14154478 14071439 13988418 
3471.550 13905514 13823275 13741942 13661957 13583457 13506373 13430840 
3474.925 13357132 13285520 13216276 13148922 13083218 13018411 12954467 
3478.301 12891181 12829269 12769039 12711034 12655015 12600129 12545729 
3481.676 12491334 12437117 12384407 12335044 12290185 12250854 12216159 
3485.051 12184501 12153458 12120884 12085144 12046307 12005259 11963126 
3488.426 11922087 11882821 11846828 11814754 11787279 11764469 11746733 
3491.802 11733592 11723754 11715414 11707075 11696999 11685120 11671982 
3495.177 11659320 11649177 11643766 11644787 11653193 11669088 11691859 
3498.552 11720350 11752826 11787415 11822007 11854729 11884490 11910916 
3501.927 11934960 11959039 11985674 12018204 12059048 12110118 12171824 
3505.302 12244173 12325943 12415705 12511387 12611046 12712671 12814561 
3508.678 12915961 13017011 13118664 13222834 13331130 13444682 13563698 
3512.053 13687569 13814690 13943627 14072808 14201104 14327656 14451300 
3515.428 14570662 14684778 14792306 14892627 14986181 15073957 15157118 
3518.803 15237070 15313741 15386307 15452601 15509668 15554585 15584052 
3522.179 15596073 15589719 15564922 15522580 15464343 15391490 15305092 
3525.554 15205568 15092481 14965534 14824259 14669492 14502549 14326047 
3528.929 14142565 13954097 13761949 13567014 13369262 13169619 12969146 
3532.304 12769517 12571752 12375953 12180889 11984278 11783636 11577132 
3535.680 11365283 11150581 10936767 10727846 10526561 10334023 10149404 
3539.055 9971375 9798602 9630810 9468976 9313906 9166267 9025140 8888116 
3542.912 8752353 8614335 8471969 8324548 8173194 8020407 7869361 7723393 
3546.770 7585330 7457423 7340338 7233863 7135935 7042947 6950954 6855447 
3550.627 6753566 6644341 6529628 6413364 6300089 6194036 6097217 6009725 
3554.485 5929573 5854372 5781804 5710624 5640195 5570649 5501920 5433738 
3558.342 5365534 5296502 5226911 5156995 5088365 5022294 4960086 4902445 
3562.199 4849334 4799983 4752848 4705483 4654674 4596169 4525820 4440183 
3566.057 4338633 4223691 4102790 3985502 3881250 3796577 3733842 3689964 
3569.914 3659088 3634663 3610172 3581774 3547432 3507213 3462222 3414430 
3573.772 3365074 3315390 3266112 3217808 3170945 3125755 3082071 3039593 
3577.629 2998087 2956818 2915887 2875293 2835370 2796351 2758569 2721991 
3581.487 2687150 2654711 2625542 2600875 2581042 2564977 2549845 2531381 
3585.344 2504153 2463898 2408586 2339989 2263709 2187775 2120811 2068506 
3589.201 2033084 2012379 2002293 1997533 1993039 1985549 1972568 1953263 
3593.059 1927902 1897218 1863108 1827204 1791669 1758699 1729390 1704641 
3596.916 1683918 1666355 1649858 1632364 1612276 1588897 1562659 1535757 
3600.774 1510387 1489607 1475543 1469160 1470257 1477970 1490671 1506497 
3604.631 1523488 1539083 1550555 1554445 1547329 1526314 1490904 1443661 
3608.489 1389941 1337525 1293023 1260523 1240220 1228457 1219884 1209484 
3612.346 1194101 1174398 1154199 1138053 1130346 1132206 1141209 1151873 
3616.203 1157621 1151873 1130512 1092310 1039332 977393 913969 856763 812377 
3620.543 784626 773838 778054 793755 816593 842885 870707 899028 928114 
3624.883 958132 987455 1011267 1022260 1010370 966268 885581 774104 649680 
3629.222 536572 457391 422133 426710 457324 497726 534117 557174 564672 
3633.562 559596 548913 539525 536307 540454 549876 561454 571109 577910 
3637.901 581825 584579 587698 591912 596922 601434 604520 606113 607440 
3642.241 610990 619883 635644 658839 687777 719106 747550 767897 775000 
3646.581 764710 734871 685553 619219 540553 456595 375968 307957 261605 
3650.920 243205 255074 294528 354281 423991 491689 545629 576517 579171 
3655.260 554255 509900 459812 417921 394805 393645 410724 438253 467275 
3659.599 491058 505621 510332 506948 498787 489300 480974 476463 477060 
3663.939 484291 498887 521246 550240 583385 616564 643807 657910 651871 
3668.279 620115 561189 480676 391622 313528 264655 255836 286770 346322 
3672.618 415699 473213 499816 480543 413013 309118 196429 105843 58518 57789 
3677.440 92122 143891 196297 239194 268932 287566 299900 310974 323740 
3681.780 338563 355143 372818 393114 417988 449098 485353 522208 551866 
3686.119 565601 555084 516966 453941 376267 298176 232398 186783 162022 
3690.459 153603 155592 164143 177469 195369 217977 243636 269728 292672 
3694.798 310245 322116 330206 338761 351959 372055 398553 427639 453576 
3699.138 469995 471919 457590 428800 390395 349605 314589 291113 282857 
3703.478 290251 311505 343172 381474 422531 463162 500711 533719 561023 
3707.817 581527 594367 597751 589622 567326 529440 477160 414804 350799 
3712.157 295722 258887 246620 259881 294694 343006 396563 446777 487642 
3716.496 516070 532492 540089 543174 546193 551501 559032 566630 570943 
3720.836 569516 561222 547221 530501 514113 500546 490130 480875 470692 
3725.176 457623 442166 427473 418618 421172 438617 470692 512853 558236 
3729.515 597917 624727 634449 626751 606975 582854 562449 549876 543506 
3733.855 536904 521975 493082 450392 401206 356635 328018 320822 334617 
3738.194 364229 403660 448535 497129 549477 605283 660598 706893 730789 
3742.534 716152 651738 537402 393048 255008 164375 144687 192982 286704 
3746.874 396231 495371 564506 592741 579436 532425 464422 389764 320126 
3751.213 262434 221524 201866 207203 239326 296385 371160 453643 532293 
3755.553 597552 642812 666140 669160 656516 633520 604155 572071 540586 
3759.892 514047 497958 497295 513815 544932 583750 620546 645433 652435 
3764.232 640721 615834 587598 566563 559663 567094 583219 599078 606312 
3768.572 599775 579470 550539 521279 499915 491888 498323 517132 544202 
3772.911 574957 605748 634317 659735 682368 702479 720367 734871 743833 
3777.251 744231 733411 710776 678651 642812 611455 592277 589589 602861 
3781.590 626818 653828 675930 687677 687445 677489 663020 649448 641219 
3785.930 639493 643674 651638 661328 671947 683164 695244 707490 718973 
3790.270 728300 734473 737560 739086 741111 744795 749608 753060 751400 
3794.609 741609 723388 699625 677556 665974 671084 694282 730258 768594 
3798.949 795149 796510 762918 693518 598713 498821 419878 382269 392351 
3803.288 442697 516236 592741 652634 682102 675166 636109 579204 524065 
3807.628 489864 486514 512985 560492 617892 675365 727238 772643 813041 
3811.968 850621 885282 913239 927716 921008 888004 829805 756711 686715 
3816.307 640024 629837 657645 712834 778352 833457 860713 848496 794485 
3820.647 708984 613114 533852 490130 489433 525558 584314 649150 705964 
3824.986 746753 768992 776394 776494 777523 785489 801456 822203 842122 
3829.326 855667 859452 853343 840462 826386 816626 815265 824062 841856 
3833.666 865428 890295 911744 924860 925126 909653 878243 833756 782867 
3838.005 735137 699160 680642 680376 694348 715821 737195 752064 757209 
3842.345 751998 738622 721363 705764 696538 697401 710378 735004 769556 
3846.684 810983 856331 902946 949432 995193 1039763 1081581 1116095 1134964 
3851.024 1126758 1078426 980216 833092 653497 475899 338264 265816 262600 
3855.364 313826 397027 491191 582057 661826 727735 780809 823266 857061 
3859.703 884186 905303 921208 932962 940433 943057 938773 925126 901053 
3864.043 868681 834785 808858 800626 814601 848430 891889 929509 945912 
3868.382 929907 879770 805506 727968 670885 648619 663120 703076 751799 
3872.722 792327 814502 816759 805904 794186 793356 810817 846637 894778 
3877.062 945182 987522 1013592 1017876 1000540 966268 924926 888336 867553 
3881.401 869246 893549 933626 977625 1012762 1026578 1011566 968327 907428 
3885.741 846139 803082 791331 812610 859087 915762 967098 1000208 1006950 
3890.080 986293 944684 894545 848762 819050 811182 825457 857526 901518 
3894.420 951458 1002167 1049794 1090948 1122971 1143967 1152338 1148485 
3898.277 1134000 1111909 1086564 1062050 1040527 1022725 1006883 989448 
3902.135 967098 938640 904240 868217 836146 814103 805771 812709 832328 
3906.474 860381 892321 923465 951093 974105 992204 1005887 1016249 1023954 
3910.814 1030132 1036342 1044214 1055839 1072214 1093141 1116460 1138186 
3914.671 1153933 1159448 1152837 1134897 1108620 1079688 1053248 1033287 
3918.529 1021397 1017411 1020035 1027773 1039099 1052617 1066734 1079555 
3922.386 1088424 1091447 1087859 1079322 1068826 1061286 1060722 1069490 
3926.244 1087760 1112806 1140445 1166691 1188452 1204135 1213206 1215897 
3930.101 1212375 1202640 1186924 1165628 1140844 1116061 1094868 1080585 
3933.958 1074805 1076831 1084239 1093938 1102741 1108720 1112308 1114467 
3937.816 1117590 1123436 1132605 1144299 1156093 1165295 1169315 1166591 
3941.673 1157189 1143003 1127456 1114201 1107026 1108022 1117257 1132838 
3945.531 1151674 1169515 1182671 1188353 1185961 1176525 1162538 1147056 
3949.388 1133269 1123237 1117955 1117291 1120945 1127722 1136658 1146956 
3953.246 1157322 1166923 1175129 1181807 1187157 1192207 1197722 1204367 
3957.103 1212076 1219718 1226164 1230019 1230351 1227294 1221446 1214501 
3960.960 1207590 1202340 1199118 1198154 1199217 1202440 1207823 1215399 
3964.818 1225367 1237262 1250554 1264344 1277770 1290066 1301199 1311003 
3968.675 1319910 1328019 1335763 1343141 1349756 1355639 1360458 1364048 
3972.533 1366242 1367139 1366873 1365710 1364181 1363084 1363051 1364779 
3976.390 1368402 1374152 1381332 1389642 1398418 1406794 1414573 1420823 
3980.248 1425078 1426607 1425676 1422086 1416900 1411282 1406263 1403005 
3984.105 1402041 1403171 1406196 1410285 1415271 1420656 1426640 1432790 
3987.962 1438774 1443827 1447185 1448116 1446985 1444126 1440436 1437112 
3991.820 1434751 1433322 1432059 1430064 1426208 1420091 1411914 1402706 
3995.677 1393498 1385886 1380534 1377709 1377543 1378906 1381166 1383360 
3999.535 1384490 1384556 1383526 
##END=
