
##TITLE=mdmaHCL00398_7
##JCAMP-DX=5.01  $$ Nicolet v. 1
##DATATYPE=INFRARED SPECTRUM
##ORIGIN=UniL
##OWNER=Nicolet
##LONGDATE=2011/08/24
##TIME=09:49:35
##SPECTROMETER/DATA SYSTEM=Nicolet iS5
##DATA PROCESSING=
Ratio against background
%Transmittance->Absorbance
Truncated
ElementMultiply or ElementDivide
##COMMENTS=
Number of sample scans: 32
Collection length: 51.17 sec
Sample gain: 2.0
Background collected on: Mer Aout 24 09:48:09 2011 (GMT+02:00);
Number of background scans: 32
Background gain: 2.0
Sample spacing:  1.000
Number of scan points: 12415
Resolution points: 8192
Number of FFT points: 65536
Apodization: N-B fort;
Phase correction: Mertz;
Laser frequency: 15798.0 cm-1
Number of rejected sample scans: 0
Number of rejected background scans: 0
Bench serial number: ASB1000141;
##RESOLUTION=4.000
##XUNITS=1/CM
##YUNITS=ABSORBANCE
##FIRSTX=649.893372
##LASTX=4000.122314
##FIRSTY=0.097284
##MAXX=4000.122314
##MINX=649.893372
##MAXY=0.245772
##MINY=0.002153
##XFACTOR=1.000000
##YFACTOR=1.000000E-009
##NPOINTS=6950
##DELTAX=0.482117
##ZPD=6100
##XYDATA=(X++(Y..Y))
649.893 97283760 96534640 95819208 95159840 94562112 94023384 93542272 
653.268 93127096 92793792 92558480 92425936 92383304 92401016 92446968 
656.643 92497064 92545408 92605272 92697096 92837488 93026232 93247784 
660.018 93477216 93696088 93898656 94095552 94305184 94543296 94811824 
663.393 95098176 95378032 95625656 95821104 95949648 96001152 95967416 
666.767 95847256 95653656 95427232 95230304 95116904 95110712 95194576 
670.142 95325168 95447576 95511232 95484152 95354792 95136824 94859016 
673.517 94554456 94245032 93934064 93612104 93267048 92895096 92505344 
676.892 92114624 91736424 91371464 91005632 90614344 90175240 89681800 
680.267 89145096 88591704 88049280 87535584 87052208 86586280 86118264 
683.642 85633440 85128280 84609328 84087816 83572680 83066136 82565424 
687.016 82067664 81575376 81098392 80650816 80245584 79887360 79571824 
690.391 79287648 79023808 78775824 78547984 78351224 78197672 78094536 
693.766 78041632 78032712 78060192 78121264 78219096 78362216 78558312 
697.141 78811176 79117264 79468560 79856736 80278944 80739264 81246064 
700.516 81806408 82418832 83070784 83741608 84408064 85051416 85663712 
703.890 86246120 86804296 87340664 87851168 88324592 88749016 89117792 
707.265 89433960 89709008 89958464 90194824 90422888 90642960 90854600 
710.640 91063936 91287728 91547952 91864048 92242328 92667488 93103000 
714.015 93497232 93800848 93977552 94013712 93919592 93724208 93467560 
717.390 93189880 92934168 92744768 92666624 92749728 93041048 93571816 
720.765 94347088 95332016 96450648 97582952 98590216 99339016 99717736 
724.139 99670888 99206384 98399416 97370448 96263800 95219040 94333464 
727.514 93657896 93194392 92910280 92756248 92685656 92668392 92689272 
730.889 92744688 92833632 92951200 93086944 93229752 93371792 93513384 
734.264 93662088 93827952 94016592 94226064 94445632 94661816 94864584 
737.639 95051568 95228856 95407416 95596744 95800240 96014000 96229728 
741.013 96440304 96642576 96839072 97034576 97232480 97431856 97628208 
744.388 97815888 97993184 98164824 98340776 98531344 98742376 98970776 
747.763 99207088 99438656 99655632 99856280 100045848 100233704 100426688 
751.138 100625776 100824952 101015696 101190592 101348808 101495120 
754.031 101638336 101785704 101939192 102095928 102250200 102397784 
756.923 102538984 102678352 102821792 102973344 103131792 103292280 
759.816 103448872 103599048 103746448 103899296 104066760 104255264 
762.709 104465264 104692776 104933184 105188176 105468608 105798048 
765.601 106209704 106737336 107410792 108243240 109222560 110301976 
768.494 111398776 112402416 113177112 113597712 113573912 113073888 
771.387 112142816 110897016 109506552 108139992 106937776 105980800 
774.279 105277840 104781248 104410144 104085536 103742032 103339824 
777.172 102858280 102280024 101579672 100722824 99668048 98381088 96845736 
780.547 95066832 93069496 90891032 88577480 86176128 83736064 81311144 
783.922 78952472 76708400 74618712 72707280 70982768 69441128 68070280 
787.297 66856220 65786748 64854108 64052388 63376352 62819936 62375992 
790.671 62038208 61803664 61673380 61652416 61748008 61967656 62317012 
794.046 62799072 63415192 64165948 65051772 66073836 67233288 68533160 
797.421 69979384 71583504 73367136 75364864 77619336 80179864 83086192 
800.796 86351248 89939888 93748216 97603192 101244672 104363288 106649224 
804.171 107817344 107692208 106242872 103603632 100045392 95923696 91615664 
807.546 87409504 83477984 79856144 76467936 73176864 69849120 66412188 
810.920 62870368 59305360 55835644 52591640 49675060 47138540 44992880 
814.295 43211732 41751160 40559072 39588512 38799928 38158036 37634076 
817.670 37203976 36848344 36554852 36316128 36128588 35989080 35893988 
821.045 35837632 35814928 35822664 35861200 35933612 36044444 36196832 
824.420 36391208 36625392 36896136 37201412 37540536 37914672 38324736 
827.794 38770764 39251596 39767420 40322900 40929988 41610744 42398500 
831.169 43332968 44459732 45825128 47464596 49395560 51599596 54012564 
834.544 56505960 58885404 60922416 62357440 62964320 62604764 61250940 
837.919 59008020 56082028 52755816 49314188 45998956 42996612 40407876 
841.294 38264336 36546088 35203404 34174892 33397752 32819998 32396134 
844.669 32088756 31870232 31718824 31620170 31565830 31550188 31568464 
848.043 31615504 31685888 31775430 31882570 32008960 32157614 32331344 
851.418 32530140 32750602 32987374 33235330 33492442 33761096 34047692 
854.793 34359472 34703592 35084988 35506704 35972484 36488356 37063112 
858.168 37708916 38439296 39268024 40210748 41286320 42516804 43930352 
861.543 45553616 47402320 49468888 51710280 54042884 56337264 58442996 
864.917 60204908 61484192 62194488 62310436 61877936 61002140 59839524 
868.292 58574208 57378432 56409700 55787264 55581380 55824036 56509204 
871.667 57603220 59046320 60757828 62641004 64571364 66409944 68013000 
875.042 69234376 69959648 70119000 69697952 68740936 67341600 65630368 
878.417 63741424 61804928 59928368 58178976 56588124 55150488 53835460 
881.792 52597628 51393408 50195680 48998576 47821372 46699664 45679412 
885.166 44802220 44096276 43575472 43237424 43070036 43055840 43179120 
888.541 43427544 43791392 44264024 44839544 45512772 46280844 47144300 
891.916 48108592 49182996 50380088 51713044 53193220 54830456 56630360 
895.291 58591576 60699680 62919200 65188660 67409864 69457760 71194096 
898.666 72476808 73197408 73294680 72765768 71666416 70100192 68207224 
902.040 66130972 64014264 61983404 60130012 58519384 57187364 56144164 
905.415 55384248 54891996 54649668 54640088 54849852 55270100 55894728 
908.790 56720328 57745500 58970788 60398376 62031060 63868076 65901964 
912.165 68112136 70460256 72895192 75353592 77769472 80090520 82282576 
915.540 84338776 86278528 88145024 89996296 91888776 93869328 95955520 
918.914 98123296 100292512 102328240 104057456 105275688 105800848 105511736 
922.289 104379760 102495024 100064832 97407024 94879184 92854840 91671312 
925.664 91551880 92591528 94716336 97700192 101161768 104620880 107605256 
929.039 109675680 110532360 110058496 108305784 105463288 101780424 97528408 
932.414 92934448 88167104 83354032 78585352 73938216 69494232 65333328 
935.789 61535004 58171668 55293844 52933644 51104048 49801384 49009776 
939.163 48699092 48824952 49317980 50081400 51000180 51935588 52748524 
942.538 53321620 53562532 53426152 52915304 52078524 50997612 49770988 
945.913 48505060 47289028 46190804 45253852 44494564 43910192 43484492 
949.288 43196688 43024376 42946640 42945728 43004660 43106588 43237132 
952.663 43383604 43537744 43696700 43862024 44037856 44228364 44436572 
956.037 44663052 44907256 45168804 45448680 45748804 46071492 46417984 
959.412 46786712 47174664 47577928 47993488 48419932 48857540 49307176 
962.787 49768720 50240988 50721140 51206928 51697816 52195800 52704788 
966.162 53228652 53770500 54330680 54908312 55501888 56111512 56739548 
969.537 57390348 58068448 58777156 59518148 60291924 61099040 61942624 
972.912 62827632 63760460 64747208 65790756 66891240 68046216 69253568 
976.286 70513296 71828624 73205520 74650744 76169632 77765672 79441344 
979.661 81200320 83049048 84998224 87059864 89245512 91562848 94014040 
983.036 96594776 99293168 102090232 104953400 107830000 110646824 113300712 
986.411 115665056 117611608 119014192 119777424 119853440 119245744 
989.304 118013000 116256280 114118976 111761384 109344568 107027424 
992.196 104938080 103170536 101784656 100801640 100214880 99998248 100118944 
995.571 100543200 101241408 102191176 103372440 104766232 106354816 
998.464 108118448 110037696 112092760 114258360 116499328 118767856 
1001.356 120994448 123095896 124984464 126572848 127795024 128613832 
1004.249 129025760 129061744 128784328 128285896 127671960 127060072 
1007.142 126570184 126303480 126343904 126748752 127545224 128738152 
1010.035 130315032 132255808 134536080 137130640 140014416 143157072 
1012.927 146524816 150083728 153799904 157646112 161599744 165631776 
1015.820 169696928 173718576 177573648 181108848 184148288 186519904 
1018.713 188102192 188841344 188776864 188034944 186829744 185438176 
1021.605 184145008 183243328 182983184 183537584 185009072 187412608 
1024.498 190692544 194730928 199376752 204469312 209834768 215309936 
1027.391 220736688 225948608 230789168 235110688 238783440 241718368 
1030.284 243865232 245211808 245772176 245576336 244662192 243070416 
1033.177 240851872 238066288 234776400 231047408 226935856 222485920 
1036.070 217738192 212736848 207538576 202224720 196892896 191648768 
1038.963 186601728 181844736 177452688 173483168 169967584 166912560 
1041.856 164291536 162042128 160057856 158192576 156288560 154184528 
1044.750 151753120 148930704 145722688 142208048 138514432 134808960 
1047.643 131263016 128025040 125223112 122941952 121224872 120079328 
1050.536 119480576 119380504 119713728 120412744 121411904 122649784 
1053.429 124076072 125641840 127292904 128968896 130593104 132075864 
1056.322 133328064 134260640 134799152 134893968 134519904 133683352 
1059.215 132420912 130805672 128940536 126948432 124973280 123153656 
1062.108 121612040 120453456 119748344 119537944 119835880 120629784 
1065.001 121882800 123531144 125491232 127652216 129882352 132050800 
1067.894 134026080 135696848 136986160 137845360 138255504 138219744 
1070.787 137755328 136887888 135646944 134066600 132181648 130026712 
1073.680 127640400 125063688 122346352 119554616 116766480 114075336 
1076.573 111585448 109393496 107588360 106240976 105393768 105063192 
1079.466 105234064 105862152 106867672 108137568 109539040 110912968 
1082.359 112101728 112974944 113438104 113459792 113073368 112375768 
1085.252 111504352 110616864 109880760 109438768 109404960 109858872 
1088.146 110833296 112318728 114260640 116571512 119129992 121794160 
1091.039 124427320 126895128 129083288 130907152 132300792 133220120 
1093.932 133640544 133553192 132967440 131910352 130429152 128586248 
1096.825 126455648 124125952 121688112 119233624 116850688 114605328 
1099.718 112535840 110643792 108892128 107210392 105508528 103704456 
1102.611 101736616 99584360 97271952 94867184 92467832 90178464 88107800 
1105.986 86347160 84962480 83998720 83475408 83390728 83725416 84446824 
1109.361 85512560 86869696 88463248 90233360 92113032 94034200 95919568 
1112.737 97683344 99242568 100514752 101430584 101945064 102036368 101709392 
1116.112 100989480 99920584 98557328 96958064 95186496 93302000 91354824 
1119.487 89386456 87423976 85481568 83566208 81681024 79831888 78030488 
1122.862 76293720 74642984 73100672 71684664 70409240 69283768 68314360 
1126.238 67506888 66869132 66410296 66141472 66072872 66210964 66556184 
1129.613 67100620 67826760 68704368 69692048 70738584 71780936 72756128 
1132.988 73606824 74289000 74784032 75100720 75276744 75368296 75444768 
1136.363 75577472 75822808 76220464 76783728 77498640 78323008 79190816 
1139.739 80024464 80735240 81239272 81469768 81375560 80929888 80126656 
1143.114 78976784 77504696 75744696 73742824 71550720 69226368 66832960 
1146.489 64428680 62067984 59798304 57654832 55664648 53846264 52210224 
1149.864 50761580 49500080 48421264 47516192 46772984 46179084 45720748 
1153.240 45386216 45166452 45054476 45045656 45136008 45321592 45599104 
1156.615 45965256 46418172 46957384 47583844 48298816 49102260 49993136 
1159.990 50967912 52022048 53149364 54341532 55587744 56871380 58169016 
1163.365 59451840 60683444 61824524 62837476 63684292 64332456 64755096 
1166.740 64930788 64846912 64501324 63903652 63074076 62042604 60845944 
1170.116 59520428 58102572 56626472 55121068 53613928 52130900 50694324 
1173.491 49325144 48041376 46856132 45779616 44818456 43976328 43256020 
1176.866 42659456 42188200 41843932 41627700 41540520 41583288 41758128 
1180.241 42068376 42519180 43116252 43865064 44769784 45832196 47051752 
1183.617 48425448 49946964 51603920 53373544 55221932 57095828 58925512 
1186.992 60632620 62128956 63331960 64176052 64613080 64623728 64216888 
1190.367 63430300 62323856 60972780 59463848 57878016 56289244 54760948 
1193.742 53339340 52059360 50945668 50013504 49272064 48724152 48365668 
1197.118 48184220 48157492 48255828 48438672 48659288 48869444 49017492 
1200.493 49055628 48944056 48651208 48161344 47475460 46613376 45609480 
1203.868 44509360 43365004 42223836 41127260 40107312 39183600 38366972 
1207.243 37660816 37063760 36571248 36177024 35873688 35652892 35506272 
1210.619 35427140 35410708 35454604 35559384 35726492 35957296 36252116 
1213.994 36609460 37026520 37498992 38021128 38585424 39182076 39797412 
1217.369 40416424 41022588 41600028 42136756 42623816 43055840 43430364 
1220.744 43746352 44004744 44208480 44364012 44482380 44577316 44666288 
1224.120 44766588 44893296 45058484 45269152 45527416 45830684 46172268 
1227.495 46541524 46924384 47306540 47675136 48022132 48347628 48660988 
1230.870 48980920 49330932 49738960 50232392 50835216 51570044 52456988 
1234.245 53513472 54757004 56202688 57861248 59739904 61839920 64157808 
1237.621 66684848 69408472 72310328 75362736 78531120 81770648 85029208 
1240.996 88256984 91407904 94444768 97342376 100081472 102646328 105020704 
1244.371 107183632 109109104 110766536 112117552 113118424 113722808 
1247.264 113881392 113552656 112709712 111344616 109471288 107121168 
1250.157 104339520 101175824 97683760 93923248 89956880 85857552 81707536 
1253.532 77587608 73580248 69761024 66189004 62911652 59959216 57343836 
1256.908 55062424 53096528 51415264 49974992 48724296 47609060 46571508 
1260.283 45560980 44537408 43472256 42352912 41180732 39968880 38737580 
1263.658 37512036 36318576 35180444 34117328 33143840 32267492 31490616 
1267.033 30809522 30216760 29702324 29255478 28867586 28531698 28243556 
1270.409 28000556 27801140 27643338 27525766 27447260 27407944 27409708 
1273.784 27455838 27550196 27695850 27893558 28141094 28431396 28752056 
1277.159 29086022 29409824 29695228 29914010 30039404 30051832 29944006 
1280.534 29720986 29399790 29004224 28561774 28097258 27629462 27172818 
1283.910 26735754 26325180 25947564 25609918 25319178 25082302 24904080 
1287.285 24788090 24737400 24755254 24846256 25015924 25269446 25610622 
1290.660 26039870 26553964 27144988 27800186 28502896 29228472 29946954 
1294.035 30624632 31224288 31714228 32073024 32293438 32384892 32371216 
1297.411 32288190 32173778 32066106 31999760 32000362 32087150 32270346 
1300.786 32550528 32916956 33346336 33806260 34254624 34647000 34944848 
1304.161 35116384 35143724 35023388 34765116 34390064 33926872 33410382 
1307.536 32875388 32354116 31874192 31454492 31105386 30829156 30622392 
1310.912 30479096 30392984 30360364 30378662 30446398 30561206 30718970 
1314.287 30914394 31142156 31398178 31680434 31988774 32323598 32685582 
1317.662 33074506 33490400 33934284 34408244 34915940 35459636 36038108 
1321.037 36644068 37263612 37876056 38454500 38972420 39403040 39724788 
1324.413 39926272 40007864 39986104 39890312 39764368 39657696 39616352 
1327.788 39679080 39867684 40184908 40616372 41136148 41714796 42323904 
1331.163 42942728 43558808 44166000 44764052 45355724 45946248 46542300 
1334.538 47151504 47780500 48432968 49106820 49793840 50480380 51147356 
1337.914 51773664 52338784 52821972 53205464 53475432 53623072 53647104 
1341.289 53554024 53358484 53080616 52743884 52374180 51995488 51628924 
1344.664 51292980 51000404 50760352 50577676 50452616 50379792 50346528 
1348.039 50333840 50314456 50257016 50132232 49915776 49594636 49171160 
1351.415 48664404 48108812 47549612 47042264 46640708 46392728 46334516 
1354.790 46482036 46829300 47345304 47981980 48677076 49362188 49976740 
1358.165 50467836 50796776 50943396 50904576 50696932 50353112 49925072 
1361.540 49477912 49079332 48796548 48678040 48743720 48982260 49352352 
1364.916 49792948 50226068 50572576 50756736 50711308 50394528 49795812 
1368.291 48942980 47895360 46735604 45553360 44422440 43399456 42517064 
1371.666 41786072 41205324 40768108 40469192 40306104 40277600 40379332 
1375.041 40599852 40920816 41321412 41781656 42288332 42835748 43424324 
1378.417 44059856 44752080 45515572 46368912 47335288 48438228 49691364 
1381.792 51087612 52586296 54113696 55558672 56787276 57669096 58077728 
1385.167 57917660 57142992 55777436 53929464 51777808 49551704 47459864 
1388.542 45647828 44186836 43074940 42266348 41693712 41290584 40996584 
1391.917 40758172 40532152 40279672 39968704 39579948 39109592 38571408 
1395.293 37990352 37393060 36797456 36209004 35624656 35040488 34460508 
1398.668 33901720 33392776 32964390 32642000 32435336 32340232 32342516 
1402.043 32425304 32573100 32774150 33021160 33309628 33635308 33993404 
1405.418 34377436 34780984 35199164 35630160 36075948 36541008 37030996 
1408.794 37550072 38099904 38678648 39282316 39905896 40544956 41195744 
1412.169 41854516 42515708 43171800 43814152 44434916 45031320 45607160 
1415.544 46173708 46747888 47349920 48000592 48717480 49511480 50381244 
1418.919 51307672 52254204 53172696 54015868 54743436 55328996 55761800 
1422.295 56045080 56199860 56263256 56287472 56325420 56418188 56586912 
1425.670 56829536 57130216 57469236 57833120 58215952 58618840 59047228 
1429.045 59508876 60014684 60579704 61226332 61980268 62862328 63883120 
1432.420 65036228 66303016 67655744 69071040 70537648 72054216 73627120 
1435.796 75259448 76941760 78646504 80338416 81989096 83580712 85103088 
1439.171 86540224 87865448 89031280 89972656 90622712 90912040 90782152 
1442.546 90192944 89120520 87565456 85556456 83157616 80463664 77584792 
1445.921 74646848 71766000 69042488 66560164 64371876 62496348 60913152 
1449.297 59574620 58420628 57398100 56481132 55675420 55015860 54545368 
1452.672 54297564 54274400 54441728 54727196 55030832 55243528 55252336 
1456.047 54980440 54424676 53681932 52915756 52283652 51891300 51775268 
1459.422 51930732 52337364 52968496 53792740 54767304 55840164 56941864 
1462.798 57984676 58878912 59536656 59899424 59959904 59768116 59414380 
1466.173 58991964 58580576 58229288 57958964 57773092 57661488 57604356 
1469.548 57569472 57514056 57387924 57138420 56731012 56167844 55500460 
1472.923 54814024 54199280 53721788 53408504 53260112 53266668 53419072 
1476.299 53712380 54141060 54692396 55341000 56049608 56776968 57479032 
1479.674 58119772 58676980 59143128 59528864 59858500 60167572 60494800 
1483.049 60880636 61370452 62011072 62852332 63940084 65303212 66940172 
1486.424 68802464 70796536 72774032 74541840 75894424 76617168 76533968 
1489.800 75554680 73700496 71114112 68012880 64639108 61189976 57789288 
1493.175 54506372 51362228 48361960 45526316 42897960 40547140 38558084 
1496.550 36999316 35902624 35255148 35015560 35129464 35544784 36218944 
1499.925 37113092 38188284 39405400 40719088 42081444 43446404 44757664 
1503.301 45949488 46940992 47613088 47812828 47365332 46123664 44065436 
1506.676 41363360 38352892 35371380 32629606 30186426 28006140 26028366 
1510.051 24208074 22524972 20983442 19598302 18379164 17325858 16426241 
1513.426 15661335 15011355 14459248 13990265 13589167 13240632 12931800 
1516.802 12655254 12412705 12212138 12061466 11961116 11900359 11857316 
1520.177 11807605 11733354 11635904 11537864 11472402 11464305 11516836 
1523.552 11614838 11734545 11855954 11968065 12073766 12185182 12317284 
1526.927 12478445 12666546 12871930 13084345 13299049 13518678 13751484 
1530.302 14006246 14287112 14592111 14913339 15241256 15570074 15901752 
1533.678 16244657 16607111 16992022 17393482 17799942 18196968 18571706 
1537.053 18915342 19220910 19482922 19695230 19849684 19936506 19948648 
1540.428 19890092 19776368 19629394 19467708 19297940 19113974 18899700 
1543.803 18639666 18326628 17968848 17588486 17213664 16866138 16552102 
1547.179 16262889 15981017 15689675 15380848 15061127 14748394 14464351 
1550.554 14223700 14027462 13865419 13722825 13588551 13460129 13343533 
1553.929 13249684 13187721 13158280 13153260 13157357 13152611 13117742 
1557.304 13029098 12863432 12606883 12271984 11904242 11564779 11297604 
1560.680 11113527 10999531 10931330 10884204 10835996 10771999 10686515 
1564.055 10584207 10478428 10385161 10316616 10275223 10253577 10238311 
1567.430 10216532 10179456 10126545 10064009 10003312 9955677 9927810 
1570.805 9921844 9936624 9970561 10021521 10086493 10159953 10231968 
1574.181 10290389 10323776 10326727 10305216 10276987 10264468 10282076 
1577.556 10331037 10401044 10477952 10549374 10607703 10650995 10680539 
1580.931 10698843 10707673 10707570 10698672 10682338 10662234 10643864 
1584.306 10631911 10629025 10633847 10642098 10648856 10651198 10650350 
1587.682 10650723 10658125 10676837 10708521 10751790 10804914 10867625 
1591.057 10941898 11031341 11138343 11261285 11393651 11524866 11644719 
1594.432 11745540 11825888 11889360 11943474 11995926 12052133 12115739 
1597.807 12189373 12276722 12384543 12521242 12695476 12914186 13180548 
1601.183 13494855 13855772 14261808 14710929 15198808 15716540 16247891 
1604.558 16768666 17251932 17667612 17988946 18196588 18278968 18235426 
1607.933 18075260 17817272 17485404 17104674 16701171 16298458 15916187 
1611.308 15571001 15272143 15022126 14816270 14644748 14494807 14352519 
1614.684 14205795 14044814 13865351 13671429 13476295 13300552 13163369 
1618.059 13078130 13047877 13067032 13123786 13203604 13292967 13380846 
1621.434 13462043 13539085 13621441 13721286 13848383 14006451 14192032 
1624.809 14398345 14618943 14850521 15092275 15343535 15601808 15861610 
1628.185 16114863 16355017 16579468 16790156 16992746 17192946 17393174 
1631.560 17591766 17781750 17953412 18096228 18199594 18255434 18259892 
1634.935 18215800 18134608 18034330 17935386 17851276 17786652 17736810 
1638.310 17692252 17640798 17571236 17476952 17357274 17219216 17073898 
1641.686 16934070 16808032 16697349 16596060 16492592 16373115 16224433 
1645.061 16038291 15814601 15564132 15307048 15068468 14872363 14733243 
1648.436 14655132 14632376 14653384 14701606 14755010 14787130 14763511 
1651.811 14649203 14425199 14113607 13783189 13511535 13340799 13263041 
1655.187 13245619 13253544 13262426 13259659 13241314 13209376 13168253 
1658.562 13121806 13071539 13015918 12951599 12874627 12782006 12672517 
1661.937 12547707 12412501 12274950 12144701 12031114 11940307 11873831 
1665.312 11828169 11795144 11764094 11722222 11657822 11562874 11435355 
1668.688 11280838 11111590 10943291 10789832 10660163 10557183 10478461 
1672.063 10417334 10364020 10306675 10232578 10130716 9997210 9839374 
1675.438 9676039 9529294 9415542 9338652 9290988 9258290 9227015 9189177 
1679.295 9144304 9098827 9062015 9040160 9032109 9026865 9005451 8946627 
1683.153 8834923 8672539 8484470 8310261 8182377 8110263 8083190 8081536 
1687.010 8088017 8090109 8081401 8060303 8028305 7988682 7945889 7905666 
1690.868 7874286 7856877 7856237 7870305 7891798 7908197 7905396 7870643 
1694.725 7800132 7703864 7605932 7534318 7505123 7516113 7549118 7579901 
1698.583 7582194 7536711 7438615 7305091 7171540 7072144 7023449 7019643 
1702.440 7042711 7072751 7093901 7096057 7074333 7030689 6972334 6910284 
1706.297 6854471 6811420 6782845 6766523 6757941 6752456 6746802 6739937 
1710.155 6732634 6727149 6725769 6729740 6738692 6751009 6764436 6777461 
1714.012 6789106 6798496 6804857 6804823 6793548 6766523 6722236 6666043 
1717.870 6609554 6567873 6552366 6566830 6607232 6665168 6730952 6796072 
1721.727 6856255 6910251 6960213 7009339 7061334 7117848 7179389 7244711 
1725.584 7312402 7380778 7447817 7511056 7567359 7613519 7648084 7671521 
1729.442 7687710 7701065 7715635 7731184 7742079 7736615 7699750 7618746 
1733.299 7490560 7329992 7167362 7036986 6959641 6935837 6951594 6988059 
1737.157 7028466 7060121 7076253 7075748 7062883 7044630 7028264 7019038 
1741.014 7018229 7024257 7034662 7046819 7058673 7069518 7079048 7087232 
1744.872 7093901 7098414 7099525 7095383 7084201 7063994 7034023 6993513 
1748.729 6942503 6880693 6808121 6725568 6635897 6544394 6458628 6386127 
1752.586 6331725 6296156 6275885 6263447 6250001 6227816 6192490 6145439 
1756.444 6092916 6045035 6011035 5994439 5992491 5997227 5999310 5989433 
1760.301 5962559 5918219 5861559 5800910 5745004 5700787 5671379 5656341 
1764.159 5652749 5656374 5662651 5666344 5663659 5652312 5633481 5611294 
1768.016 5592834 5583906 5586692 5598003 5609616 5611294 5593740 5553197 
1771.874 5494437 5429981 5374726 5339034 5326052 5331285 5347286 5366876 
1775.731 5386601 5405925 5425720 5446992 5468264 5485981 5496048 5495745 
1779.588 5485343 5469069 5453165 5443368 5442093 5447730 5455547 5460446 
1783.446 5458701 5449743 5435819 5421325 5410019 5404114 5404181 5409616 
1787.303 5419949 5434913 5454440 5477525 5501014 5520410 5529773 5524034 
1791.161 5501819 5466049 5424646 5387138 5361241 5350506 5353424 5365769 
1795.018 5382408 5399517 5414279 5424982 5430954 5431289 5425954 5414648 
1798.875 5398746 5379892 5360737 5343965 5331319 5323403 5319780 5320015 
1802.733 5323537 5330446 5340946 5354598 5370365 5386668 5401463 5413575 
1806.590 5422902 5430082 5436590 5443401 5450414 5457225 5462694 5465815 
1810.448 5466821 5466754 5467023 5468432 5470747 5472660 5472626 5469472 
1814.305 5463231 5455111 5447931 5444542 5447663 5458634 5477559 5503900 
1818.163 5535847 5571689 5609314 5647512 5684741 5720159 5753331 5784020 
1822.020 5811924 5836204 5855649 5868881 5875597 5877210 5877747 5882684 
1825.877 5896690 5922485 5958393 5999109 6036804 6063716 6074973 6070604 
1829.735 6056022 6039895 6031562 6036333 6054947 6083978 6118555 6154681 
1833.592 6189768 6223513 6256555 6289600 6322681 6355260 6387102 6418945 
1837.450 6453381 6494244 6545302 6609083 6685827 6773523 6868373 6966038 
1841.307 7062378 7153585 7236962 7310414 7374038 7430054 7482536 7536981 
1845.165 7597907 7666362 7740190 7814064 7880900 7933843 7968196 7982303 
1849.022 7977005 7955035 7919468 7872026 7813424 7743361 7662281 7572248 
1852.879 7476907 7380711 7287838 7200375 7118690 7041498 6967688 6896818 
1856.737 6829932 6768441 6713150 6663519 6617494 6572919 6528047 6482977 
1860.594 6439257 6399173 6364372 6334650 6308662 6284020 6259749 6236186 
1864.452 6215312 6198977 6188155 6181164 6174308 6162377 6141709 6111834 
1868.309 6076283 6041172 6013387 5997966 5996085 6005626 6022995 6044767 
1872.167 6067917 6090228 6109549 6123360 6128872 6124604 6110355 6088111 
1876.024 6061432 6034452 6010363 5990441 5974182 5959737 5946133 5933637 
1879.881 5923460 5917212 5915364 5916742 5918287 5916473 5909218 5896690 
1883.739 5881341 5866731 5855816 5850040 5847958 5847051 5844297 5837816 
1887.596 5827607 5814712 5800608 5786740 5773510 5761422 5750947 5743627 
1891.454 5741143 5744500 5753431 5765452 5776734 5783987 5785195 5781334 
1895.311 5775626 5771999 5773678 5781502 5793657 5807022 5818876 5827540 
1899.168 5833249 5837312 5840838 5844398 5847152 5848126 5846816 5844096 
1903.026 5841678 5841644 5844532 5849436 5854272 5856455 5854641 5849402 
1906.883 5842887 5837883 5836506 5839193 5845238 5853063 5861761 5871601 
1910.741 5882852 5896656 5912308 5928028 5941699 5951003 5956076 5958360 
1914.598 5960208 5963264 5967060 5969512 5966926 5956412 5938172 5915566 
1918.456 5894339 5879326 5873314 5874758 5879896 5884229 5885304 5883155 
1922.313 5880669 5881643 5888495 5900854 5915633 5928800 5937701 5941329 
1926.170 5941396 5940255 5939717 5939985 5940355 5939280 5937164 5935955 
1930.028 5939012 5948820 5966388 5988896 6012345 6032201 6045808 6053637 
1933.885 6059147 6065598 6075645 6088749 6102392 6112876 6118454 6119429 
1937.743 6118756 6119731 6124167 6131258 6138113 6140768 6137374 6128401 
1941.600 6117379 6108642 6105819 6109482 6117849 6127998 6138080 6148296 
1945.458 6161167 6179416 6204691 6236017 6269531 6300425 6325673 6343660 
1949.315 6355260 6363296 6369819 6375904 6382327 6389052 6396954 6407513 
1953.172 6421972 6439930 6458325 6471071 6472686 6458392 6427958 6385320 
1957.030 6338785 6296929 6266035 6248085 6241093 6240925 6242908 6244723 
1960.887 6245900 6247950 6251917 6257261 6263009 6268657 6274372 6281767 
1964.745 6292155 6306712 6323253 6338819 6350015 6355630 6357580 6360303 
1968.602 6368406 6383974 6405427 6426680 6441578 6446184 6440535 6428866 
1972.459 6417533 6411850 6413599 6421703 6434280 6452742 6483313 6535817 
1976.317 6619176 6737548 6883252 7039916 7184273 7296296 7362748 7381452 
1980.174 7357761 7303776 7232111 7151733 7069652 6990247 6916849 6853461 
1984.032 6803612 6768744 6748316 6738658 6734317 6730211 6723986 6715540 
1987.889 6706117 6698042 6690235 6681554 6669172 6652214 6632196 6614297 
1991.747 6604037 6606021 6621598 6646965 6676709 6704973 6727755 6743268 
1995.604 6752826 6756898 6756157 6749931 6737177 6718333 6695586 6672604 
1999.461 6652954 6637982 6626308 6613221 6593843 6565317 6528013 6488392 
2003.319 6454054 6432498 6429505 6444570 6475141 6515770 6560944 6606762 
2007.176 6650801 6690874 6725332 6752691 6773220 6789072 6804621 6824143 
2011.034 6851205 6884363 6919711 6950314 6970314 6977620 6975129 6970179 
2014.891 6969775 6979405 6999036 7024526 7049210 7067093 7076994 7080833 
2018.749 7083561 7089388 7100671 7115894 7132971 7149139 7163691 7177165 
2022.606 7192089 7208461 7225912 7242218 7254414 7261827 7266409 7270857 
2026.463 7279145 7293263 7312672 7335250 7359614 7385160 7413639 7447581 
2030.321 7487323 7530677 7573057 7608697 7634493 7652164 7667609 7689126 
2034.178 7724168 7774731 7837141 7903844 7965193 8014601 8050683 8075020 
2038.036 8091763 8103444 8110567 8110870 8102026 8082514 8053384 8018820 
2041.893 7983349 7950884 7923821 7902663 7886804 7877256 7875737 7884781 
2045.750 7907927 7946733 8001405 8069552 8146994 8228299 8306647 8373018 
2049.608 8419164 8437373 8423960 8381565 8320056 8254875 8201725 8175659 
2053.465 8183356 8222660 8282331 8347549 8404232 8443251 8463116 8468117 
2057.323 8465752 8461799 8459772 8459907 8460785 8461698 8462981 8466022 
2061.180 8471969 8479808 8487207 8490991 8488423 8480381 8470009 8462035 
2065.038 8459772 8463961 8470989 8476023 8473151 8459434 8435785 8406326 
2068.895 8375551 8347955 8325359 8307121 8292294 8280000 8270713 8266256 
2072.752 8267471 8273550 8281925 8289153 8292936 8293003 8292597 8295772 
2076.610 8306209 8325629 8351400 8378727 8402374 8418960 8427777 8432001 
2080.467 8435750 8442677 8454805 8471056 8488558 8505249 8518969 8529781 
2084.325 8538297 8545292 8551442 8556849 8560972 8563777 8565770 8567055 
2088.182 8567123 8564250 8555802 8538838 8511974 8475888 8433757 8390415 
2092.040 8351197 8320427 8300771 8293374 8297799 8313639 8340254 8376058 
2095.897 8418454 8462948 8504641 8538736 8562392 8575233 8579863 8580438 
2099.754 8580438 8582229 8586825 8593483 8602438 8614335 8631167 8655132 
2103.612 8687379 8726965 8770915 8815818 8858830 8899074 8937563 8976190 
2107.469 9015870 9055723 9093312 9124983 9148907 9165725 9178551 9191885 
2111.327 9210363 9234902 9263942 9292342 9314583 9326160 9325922 9314819 
2115.184 9296912 9277008 9258560 9244412 9235815 9232802 9235747 9243938 
2119.042 9256530 9272031 9288652 9304596 9319559 9334759 9352499 9375826 
2122.899 9407043 9446457 9492445 9541824 9590973 9636164 9675937 9709006 
2126.756 9735334 9754716 9767187 9773253 9774507 9773422 9773151 9776947 
2130.614 9786368 9801516 9821343 9844017 9868591 9896013 9926793 9962390 
2134.471 10002533 10044646 10084966 10120746 10151168 10177998 10206118 
2137.846 10240042 10281906 10330392 10379732 10422662 10452936 10467396 
2141.222 10466412 10453819 10434269 10411021 10385942 10359031 10329001 
2144.597 10296564 10263178 10230849 10201743 10176743 10154628 10133667 
2147.972 10111690 10088222 10062585 10034813 10002634 9962322 9908319 
2151.347 9835747 9741263 9625967 9493765 9350095 9201429 9053321 8910540 
2155.205 8780112 8671525 8599735 8580471 8628362 8747892 8931779 9156385 
2159.062 9390011 9601508 9767729 9878658 9938286 9958186 9951982 9932116 
2162.920 9906759 9878692 9848965 9816123 9778133 9732589 9677970 9612111 
2166.777 9535457 9449572 9357712 9263976 9173339 9087154 9006567 8930629 
2170.635 8857985 8788734 8725612 8671085 8628903 8600546 8584493 8576890 
2174.492 8573577 8570536 8565940 8559553 8550361 8537553 8518124 8489065 
2178.349 8448285 8398455 8343936 8293104 8253187 8228265 8217595 8215805 
2182.207 8215097 8209288 8195478 8175186 8152295 8130822 8113268 8098312 
2186.064 8084641 8069518 8053113 8036911 8024423 8018450 8020846 8030668 
2189.922 8046160 8065332 8086599 8109351 8132781 8155502 8174577 8186835 
2193.779 8189535 8183391 8171201 8158777 8151822 8154320 8166542 8185383 
2197.636 8205472 8222018 8232689 8237079 8237518 8236707 8235965 8235660 
2201.494 8234243 8230596 8223875 8215062 8205507 8197369 8191696 8188827 
2205.351 8188455 8190514 8195040 8202636 8213171 8224990 8235728 8242482 
2209.209 8242854 8237248 8228265 8219992 8216886 8222221 8236403 8257239 
2213.066 8281047 8303777 8322487 8335491 8341875 8342246 8336808 8326540 
2216.924 8313132 8299859 8290065 8287127 8293003 8306174 8322927 8338058 
2220.781 8345894 8343598 8330763 8309822 8284222 8257408 8230731 8204358 
2224.638 8177718 8150404 8123531 8099899 8082244 8073400 8073974 8082852 
2228.496 8096962 8113605 8129675 8143347 8154185 8161512 8165090 8165968 
2232.353 8164955 8163403 8163503 8166711 8173632 8183661 8195680 8207262 
2236.211 8218135 8228974 8241401 8257746 8279562 8305904 8334242 8360453 
2240.068 8380990 8393928 8399333 8399941 8399401 8401022 8407339 8419434 
2243.926 8437710 8461427 8489910 8521908 8555633 8588346 8617276 8639448 
2247.783 8653712 8660404 8661756 8660844 8660912 8663345 8668753 8676020 
2251.640 8684235 8692179 8700461 8709690 8720541 8733185 8746776 8760198 
2255.498 8772098 8782073 8789578 8794414 8796037 8792825 8783324 8765709 
2259.355 8740014 8707458 8671288 8634445 8600073 8569454 8542419 8517921 
2263.213 8495654 8476124 8461562 8454940 8457643 8469569 8488693 8510284 
2267.070 8529984 8544345 8551848 8553402 8551104 8547252 8542994 8538804 
2270.927 8533803 8526538 8517043 8505554 8493458 8483085 8476226 8475077 
2274.785 8480618 8493525 8512920 8537926 8566041 8594328 8620352 8641814 
2278.642 8657903 8668990 8676866 8683052 8689576 8697080 8705261 8713881 
2282.500 8722299 8729500 8735450 8739777 8741941 8741467 8737546 8730244 
2286.357 8720305 8709047 8698433 8689914 8683660 8678995 8674196 8667672 
2290.215 8658173 8645971 8632316 8619337 8608421 8600952 8596355 8593956 
2294.072 8592502 8591218 8589833 8588887 8588650 8589968 8592435 8596355 
2297.929 8601189 8606799 8613287 8619945 8626300 8631133 8633533 8632485 
2301.787 8628362 8621534 8613626 8606326 8600343 8595983 8592435 8588751 
2305.644 8583682 8576923 8568812 8560566 8553504 8548941 8547489 8549685 
2309.502 8555328 8563946 8574523 8585676 8595375 8602270 8604703 8602608 
2313.359 8596863 8589664 8583615 8581283 8583682 8590508 8600648 8611564 
2317.217 8621467 8629376 8635121 8639786 8644924 8652259 8663345 8678962 
2321.074 8698804 8720913 8742043 8756445 8758135 8741603 8703064 8642253 
2324.931 8562898 8472037 8377916 8288984 8211618 8148310 8099258 8061654 
2328.789 8032254 8008324 7988547 7972583 7961211 7954461 7951998 7952842 
2332.646 7955912 7960907 7967858 7977240 7989255 8003734 8019631 8035427 
2336.504 8050042 8063206 8075830 8089334 8104929 8123361 8144293 8166914 
2340.361 8190009 8213138 8236336 8259874 8284222 8308336 8331405 8352245 
2344.219 8370688 8388422 8408724 8435920 8474030 8525288 8589258 8663041 
2348.076 8741670 8819536 8890687 8950483 8995303 9023346 9034476 9030485 
2351.933 9015058 8992089 8965976 8940133 8916560 8895996 8878208 8862752 
2355.791 8849598 8839284 8832284 8829546 8831541 8837932 8848381 8862279 
2359.648 8878917 8897822 8918250 8939153 8958500 8975176 8987387 8995268 
2363.506 9000140 9004470 9011270 9022670 9039957 9062658 9089184 9117776 
2367.363 9147180 9177028 9208028 9240655 9275518 9312585 9351145 9390756 
2371.220 9431117 9472566 9515983 9561707 9609943 9659844 9710632 9760986 
2375.078 9810498 9859100 9907573 9956355 10005652 10055497 10104873 10152966 
2378.935 10199334 10243672 10286148 10327067 10366837 10405320 10442449 
2382.311 10478054 10512372 10545843 10579115 10612931 10647769 10683866 
2385.686 10721087 10759194 10798052 10837491 10877308 10917433 10957188 
2389.061 10996268 11034094 11070698 11106355 11141504 11176758 11211914 
2392.436 11246834 11280465 11312261 11341680 11368991 11395080 11421034 
2395.812 11447636 11475260 11503567 11532045 11560492 11588803 11617628 
2399.187 11647748 11679606 11713100 11747958 11783363 11818875 11854729 
2402.562 11891437 11930089 11971335 12015512 12062352 12111037 12161261 
2405.937 12212854 12266191 12321682 12379566 12439470 12500099 12560223 
2409.313 12618652 12674904 12729390 12782892 12836641 12891454 12947367 
2412.688 13004106 13060954 13117332 13172762 13226729 13279028 13329183 
2416.063 13376643 13420930 13462146 13500050 13535496 13568826 13600380 
2419.438 13630433 13659120 13686679 13714207 13743276 13775391 13812262 
2422.813 13854267 13901100 13951600 14004261 14058058 14112785 14169027 
2426.189 14227672 14289851 14356184 14426603 14501042 14579022 14660958 
2429.564 14746817 14836807 14930623 15027648 15126582 15226397 15326407 
2432.939 15426645 15527627 15630076 15734198 15840339 15947638 16056169 
2436.314 16166205 16278643 16394859 16516237 16643155 16775209 16910920 
2439.690 17048360 17185846 17322512 17457876 17591938 17724108 17853762 
2443.065 17978898 18098334 18210858 18316706 18416982 18513442 18607914 
2446.440 18701892 18795752 18889422 18982662 19074712 19165638 19255440 
2449.815 19343598 19429800 19513174 19592512 19667390 19737774 19804354 
2453.191 19868622 19932170 19996560 20062902 20132064 20204086 20279142 
2456.566 20356916 20437066 20519316 20603700 20690498 20780478 20874822 
2459.941 20974368 21079466 21189494 21302822 21416842 21529324 21638668 
2463.316 21744414 21848584 21953510 22061774 22176028 22297428 22426362 
2466.692 22562350 22705430 22855824 23014726 23183224 23362770 23554142 
2470.067 23757288 23971558 24196024 24429190 24669640 24915940 25166172 
2473.442 25418622 25671430 25922908 26172418 26419010 26662326 26901652 
2476.817 27135536 27361784 27577734 27779908 27965464 28131690 28276760 
2480.193 28399558 28499994 28578444 28636022 28674460 28695522 28701078 
2483.568 28692902 28672584 28641296 28600454 28551372 28495184 28433342 
2486.943 28366486 28295080 28218804 28136710 28047880 27951576 27847168 
2490.318 27735124 27615762 27489442 27356138 27215784 27067398 26910392 
2493.694 26744388 26568546 26382814 26186884 25980206 25762482 25533412 
2497.069 25293152 25042636 24783212 24516408 24243774 23966866 23686460 
2500.444 23403296 23118186 22832460 22547866 22266072 21989270 21718600 
2503.819 21455064 21199028 20950374 20709682 20477458 20254354 20041630 
2507.195 19839764 19648946 19469128 19299708 19140602 18992042 18854504 
2510.570 18728390 18613968 18510570 18416982 18331880 18254052 18182734 
2513.945 18118370 18061200 18011880 17970576 17937182 17910870 17891844 
2517.320 17880002 17875824 17880176 17892880 17913528 17940118 17970712 
2520.696 18003176 18036194 18070112 18105484 18144072 18186638 18233318 
2524.071 18283254 18334574 18385386 18433748 18478554 18518974 18554588 
2527.446 18584814 18609644 18628492 18641050 18647342 18647136 18640288 
2530.821 18626384 18604700 18574576 18535536 18488062 18433230 18372978 
2534.197 18309518 18244792 18180384 18117542 18056642 17998168 17942742 
2537.572 17890672 17842542 17798112 17757070 17718310 17680346 17642350 
2540.947 17603532 17564094 17524764 17486576 17450356 17416486 17384964 
2544.322 17355066 17325858 17296480 17266242 17234592 17201634 17167646 
2547.698 17133280 17099296 17066452 17035198 17005598 16977380 16950124 
2551.073 16923150 16896142 16869202 16842748 16817364 16793738 16771868 
2554.448 16751550 16732438 16714361 16697280 16681580 16667979 16657272 
2557.823 16649663 16644740 16641228 16637750 16632482 16624015 16611723 
2561.198 16595647 16576095 16554167 16530693 16506324 16481407 16456077 
2564.574 16430715 16405389 16380547 16356634 16334305 16314248 16296772 
2567.949 16281808 16269390 16259311 16251398 16245965 16243178 16243350 
2571.324 16247340 16254805 16265811 16279537 16295224 16312391 16330315 
2574.699 16349133 16368778 16389424 16410861 16432814 16454667 16475728 
2578.075 16495828 16514825 16533239 16551552 16570311 16589830 16610656 
2581.450 16633103 16657891 16685780 16717425 16753100 16792568 16834998 
2584.825 16879020 16923218 16966696 17008838 17049982 17090508 17130868 
2588.200 17171230 17211630 17251726 17291964 17332858 17375378 17420488 
2591.576 17468812 17520210 17574066 17628926 17683554 17736636 17787688 
2594.951 17836294 17882178 17925234 17965118 18001726 18035260 18065898 
2598.326 18094880 18123172 18151466 18180314 18209650 18239262 18269326 
2601.701 18300222 18332918 18368656 18408442 18452728 18501374 18553552 
2605.077 18608538 18665468 18723928 18784056 18845956 18909944 18975948 
2608.452 19044142 19114494 19187352 19263094 19342212 19424844 19510610 
2611.827 19598648 19687776 19776992 19865536 19953226 20040174 20126686 
2615.202 20212868 20298548 20383480 20467108 20549328 20629656 20708326 
2618.578 20784962 20859386 20930972 20999230 21064196 21126180 21186538 
2621.953 21246590 21307696 21370584 21434978 21499940 21563900 21625258 
2625.328 21682690 21735846 21784650 21830082 21872974 21914512 21955742 
2628.703 21997078 22038976 22081192 22123446 22165148 22205668 22244344 
2632.079 22280858 22315076 22346924 22376786 22405044 22431978 22457904 
2635.454 22483130 22507976 22532438 22556766 22580568 22603568 22625698 
2638.829 22646608 22666994 22687660 22709866 22735004 22763914 22796842 
2642.204 22833298 22872554 22913454 22954776 22996628 23039148 23083208 
2645.580 23129510 23178506 23230202 23284314 23340078 23397106 23454774 
2648.955 23512798 23571074 23629288 23687088 23744164 23800196 23854870 
2652.330 23908606 23961648 24014838 24068802 24124212 24181486 24240796 
2655.705 24301938 24364596 24428104 24491938 24555464 24618228 24680056 
2659.081 24740768 24800508 24859272 24917272 24974440 25030982 25086758 
2662.456 25141702 25196404 25250516 25304602 25358378 25411772 25464576 
2665.831 25516824 25568378 25619304 25669706 25719836 25769584 25818740 
2669.206 25867128 25914536 25961352 26007996 26055316 26103976 26154612 
2672.582 26207506 26262416 26319266 26377956 26438552 26501274 26566364 
2675.957 26634176 26704500 26777300 26852054 26928512 27006396 27085384 
2679.332 27165446 27246158 27327414 27408828 27490536 27572932 27656720 
2682.707 27742680 27831412 27922920 28016636 28111434 28206640 28301656 
2686.083 28397118 28494050 28594048 28698494 28808062 28922868 29042164 
2689.458 29164646 29289434 29415816 29543512 29672486 29802600 29933676 
2692.833 30065502 30197686 30330160 30463242 30597504 30733658 30872414 
2696.208 31013884 31158568 31306044 31456168 31608910 31764024 31921406 
2699.583 32080624 32241474 32403596 32566600 32730524 32895226 33061202 
2702.959 33228320 33396606 33565856 33735492 33905124 34074316 34242936 
2706.334 34410792 34577924 34744048 34909260 35073496 35236964 35399780 
2709.709 35562584 35725628 35889200 36053228 36218080 36383820 36550632 
2713.084 36719240 36889680 37062172 37236428 37410976 37584900 37756800 
2716.460 37925372 38090064 38250876 38407440 38560040 38708564 38853044 
2719.835 38993876 39131636 39267444 39403292 39540788 39682204 39829080 
2723.210 39982580 40143584 40312428 40488976 40672800 40863440 41059840 
2726.585 41261252 41467092 41677228 41891660 42111088 42335520 42564824 
2729.961 42797868 43032976 43267992 43500972 43730048 43954296 44172748 
2733.336 44385004 44590420 44787932 44976632 45155604 45324056 45482124 
2736.711 45629908 45767616 45895720 46014616 46125104 46227916 46324824 
2740.086 46417840 46509068 46600832 46694904 46793132 46896952 47007888 
2743.462 47127496 47257592 47399068 47552384 47716924 47891220 48072912 
2746.837 48259716 48449640 48640236 48829772 49015860 49195352 49365304 
2750.212 49521844 49661940 49783324 49884740 49965812 50027000 50068648 
2753.587 50091288 50094788 50079240 50044292 49989344 49913580 49815464 
2756.963 49693224 49544388 49367312 49160624 48924624 48660176 48369408 
2760.338 48054552 47717996 47361928 46989208 46602272 46205028 45801708 
2763.713 45397108 44995932 44602464 44220184 43851760 43499728 43166276 
2767.088 42854036 42565628 42303196 42068852 41863200 41686124 41537016 
2770.464 41414640 41317624 41245040 41195856 41168460 41160880 41170280 
2773.839 41193196 41225512 41263728 41304068 41343644 41380272 41412344 
2777.214 41438332 41457364 41468660 41470884 41463304 41444824 41414788 
2780.589 41373020 41320136 41257900 41188860 41116332 41043672 40974008 
2783.965 40909200 40850372 40797592 40749696 40705624 40663740 40622480 
2787.340 40579916 40533900 40482176 40422388 40352132 40269820 40174624 
2790.715 40066436 39946504 39816552 39678972 39536756 39392992 39250908 
2794.090 39113688 38984020 38864460 38757032 38663288 38584772 38522816 
2797.466 38478576 38453232 38447908 38463224 38499644 38556816 38634276 
2800.841 38731532 38847648 38982168 39133960 39302012 39484788 39680244 
2804.216 39886320 40100520 40320756 40545032 40771276 40997932 41222924 
2807.591 41443948 41658812 41864624 42058596 42237712 42398756 42538656 
2810.967 42654300 42743132 42803500 42834728 42837580 42813516 42764740 
2814.342 42693888 42603712 42496636 42375996 42244912 42107292 41968004 
2817.717 41831784 41703560 41588612 41491048 41414568 41362048 41335444 
2821.092 41335044 41360444 41409940 41480764 41569940 41674164 41790012 
2824.468 41914284 42043848 42175056 42304040 42426668 42538732 42636900 
2827.843 42718856 42783316 42830412 42860984 42876640 42879084 42869908 
2831.218 42851148 42824672 42792528 42757136 42720136 42682812 42645784 
2834.593 42609632 42574252 42540268 42508144 42478112 42450412 42425020 
2837.969 42400912 42377568 42354880 42334280 42318648 42312404 42320804 
2841.344 42348928 42401496 42481800 42592128 42734760 42912184 43127848 
2844.719 43385800 43690620 44045668 44451984 44906704 45402368 45925256 
2848.094 46456444 46973260 47448996 47857736 48176668 48387964 48481940 
2851.469 48458084 48324336 48094968 47789192 47428928 47034732 46626508 
2854.845 46221284 45831864 45468476 45137664 44842224 44582420 44355828 
2858.220 44158556 43985384 43830720 43689996 43558696 43433256 43310820 
2861.595 43188784 43064656 42936764 42803204 42662928 42515384 42361312 
2864.970 42202732 42042932 41886988 41740328 41609576 41500744 41418756 
2868.346 41367368 41348124 41361172 41404652 41475372 41568736 41678832 
2871.721 41798912 41921728 42039684 42146504 42237204 42309188 42361972 
2875.096 42397188 42417532 42425864 42424692 42415780 42400216 42378956 
2878.471 42353312 42324528 42294724 42265872 42239576 42217120 42199008 
2881.847 42185680 42176956 42172900 42173084 42176660 42182324 42188456 
2885.222 42192436 42192180 42185972 42172972 42153732 42130148 42105320 
2888.597 42082944 42067500 42063668 42075932 42108972 42167680 42257252 
2891.972 42384396 42557296 42785544 43081124 43457132 43926320 44500624 
2895.348 45187480 45987908 46892784 47881932 48921692 49963428 50951296 
2898.723 51822788 52515464 52980248 53183368 53113828 52784332 52229504 
2902.098 51499792 50650240 49738920 48816904 47922556 47086356 46327032 
2905.473 45654972 45074988 44587924 44191568 43882220 43655408 43506648 
2908.849 43431608 43427396 43492072 43623900 43821628 44082008 44400564 
2912.224 44770116 45180680 45619784 46073520 46525884 46960264 47361448 
2915.599 47715332 48011364 48243832 48411300 48517136 48567936 48572160 
2918.974 48537924 48471608 48377556 48257416 48110812 47936428 47733712 
2922.350 47503112 47248096 46974772 46692140 46411788 46145516 45905328 
2925.725 45701424 45540480 45426200 45358484 45334172 45346972 45389344 
2929.100 45452284 45526276 45601568 45669768 45722520 45753880 45759036 
2932.475 45735036 45680296 45594316 45477156 45329608 45153400 44950908 
2935.851 44725672 44482412 44226748 43963972 43700144 43440724 43190500 
2939.226 42954504 42737176 42542676 42374940 42236548 42128724 42050892 
2942.601 42000408 41972456 41959864 41953876 41944352 41919976 41870240 
2945.976 41785268 41657788 41484628 41266648 41009696 40723020 40419260 
2949.352 40111860 39813244 39534216 39282644 39062608 38875512 38720048 
2952.727 38593172 38490956 38409576 38345800 38297156 38262348 38240816 
2956.102 38232204 38236224 38252072 38278776 38315288 38360604 38414172 
2959.477 38476004 38546316 38625260 38712656 38807500 38908636 39014972 
2962.853 39125112 39238868 39355840 39476372 39600564 39728092 39858168 
2966.228 39989736 40121452 40252192 40381512 40509416 40636708 40765384 
2969.603 40898132 41038648 41191008 41359496 41547444 41756596 41986980 
2972.978 42236108 42499304 42769748 43039156 43298848 43538736 43749140 
2976.354 43922104 44050468 44130568 44162220 44148908 44097816 44018680 
2979.729 43922800 43820456 43721212 43632692 43559172 43503132 43464272 
2983.104 43440472 43427104 43417728 43405316 43381372 43337692 43267736 
2986.479 43166640 43032060 42864204 42665996 42441900 42198240 41941544 
2989.854 41678140 41413328 41151336 40894532 40643692 40398928 40159500 
2993.230 39925000 39695200 39470204 39249928 39033892 38820472 38607332 
2996.605 38391044 38168564 37937160 37695616 37443984 37183832 36917456 
2999.980 36647780 36377548 36109108 35844328 35584772 35331412 35085096 
3003.355 34846500 34615996 34393936 34180520 33975848 33779972 33592808 
3006.731 33414212 33243876 33081118 32925318 32775686 32631536 32492570 
3010.106 32358188 32228376 32102886 31981640 31864348 31750836 31640626 
3013.481 31533618 31429202 31326838 31226034 31126352 31027442 30929408 
3016.856 30833034 30739028 30648704 30563092 30482792 30408158 30339292 
3020.232 30276228 30218856 30167496 30122178 30083292 30050660 30024100 
3023.607 30003400 29988558 29980322 29980074 29989624 30010642 30044658 
3026.982 30091530 30149702 30216122 30286246 30354890 30416544 30466370 
3030.357 30500422 30516488 30513608 30492566 30455532 30405386 30345120 
3033.733 30278076 30206672 30132762 30057654 29981956 29906024 29830210 
3037.108 29754836 29680326 29607214 29536384 29468436 29404542 29345512 
3040.483 29291880 29243782 29201252 29163408 29129390 29098424 29069690 
3043.858 29042908 29017792 28994554 28973196 28953926 28936820 28922192 
3047.234 28910188 28901442 28896554 28895952 28899988 28908346 28920990 
3050.609 28936998 28956016 28977482 29000966 29026116 29052542 29080176 
3053.984 29108946 29138992 29170920 29205470 29242896 29283194 29325802 
3057.359 29369478 29413050 29455704 29497302 29538902 29581924 29627824 
3060.735 29677632 29731596 29788938 29848736 29909928 29972336 30036384 
3064.110 30103392 30174456 30250756 30332364 30418712 30508454 30599710 
3067.485 30690450 30778968 30863272 30941792 31013314 31077020 31132866 
3070.860 31181602 31224146 31261924 31296286 31328406 31359106 31388882 
3074.236 31418410 31448152 31478752 31510852 31544592 31580012 31616856 
3077.611 31654384 31692232 31730160 31767730 31805166 31842314 31879220 
3080.986 31915948 31952966 31990700 32029722 32070600 32113374 32157544 
3084.361 32202434 32247328 32292332 32338128 32386356 32439050 32497928 
3087.737 32563280 32634572 32709982 32787122 32863914 32939334 33013258 
3091.112 33086520 33160184 33235114 33311524 33389162 33467856 33547242 
3094.487 33627500 33709028 33792040 33876644 33962588 34049664 34137792 
3097.862 34227164 34318340 34412084 34508432 34607060 34706828 34806328 
3101.238 34904452 35000296 35093972 35186340 35278080 35370124 35462512 
3104.613 35555140 35647604 35739800 35831368 35922776 36014132 36105580 
3107.988 36197156 36288640 36380360 36472496 36565700 36660724 36758076 
3111.363 36857504 36958836 37060980 37163656 37266140 37368972 37472120 
3114.739 37575688 37679172 37781672 37882132 37979972 38074836 38167552 
3118.114 38259380 38351480 38445016 38540016 38636304 38733124 38830184 
3121.489 38927732 39026100 39126200 39228240 39331936 39435876 39538316 
3124.864 39637588 39732704 39823888 39912724 40001688 40093580 40190724 
3128.240 40294216 40403840 40517564 40632560 40745620 40854232 40957116 
3131.615 41054600 41148896 41243144 41340508 41443072 41551456 41664536 
3134.990 41780016 41894540 42006032 42113172 42215952 42315360 42413188 
3138.365 42510924 42609488 42709312 42810372 42912516 43015632 43120020 
3141.740 43225788 43333300 43442780 43554008 43667096 43781792 43897944 
3145.116 44015304 44133428 44251876 44369628 44485900 44599748 44711312 
3148.491 44820552 44928608 45036652 45145972 45257600 45372016 45489112 
3151.866 45607748 45726712 45844348 45959248 46070760 46179048 46285156 
3155.241 46390700 46497452 46606552 46718408 46832548 46947604 47062428 
3158.617 47176064 47288032 47398884 47509316 47620004 47731200 47842644 
3161.992 47953932 48064472 48174112 48282856 48391448 48500468 48610292 
3165.367 48720816 48831736 48942388 49052104 49160248 49266456 49370392 
3168.742 49471640 49570200 49666104 49759988 49852664 49945696 50040276 
3172.118 50137548 50238048 50341616 50447704 50555120 50662828 50769400 
3175.493 50873656 50974472 51070876 51162456 51249280 51332096 51412316 
3178.868 51491884 51572320 51655048 51741076 51830408 51923040 52018684 
3182.243 52116664 52216352 52316992 52417096 52515392 52610716 52702396 
3185.619 52790728 52876344 52960784 53045048 53129892 53215092 53300416 
3188.994 53385308 53469436 53553352 53637656 53722876 53809208 53895848 
3192.369 53981836 54066036 54147404 54225968 54302144 54376568 54449880 
3195.744 54522564 54594472 54666204 54737984 54810756 54885832 54964116 
3199.120 55045724 55129832 55215200 55299412 55381160 55459160 55533332 
3202.495 55604128 55672480 55739384 55805916 55872872 55940972 56010928 
3205.870 56082856 56156308 56230032 56302144 56371028 56435888 56497052 
3209.245 56556492 56616544 56679552 56746796 56817676 56890304 56962152 
3212.621 57030836 57095756 57157320 57217416 57278392 57341796 57408576 
3215.996 57478276 57550144 57622896 57695472 57767300 57837704 57906600 
3219.371 57973316 58037880 58100680 58162120 58223532 58286048 58350132 
3222.746 58416080 58483100 58550628 58617668 58684376 58750984 58818432 
3226.122 58887792 58959704 59034668 59112184 59191804 59272884 59354548 
3229.497 59435844 59515604 59592788 59666568 59736820 59804424 59870976 
3232.872 59938260 60007912 60080580 60155696 60232008 60307948 60382844 
3236.247 60456372 60529348 60602636 60677196 60753104 60829864 60906900 
3239.623 60983836 61061132 61139508 61219844 61302180 61385908 61469416 
3242.998 61551344 61630572 61707828 61784872 61864448 61948968 62039620 
3246.373 62136068 62236588 62338852 62440412 62540352 62638364 62735440 
3249.748 62832536 62930576 63029632 63129672 63230000 63330004 63429108 
3253.124 63526860 63622756 63716792 63808740 63898816 63987732 64076580 
3256.499 64166532 64257956 64350860 64444624 64537996 64629956 64719632 
3259.874 64807104 64892584 64976616 65059708 65141732 65222272 65300868 
3263.249 65376812 65450044 65520660 65589288 65656000 65721484 65786092 
3266.625 65850324 65914572 65979288 66044824 66111492 66178932 66246584 
3270.000 66314252 66381336 66447788 66513508 66578968 66644020 66708452 
3273.375 66772208 66834808 66896608 66958108 67020312 67084536 67151360 
3276.750 67221376 67294600 67370432 67448296 67527712 67608432 67690392 
3280.125 67773424 67857472 67942632 68028736 68115856 68204472 68294928 
3283.501 68388232 68485248 68586784 68693504 68805568 68923328 69046136 
3286.876 69172824 69302304 69433080 69564352 69695312 69826664 69959768 
3290.251 70096072 70237752 70386056 70541512 70704544 70874392 71050856 
3293.626 71233288 71421464 71614680 71812520 72014088 72218608 72425368 
3297.002 72634696 72847264 73064288 73286872 73515688 73750952 73992120 
3300.377 74238680 74489952 74746360 75008240 75276312 75551128 75832912 
3303.752 76121424 76416608 76718800 77027888 77344160 77667352 77996504 
3307.127 78330072 78666240 79004096 79343568 79685816 80032712 80386024 
3310.503 80746528 81113688 81486272 81862736 82242528 82626344 83015664 
3313.878 83412088 83816584 84228464 84645240 85063952 85481936 85897408 
3317.253 86310376 86721672 87132384 87543208 87953888 88363576 88771536 
3320.628 89177480 89581280 89983456 90384288 90782840 91178288 91568984 
3324.004 91954208 92333960 92708792 93079552 93446280 93807472 94160816 
3327.379 94503376 94832432 95146480 95445232 95729104 95998704 96253544 
3330.754 96492232 96712784 96913160 97091912 97248608 97382840 97494896 
3334.129 97584192 97650400 97693008 97712472 97710144 97688120 97648040 
3337.505 97590952 97516000 97420992 97303120 97159960 96990160 96793728 
3340.880 96572056 96326336 96057152 95764096 95446136 95101800 94730304 
3344.255 94331648 93906672 93456384 92982024 92484312 91964120 91422912 
3347.630 90862480 90285488 89694752 89092944 88482136 87863496 87237816 
3351.006 86605536 85967680 85325600 84680560 84034016 83387112 82740216 
3354.381 82094040 81449416 80807472 80170096 79539472 78917744 78306224 
3357.756 77706072 77117624 76541800 75979160 75431008 74898464 74382352 
3361.131 73882824 73398944 72929128 72471368 72023984 71585728 71156232 
3364.507 70736048 70325976 69927264 69541016 69167888 68808288 68462008 
3367.882 68128336 67806424 67495048 67192752 66898392 66610484 66327564 
3371.257 66047600 65768204 65487028 65201596 64910084 64612196 64308248 
3374.632 63999824 63688552 63375892 63062272 62746660 62427252 62102200 
3378.008 61769400 61427660 61076464 60715532 60344956 59964392 59573140 
3381.383 59171000 58757620 58333340 57899332 57456868 57007788 56553928 
3384.758 56096280 55635496 55172192 54706076 54237604 53766864 53294876 
3388.133 52822608 52351828 51883984 51420260 50961468 50507588 50058460 
3391.509 49614024 49174760 48741316 48315076 47896804 47486732 47083624 
3394.884 46685128 46288220 45890712 45491284 45090464 44690524 44294184 
3398.259 43904472 43522616 43148492 42780644 42416584 42054176 41691744 
3401.634 41329248 40967092 40606584 40248772 39894816 39545032 39199916 
3405.010 38859532 38523684 38191792 37863292 37537140 37212496 36888708 
3408.385 36565952 36244876 35927024 35613436 35305176 35002236 34704096 
3411.760 34410004 34119012 33830900 33545558 33263910 32986552 32714200 
3415.135 32446760 32184270 31926218 31671952 31420798 31172664 30927204 
3418.510 30684760 30445438 30210048 29979792 29755404 29537836 29326972 
3421.886 29122266 28921768 28723414 28525364 28325954 28124868 27922390 
3425.261 27719936 27519270 27321874 27128660 26939936 26755664 26575100 
3428.636 26397496 26221936 26047680 25874232 25701276 25528808 25357674 
3432.011 25188222 25021750 24859204 24701204 24547436 24397822 24251132 
3435.387 24106314 23962664 23819692 23677502 23536548 23397212 23259670 
3438.762 23123500 22988068 22852262 22714962 22575332 22433198 22289508 
3442.137 22145796 22003806 21865516 21732152 21603494 21478668 21355758 
3445.512 21232394 21107396 20980140 20851112 20721914 20594424 20469854 
3448.888 20348894 20231024 20115684 20001694 19889018 19777096 19666872 
3452.263 19558162 19451006 19344430 19237568 19129106 19018558 18906380 
3455.638 18793674 18682210 18573712 18469254 18369210 18272818 18178622 
3459.013 18084622 17988912 17890186 17787792 17682244 17575342 17469364 
3462.389 17366756 17269998 17179814 17095988 17016418 16938722 16860108 
3465.764 16778550 16693424 16605355 16515961 16426655 16338777 16252946 
3469.139 16168887 16086152 16004805 15924299 15844909 15766839 15689468 
3472.514 15612112 15534255 15455176 15375321 15295996 15218539 15145007 
3475.890 15076152 15012007 14951165 14892044 14832761 14772046 14709249 
3479.265 14644611 14578543 14511594 14444483 14378274 14314164 14253658 
3482.640 14198503 14149446 14106556 14068292 14032733 13997280 13960222 
3486.015 13920704 13879855 13839010 13800221 13765130 13733906 13706136 
3489.391 13680628 13656076 13631903 13607834 13583833 13560314 13537206 
3492.766 13514576 13492325 13470792 13450833 13433984 13421614 13414881 
3496.141 13414984 13422058 13436547 13458113 13486583 13521413 13561442 
3499.516 13604928 13649409 13692595 13732777 13769781 13804907 13841131 
3502.892 13882147 13931447 13990950 14061207 14140888 14227740 14319506 
3506.267 14413930 14509846 14606572 14703868 14802249 14902401 15005422 
3509.642 15112551 15225265 15344427 15470214 15601637 15737049 15874498 
3513.017 16012093 16148666 16283905 16417673 16549967 16680203 16807274 
3516.393 16929384 17044950 17152928 17253002 17345444 17431284 17510998 
3519.768 17584174 17649736 17705952 17750442 17781060 17796180 17794936 
3523.143 17776986 17742572 17692494 17626926 17546292 17449874 17337306 
3526.518 17207702 17060732 16897416 16719697 16531037 16334925 16134772 
3529.894 15933374 15732069 15531645 15331932 15133135 14934704 14736671 
3533.269 14537803 14337143 14133016 13924570 13711711 13495948 13279917 
3536.644 13067373 12861179 12662929 12472647 12288583 12108686 11931452 
3540.019 11755924 11582849 11413516 11249248 11090821 10937752 10788643 
3543.395 10641861 10495841 10349835 10204185 10059804 9918488 9782200 
3546.770 9652526 9530851 9417506 9311569 9211210 9113512 9015126 8913076 
3550.627 8805403 8692009 8575132 8458083 8345016 8239713 8143922 8057941 
3554.485 7980244 7908433 7840143 7773482 7707136 7640597 7573259 7504853 
3558.342 7435311 7364501 7292690 7220050 7147826 7077095 7009037 6944793 
3562.199 6885070 6829932 6778436 6728529 6676877 6619546 6552568 6472854 
3566.057 6379872 6276221 6167922 6062473 5967228 5886748 5822268 5771697 
3569.914 5730835 5695114 5660503 5623680 5583268 5538464 5489168 5436355 
3573.772 5381100 5324946 5269972 5217622 5169335 5125747 5085985 5048708 
3577.629 5011735 4973291 4931968 4887834 4841862 4795594 4751340 4710809 
3581.487 4675606 4646536 4623395 4605076 4589740 4574303 4555317 4529034 
3585.344 4492608 4443966 4383615 4314237 4241022 4170395 4108510 4059912 
3589.201 4026267 4006436 3997441 3994798 3993996 3990451 3980988 3963667 
3593.059 3938322 3906726 3871823 3836588 3804098 3775720 3751589 3730601 
3596.916 3711251 3691835 3671351 3649565 3626544 3603022 3580004 3558790 
3600.774 3540984 3527656 3520341 3519639 3525050 3535339 3547933 3559959 
3604.631 3567910 3568979 3560427 3540918 3510486 3470371 3423714 3374725 
3608.489 3328412 3289248 3259269 3238672 3224618 3212901 3199483 3181425 
3612.346 3158128 3131395 3105631 3084607 3071259 3065920 3066121 3068023 
3616.203 3066654 3058279 3039927 3011399 2974266 2931899 2889335 2850878 
3620.061 2820295 2800152 2790582 2790282 2797651 2810391 2826732 2845742 
3623.918 2867388 2891603 2917822 2944141 2966192 2977836 2971630 2941039 
3627.776 2883565 2804421 2716656 2637810 2583242 2559344 2562777 2583676 
3631.633 2610075 2632843 2645244 2645277 2634543 2617642 2599142 2583242 
3635.490 2572076 2565743 2563310 2563444 2565110 2568043 2572076 2576976 
3639.348 2582276 2587242 2591042 2593509 2595075 2597275 2602242 2612042 
3643.205 2628209 2650811 2678148 2707087 2732928 2750800 2756068 2745198 
3647.063 2716890 2672847 2616875 2554545 2492190 2436174 2391627 2363275 
3650.920 2353814 2363409 2390095 2429244 2473995 2516651 2549245 2565610 
3654.778 2562244 2539780 2503687 2463898 2430210 2409719 2405021 2413484 
3658.635 2430010 2448703 2464864 2475494 2479626 2477960 2472062 2463831 
3662.492 2455567 2449303 2446737 2449436 2457867 2472295 2491423 2513218 
3666.350 2535047 2553378 2564244 2564010 2549412 2520050 2478560 2433342 
3670.207 2395892 2377301 2384198 2415383 2462932 2513251 2550978 2562344 
3674.065 2537480 2475528 2387096 2294019 2220145 2180216 2175687 2195767 
3677.922 2227006 2256281 2276832 2287524 2291188 2292687 2296451 2304479 
3681.780 2316504 2331028 2346951 2364408 2384664 2408553 2435841 2463331 
3685.637 2485725 2496488 2489724 2462065 2414783 2354647 2291121 2234399 
3689.494 2191405 2164498 2152910 2153776 2164798 2184079 2209954 2240161 
3693.352 2271436 2299982 2322433 2336424 2342188 2341655 2339089 2338357 
3697.209 2342154 2350882 2362509 2373536 2380166 2379567 2370871 2356013 
3701.067 2338257 2322100 2311641 2309475 2316104 2330361 2350483 2374003 
3704.924 2399124 2424279 2448370 2470929 2491556 2510085 2526382 2539980 
3708.781 2549612 2554078 2551178 2538780 2516017 2483625 2445471 2407053 
3712.639 2375136 2354913 2349217 2357312 2375835 2399923 2424746 2446204 
3716.496 2461799 2470929 2474628 2474794 2473195 2471096 2468596 2465164 
3720.354 2460232 2453468 2445704 2438173 2432176 2428844 2427878 2428511 
3724.211 2429177 2428744 2427045 2424879 2424379 2428344 2439306 2457633 
3728.069 2482492 2510685 2538047 2560344 2574143 2578176 2573576 2564210 
3731.926 2554811 2549679 2549379 2551078 2548545 2535314 2507686 2467130 
3735.783 2420014 2377068 2347651 2336857 2344153 2365474 2396025 2432476 
3739.641 2473262 2518350 2567243 2616509 2659245 2684849 2680949 2638677 
3743.498 2557911 2453202 2351249 2282628 2264275 2294019 2355247 2426845 
3747.356 2490390 2532481 2547112 2534381 2500754 2455301 2407087 2362942 
3751.213 2326730 2300681 2287458 2289723 2308776 2343154 2388595 2437774 
3755.071 2483958 2521083 2545612 2556878 2556478 2547479 2532881 2514984 
3758.928 2495955 2478093 2464098 2457733 2461532 2475861 2498088 2523249 
3762.785 2545012 2557944 2559377 2550179 2535047 2520416 2512551 2514751 
3766.643 2526515 2544079 2562077 2575676 2582209 2581009 2574276 2565510 
3770.500 2558278 2555345 2557744 2564577 2574209 2584542 2593842 2601175 
3774.358 2606975 2612342 2619242 2628543 2640343 2652478 2661112 2662712 
3778.215 2654645 2637110 2614042 2592109 2577843 2575609 2585576 2603975 
3782.073 2624709 2641443 2649577 2647844 2637543 2622475 2606708 2593942 
3785.930 2585675 2582242 2582842 2586776 2593442 2602108 2611775 2621075 
3789.787 2628509 2632709 2634009 2633776 2633910 2636510 2642043 2648911 
3793.645 2653945 2653078 2643710 2625742 2602842 2581242 2568610 2570276 
3797.502 2586809 2614075 2644077 2666580 2671814 2653778 2611542 2552612 
3801.360 2490923 2443605 2424113 2436174 2474528 2527515 2581342 2622842 
3805.217 2643077 2638176 2611242 2572043 2534248 2510385 2506786 2522949 
3809.074 2553078 2589842 2627576 2663313 2697018 2730127 2763571 2796418 
3812.932 2824798 2843174 2845175 2826632 2788181 2736629 2684883 2647277 
3816.789 2633343 2645144 2675881 2714156 2745831 2758936 2745431 2703786 
3820.647 2640877 2571676 2514418 2482792 2481293 2505186 2544413 2587109 
3824.504 2623642 2648911 2661979 2666480 2668313 2674214 2687883 2709855 
3828.362 2736662 2763371 2785179 2798785 2803554 2801286 2796017 2791916 
3832.219 2792649 2800453 2815326 2835737 2858750 2880930 2897941 2905546 
3836.076 2900676 2881864 2850578 2811191 2770640 2736062 2712655 2702786 
3839.934 2704387 2713655 2725125 2734161 2737295 2733361 2723258 2709621 
3843.791 2696452 2687550 2686116 2693851 2710688 2734962 2764271 2796584 
3847.649 2830367 2865287 2901743 2939805 2978369 3013801 3039126 3045132 
3851.506 3021609 2960354 2860884 2734428 2604642 2498088 2434009 2416449 
3855.364 2437141 2481926 2537547 2595009 2648877 2696652 2738062 2773108 
3859.221 2802020 2825165 2843241 2857015 2867955 2876727 2883498 2886734 
3863.078 2884132 2874292 2857783 2838338 2822030 2815059 2821563 2839872 
3866.936 2864753 2886500 2896340 2887067 2857215 2812625 2765372 2729160 
3870.793 2712889 2717590 2736662 2760303 2778710 2785513 2780444 2767472 
3874.651 2754701 2749533 2756935 2777176 2806722 2839105 2867321 2885499 
3878.508 2889936 2880096 2859217 2834303 2813659 2804888 2812992 2837238 
3882.365 2873025 2911550 2943674 2960321 2956151 2930798 2891070 2848911 
3886.223 2817061 2805255 2816293 2845709 2884232 2921958 2949646 2961088 
3890.080 2954783 2933533 2904412 2875827 2855181 2846643 2851279 2866754 
3893.938 2890102 2918322 2948812 2979938 3010131 3037525 3060181 3076298 
3897.795 3083806 3082105 3071426 3053541 3030951 3006294 2981572 2957285 
3901.653 2933099 2907914 2880997 2852579 2824798 2800253 2782545 2774342 
3905.510 2776576 2788381 2807256 2830167 2853747 2875426 2893671 2907481 
3909.367 2917455 2924159 2929197 2934134 2940372 2949379 2961522 2977135 
3913.225 2994750 3013034 3029750 3042329 3049170 3049470 3043430 3032653 
3917.082 3019207 3005093 2992248 2982039 2975133 2972665 2975734 2985042 
3920.940 3000723 3021642 3045166 3068023 3086176 3096687 3098456 3092816 
3924.797 3082672 3072461 3065587 3063751 3066755 3073095 3080202 3086343 
3928.655 3090714 3093450 3095186 3096287 3096387 3094351 3089179 3080069 
3932.512 3067822 3054542 3042529 3034254 3031085 3032586 3037691 3044598 
3936.369 3051939 3059147 3066454 3074162 3082505 3091148 3098490 3102728 
3940.227 3102127 3095953 3084841 3070692 3056444 3045265 3039360 3039626 
3944.084 3045633 3055643 3067255 3078200 3086543 3091114 3091849 3089045 
3947.942 3083840 3077733 3071560 3066287 3061783 3058312 3055509 3053407 
3951.799 3052373 3052773 3055076 3059313 3065420 3072494 3079869 3086443 
3955.656 3092049 3096487 3100225 3103595 3107200 3111004 3115075 3118880 
3959.514 3122684 3126355 3129993 3133864 3138470 3143810 3150418 3158528 
3963.371 3168007 3179155 3192006 3205758 3219945 3233764 3246316 3257232 
3967.229 3266380 3274191 3281336 3288113 3294824 3300933 3305775 3308813 
3971.086 3309614 3308279 3305107 3301034 3296994 3293655 3291519 3290984 
3974.944 3292053 3294890 3299264 3304873 3311517 3318629 3325841 3332752 
3978.801 3339297 3345374 3350983 3355958 3359732 3361802 3361802 3359431 
3982.658 3355157 3349948 3344205 3338796 3333988 3329580 3325273 3320799 
3986.516 3316492 3312753 3310349 3309781 3311050 3314021 3317928 3321600 
3990.373 3324839 3327577 3329914 3332385 3335023 3337493 3339430 3340298 
3994.231 3339764 3338462 3336893 3336325 3337260 3339764 3342869 3345641 
3998.088 3346409 3344472 3339530 3332585 3324539 3317227 
##END=
