
##TITLE=mdmaHCL00398_4
##JCAMP-DX=5.01  $$ Nicolet v. 1
##DATATYPE=INFRARED SPECTRUM
##ORIGIN=UniL
##OWNER=Nicolet
##LONGDATE=2011/08/24
##TIME=09:40:28
##SPECTROMETER/DATA SYSTEM=Nicolet iS5
##DATA PROCESSING=
Ratio against background
%Transmittance->Absorbance
Truncated
ElementMultiply or ElementDivide
##COMMENTS=
Number of sample scans: 32
Collection length: 51.17 sec
Sample gain: 2.0
Background collected on: Mer Aout 24 09:38:59 2011 (GMT+02:00);
Number of background scans: 32
Background gain: 2.0
Sample spacing:  1.000
Number of scan points: 12415
Resolution points: 8192
Number of FFT points: 65536
Apodization: N-B fort;
Phase correction: Mertz;
Laser frequency: 15798.0 cm-1
Number of rejected sample scans: 0
Number of rejected background scans: 0
Bench serial number: ASB1000141;
##RESOLUTION=4.000
##XUNITS=1/CM
##YUNITS=ABSORBANCE
##FIRSTX=649.893372
##LASTX=4000.122314
##FIRSTY=0.092648
##MAXX=4000.122314
##MINX=649.893372
##MAXY=0.231349
##MINY=-0.000085
##XFACTOR=1.000000
##YFACTOR=1.000000E-009
##NPOINTS=6950
##DELTAX=0.482117
##ZPD=6100
##XYDATA=(X++(Y..Y))
649.893 92648288 91862456 91145472 90510136 89949752 89448824 88994712 
653.268 88588456 88241272 87969632 87781528 87670904 87616616 87594968 
656.643 87589096 87598008 87634664 87716928 87854896 88043152 88261128 
660.018 88481160 88683136 88860200 89020584 89178328 89345992 89525280 
663.393 89709464 89887024 90049616 90195352 90324240 90432640 90505568 
666.767 90515688 90435576 90259792 90023528 89789192 89616952 89533672 
670.142 89526464 89555416 89569424 89526056 89399480 89190096 88918592 
673.517 88615712 88304568 87990520 87662144 87301368 86896040 86448472 
676.892 85974304 85493912 85021760 84558400 84092400 83607304 83093896 
680.267 82553480 82000504 81452336 80922744 80415248 79924168 79439200 
683.642 78952032 78461360 77971208 77486040 77007544 76531200 76050720 
687.016 75563000 75073744 74597824 74154176 73759784 73419984 73127608 
690.391 72865720 72616992 72370680 72128344 71902088 71709448 71565920 
693.766 71478688 71447160 71465992 71529784 71636792 71790088 71992960 
697.141 72246112 72544976 72880920 73244584 73631552 74044488 74492592 
700.516 74985600 75527784 76114440 76730976 77358256 77976752 78573912 
703.890 79144456 79687400 80202736 80686520 81131776 81530800 81879544 
707.265 82180744 82442184 82674400 82885000 83077808 83254208 83418440 
710.640 83581432 83763344 83987056 84270424 84615928 85005480 85401216 
714.015 85752792 86014168 86153984 86163120 86054968 85860056 85617584 
717.390 85366168 85145416 84995680 84957648 85077008 85396696 85944896 
720.765 86725152 87702008 88799944 89901128 90869344 91574504 91909208 
724.139 91822136 91325424 90497320 89459168 88354600 87320000 86448800 
727.514 85787712 85334632 85054960 84898296 84818168 84784904 84784216 
730.889 84813544 84873400 84960472 85066928 85183584 85304304 85429856 
734.264 85566096 85720336 85895312 86086312 86281928 86469624 86641656 
737.639 86798552 86948656 87104168 87274872 87463280 87665152 87871656 
741.013 88075904 88275256 88472184 88670616 88872312 89073656 89267000 
744.388 89444056 89601640 89743392 89880376 90025120 90186136 90365040 
747.763 90555928 90749480 90938136 91119312 91296272 91474000 91655480 
751.138 91838464 92015960 92180424 92327808 92460816 92587392 92717856 
754.513 92858496 93009688 93165976 93320448 93469168 93614120 93762032 
757.888 93920536 94092760 94275336 94458648 94631944 94788944 94931992 
761.262 95071040 95219208 95387528 95580808 95797224 96032352 96286088 
764.637 96567248 96897792 97309792 97837176 98509600 99339392 100313088 
768.012 101382112 102463680 103448752 104206904 104619368 104602752 
770.905 104129584 103245456 102062360 100742800 99447192 98309360 97407056 
774.279 96750136 96293952 95961552 95676568 95375184 95017016 94581688 
777.654 94052184 93405848 92611832 91631208 90430648 88991904 87315744 
781.029 85421632 83342552 81122400 78808160 76450784 74106104 71826552 
784.404 69659992 67644480 65800704 64135188 62641844 61308440 60121336 
787.779 59070196 58148520 57352120 56677440 56119544 55672368 55330800 
791.154 55091612 54955432 54925724 55007212 55204472 55520644 55956768 
794.528 56513432 57191336 57991948 58918452 59975232 61168804 62510008 
797.903 64015144 65710924 67636144 69835960 72360232 75247632 78508408 
801.278 82103008 85923256 89792200 93445504 96571592 98859640 100025824 
804.653 99898152 98450240 95822136 92289408 88210824 83964992 79839456 
808.028 76005480 72496072 69232976 66078388 62895992 59611028 56224672 
811.402 52814116 49493436 46389044 43599432 41176876 39132832 37443440 
814.777 36067452 34955080 34060308 33342864 32765504 32297648 31913630 
818.152 31593728 31326804 31107202 30932646 30801306 30708764 30648420 
821.527 30613860 30601700 30612828 30652578 30727968 30844880 31005164 
824.902 31207128 31447082 31721498 32029078 32370538 32747496 33160578 
828.277 33609528 34094460 34619512 35195896 35844900 36599980 37501268 
831.651 38594948 39927580 41533116 43425968 45583168 47936912 50356128 
835.026 52648268 54590264 55933244 56464528 56057900 54695892 52487832 
838.401 49637500 46419792 43108204 39932372 37067224 34604696 32571278 
841.776 30944460 29675112 28703202 27968150 27419732 27013976 26714330 
845.151 26494652 26335600 26225668 26160384 26137088 26152958 26203002 
848.525 26279170 26372850 26477606 26590704 26713238 26848282 26999484 
851.900 27167916 27353562 27555634 27774718 28013702 28278140 28573594 
855.275 28904558 29273128 29679652 30124450 30610554 31143866 31734898 
858.650 32397564 33146952 34001932 34984852 36121316 37441416 38972528 
862.025 40729932 42705184 44854864 47096032 49300496 51320312 53003344 
865.400 54213656 54867596 54941968 54484324 53600544 52445924 51202304 
868.774 50037932 49105152 48517064 48338404 48596136 49280524 50356128 
872.149 51763024 53422068 55239580 57095940 58858272 60389924 61552528 
875.524 62238652 62383912 61977096 61062924 59732944 58113368 56332888 
878.899 54515468 52762032 51133604 49656300 48320596 47093592 45929784 
882.274 44787636 43643392 42495868 41367988 40297524 39330956 38507756 
885.648 37853100 37376808 37072564 36925612 36916444 37028724 37249968 
889.023 37571644 37988292 38495772 39091464 39774824 40549064 41421856 
892.398 42403980 43508736 44749656 46137964 47683048 49389880 51256700 
895.773 53268312 55388916 57557788 59677896 61627520 63273384 64479872 
899.148 65144816 65213068 64685984 63620492 62119056 60317124 58352216 
902.523 56358880 54455176 52724580 51225756 49988932 49021464 48316076 
905.897 47857736 47630136 47618484 47812164 48204956 48792584 49573280 
909.272 50545704 51710096 53067172 54618332 56361220 58287336 60376596 
912.647 62592932 64888768 67206056 69484360 71676304 73751416 75704304 
916.022 77554008 79342056 81123512 82952056 84871992 86898264 89005288 
919.397 91111992 93084192 94751072 95912000 96390904 96072160 94932280 
922.771 93063752 90672272 88070104 85605880 83641648 82502600 82401968 
926.146 83427264 85502024 88401752 91752592 95086056 97943912 99902944 
929.521 100678248 100164096 98420072 95638248 92066912 87973480 83578944 
932.896 79044320 74487944 69990520 65619656 61447624 57547192 53991964 
936.271 50849632 48167672 45975972 44285340 43090896 42375740 42109848 
939.646 42250168 42730408 43458564 44326292 45202444 45956596 46478976 
943.020 46684504 46533188 46030380 45224912 44195712 43036780 41847764 
946.395 40710976 39687900 38816524 38109888 37563840 37162500 36886216 
949.770 36714768 36629140 36613496 36651676 36728688 36831248 36948228 
953.145 37073320 37205204 37346804 37503256 37678920 37876344 38095236 
956.520 38333928 38590712 38865220 39158432 39471728 39805440 40158376 
959.894 40527460 40909240 41301040 41702172 42113352 42535480 42968736 
963.269 43411580 43861508 44316016 44774632 45239212 45713720 46202524 
966.644 46709040 47234832 47779944 48344040 48927664 49532948 50162804 
970.019 50819792 51504640 52216724 52954792 53719464 54514336 55346644 
973.394 56225316 57159132 58152536 59206652 60318688 61485336 62704660 
976.768 63978248 65310264 66706292 68170824 69706792 71316296 73002584 
980.143 74771864 76634440 78602264 80687160 82897632 85236480 87700096 
983.518 90277208 92949024 95683296 98427888 101111832 103635256 105876600 
986.893 107713856 109027368 109727936 109772008 109165512 107967216 
989.786 106276312 104231888 101988856 99701144 97519896 95565320 93923784 
993.160 92648008 91754064 91232000 91054376 91188960 91604448 92274536 
996.535 93180184 94304728 95631800 97144712 98824648 100651720 102606040 
999.910 104662288 106786056 108931216 111031264 113006360 114773224 
1002.803 116249088 117372232 118109144 118459160 118454760 118158208 
1005.695 117659432 117060104 116471944 116008216 115763672 115816320 
1008.588 116218952 116995848 118150240 119668992 121532128 123715736 
1011.481 126195800 128948960 131947264 135159760 138555760 142103936 
1014.374 145779376 149560272 153418672 157310464 161161296 164852240 
1017.266 168235440 171141728 173405344 174909392 175602640 175524208 
1020.159 174796464 173627728 172286480 171048368 170196064 169969504 
1023.052 170533280 171983488 174331952 177522992 181442224 185944976 
1025.945 190877728 196075712 201384288 206653248 211723728 216445696 
1028.838 220676400 224289280 227196896 229348048 230728080 231348512 
1031.731 231236080 230426032 228956528 226875952 224241616 221114192 
1034.624 217557328 213626640 209366336 204817072 200021776 195035584 
1037.517 189936224 184817552 179781008 174933088 170364768 166150304 
1040.410 162347056 158986560 156075776 153588672 151463792 149598112 
1043.303 147849344 146065088 144089712 141800032 139134144 136096416 
1046.196 132762016 129253072 125730304 122358256 119280240 116618928 
1049.089 114455656 112831288 111751952 111192976 111107944 111433936 
1051.982 112106872 113064088 114247456 115608712 117100712 118671264 
1054.875 120262064 121799680 123198192 124373216 125239968 125727728 
1057.768 125789656 125401976 124571456 123334000 121760472 119950296 
1060.661 118021440 116111840 114353200 112861368 111735288 111041192 
1063.554 110817816 111078032 111810544 112981136 114529672 116376728 
1066.448 118417072 120524512 122573896 124438872 126012728 127221432 
1069.341 128018376 128385992 128327760 127861112 127011640 125807760 
1072.234 124282336 122468320 120398056 118107840 115636344 113031248 
1075.127 110355936 107685240 105108184 102723896 100623312 98890144 97590288 
1078.502 96764080 96427272 96566504 97141680 98078528 99271424 100595240 
1081.877 101898808 103031936 103869792 104321024 104354608 104000824 
1084.770 103350456 102533240 101698920 101006584 100592400 100566088 
1087.663 101004280 101939736 103364288 105226384 107442616 109896984 
1090.556 112453240 114980024 117347960 119446976 121195128 122528600 
1093.449 123404736 123799544 123704240 123128184 122097856 120659528 
1096.343 118874272 116814616 114567544 112221800 109866472 107586704 
1099.236 105445848 103480072 101689088 100036088 98451864 96848848 95148376 
1102.611 93291528 91259272 89075856 86806840 84545880 82392712 80450024 
1105.986 78803352 77513840 76622416 76145504 76080056 76406384 77092896 
1109.361 78099296 79376304 80873088 82534408 84298792 86102832 87874496 
1112.737 89532416 90997576 92191400 93047496 93522552 93595872 93272144 
1116.112 92575704 91548408 90242496 88713128 87020792 85221448 83362704 
1119.487 81483632 79609704 77754736 75925208 74124696 72358744 70638848 
1122.862 68981472 67406888 65936284 64586624 63371024 62298272 61374040 
1126.238 60604084 59995816 59558128 59301332 59234452 59362448 59684548 
1129.613 60191624 60866416 61679912 62593392 63559808 64521044 65419184 
1132.988 66201432 66827156 67279048 67565496 67722184 67801928 67871032 
1136.363 67997072 68233672 68618480 69163616 69855304 70652728 71492744 
1139.739 72301600 72995016 73494144 73735792 73671720 73276040 72542008 
1143.114 71478880 70108416 68461936 66582024 64517348 62323248 60060148 
1146.489 57784180 55548468 53399064 51370136 49487980 47769996 46225704 
1149.864 44858832 43668084 42648160 41790340 41083300 40515420 40074608 
1153.240 39750496 39534872 39421544 39405472 39482796 39649276 39901500 
1156.615 40236956 40654536 41154324 41737992 42406316 43159100 43993892 
1159.990 44906304 45890820 46941032 48049112 49205748 50396200 51599780 
1163.365 52790280 53933852 54993676 55933964 56718820 57317296 57704172 
1166.740 57859508 57771652 57438828 56869604 56082780 55105720 53972492 
1170.116 52717024 51373940 49975996 48551560 47127420 45728664 44376416 
1173.491 43090236 41886152 40776080 39768544 38869096 38080772 37405952 
1176.866 36846216 36403420 36078936 35874052 35789812 35827340 35988324 
1180.241 36276140 36695512 37251772 37950068 38794636 39787136 40927408 
1183.617 42212444 43636612 45187736 46844392 48574160 50326772 52036352 
1186.992 53629296 55022408 56138396 56915572 57309276 57301720 56901976 
1190.367 56146236 55091424 53808568 52379376 50879764 49379044 47936728 
1193.742 46596484 45391328 44345152 43472512 42781960 42275768 41949356 
1197.118 41790196 41776480 41879912 42062316 42279752 42487392 42636752 
1200.493 42682956 42588656 42323796 41873232 41237788 40435876 39499412 
1203.868 38470680 37398080 36325600 35291952 34327664 33451892 32676044 
1207.243 32004752 31437572 30970754 30598360 30312716 30105202 29967080 
1210.619 29891436 29873476 29911206 30005352 30157266 30368394 30638534 
1213.994 30965880 31347104 31777714 32252036 32763180 33302330 33857372 
1217.369 34415240 34961080 35480924 35963880 36401656 36789052 37123704 
1220.744 37404472 37632196 37809828 37944068 38045140 38126528 38204708 
1224.120 38295928 38414064 38570216 38770476 39016460 39305132 39629532 
1227.495 39979164 40340788 40700784 41047568 41374292 41681716 41979204 
1230.870 42284972 42621108 43013840 43488848 44068292 44773384 45622360 
1234.245 46631488 47816380 49190160 50762288 52538352 54519296 56701412 
1237.621 59077108 61635228 64359540 67225120 70200040 73242592 76304104 
1240.996 79338480 82302672 85162944 87896648 90487536 92921976 95185960 
1244.371 97260136 99118952 100732104 102060800 103060464 103684312 103882800 
1247.746 103614608 102852776 101588928 99835680 97622936 94994048 91996800 
1251.122 88683704 85113888 81349384 77462120 73532840 69639728 65861820 
1254.497 62270624 58920728 55855200 53100312 50665356 48545112 46720256 
1257.872 45160384 43823168 42659888 41619716 40648860 39701188 38740224 
1261.247 37740788 36692592 35597612 34468756 33325046 32189336 31085632 
1264.623 30034644 29053748 28155482 27346080 26626918 25994382 25441598 
1267.998 24959526 24538844 24172130 23853680 23580134 23349518 23160752 
1271.373 23012454 22903534 22832948 22800752 22808050 22857676 22952156 
1274.748 23093552 23282044 23514790 23785216 24081656 24388112 24682860 
1278.124 24939978 25133240 25238332 25237630 25124850 24905482 24595960 
1281.499 24218514 23799146 23360918 22921416 22493738 22086212 21704808 
1284.874 21355374 21043850 20776308 20558396 20394350 20287160 20239736 
1288.249 20255082 20337610 20492536 20724696 21037000 21429896 21899878 
1291.625 22439410 23036492 23675332 24333406 24983072 25593962 26132584 
1295.000 26570836 26890406 27085490 27165340 27152008 27077592 26976390 
1298.375 26882580 26827030 26833128 26918396 27092332 27355608 27698040 
1301.750 28097896 28525046 28940504 29303506 29578802 29738090 29765446 
1305.125 29658260 29425992 29088008 28670248 28204520 27722548 27253708 
1308.501 26823858 26450526 26143210 25903984 25729188 25612484 25547362 
1311.876 25529194 25555338 25623942 25733020 25879402 26058692 26266850 
1315.251 26500712 26758906 27041622 27349468 27682570 28040422 28422412 
1318.626 28828494 29259978 29719354 30208520 30726972 31268794 31822524 
1322.002 32370504 32889184 33354134 33740864 34028876 34207156 34275740 
1325.377 34249748 34156900 34037656 33938012 33900000 33958612 34133100 
1328.752 34425428 34821904 35299104 35830436 36390448 36961108 37531216 
1332.127 38095488 38653364 39206916 39760192 40318608 40887904 41473216 
1335.503 42076592 42695824 43323304 43946996 44550920 45117332 45628764 
1338.878 46067220 46415920 46661888 46795752 46815460 46726672 46542780 
1342.253 46282428 45967648 45622328 45268268 44925556 44611644 44339572 
1345.628 44119456 43957372 43854436 43805796 43798576 43812760 43820568 
1349.004 43790404 43693224 43505624 43215868 42827048 42357952 41842000 
1352.379 41321960 40850264 40478140 40249828 40199084 40340388 40666980 
1355.754 41149152 41740840 42383704 43013732 43574776 44018604 44310216 
1359.129 44432348 44383536 44180600 43855132 43456548 43045964 42686176 
1362.505 42438796 42347104 42427652 42667164 43025180 43443508 43848388 
1365.880 44165892 44325740 44266260 43950224 43369836 42553680 41559148 
1369.255 40465192 39356640 38302300 37354568 36542956 35876532 35352800 
1372.630 34964344 34704492 34569240 34555572 34657804 34864200 35157740 
1376.006 35520116 35934404 36390340 36884272 37418088 37998092 38633084 
1379.381 39336796 40126140 41022696 42048044 43214916 44515932 45911668 
1382.756 47331812 48670440 49800972 50601468 50954540 50773832 50020164 
1386.131 48720260 46979572 44967816 42899348 40967456 39304988 37974296 
1389.507 36969944 36246172 35738040 35382600 35123752 34912852 34711204 
1392.882 34484220 34203536 33851388 33423730 32932110 32398064 31845774 
1396.257 31292188 30743402 30198432 29655636 29119610 28606754 28142896 
1399.632 27754832 27464062 27278476 27193384 27195816 27270818 27405086 
1403.008 27588220 27814174 28077996 28375046 28699982 29046450 29408724 
1406.383 29783472 30170834 30573898 30997870 31448118 31927646 32437048 
1409.758 32973468 33532028 34108328 34698320 35298888 35906620 36515816 
1413.133 37118288 37704828 38267484 38803732 39318624 39825448 40342788 
1416.509 40892564 41496076 42169360 42920268 43742472 44612416 45491284 
1419.884 46332860 47095036 47745216 48263936 48645240 48894808 49032556 
1423.259 49091392 49116988 49155092 49241408 49394784 49613948 49886040 
1426.634 50194716 50528584 50882224 51256292 51654676 52083828 52553868 
1430.010 53079004 53680096 54381040 55200296 56146312 57212612 58382612 
1433.385 59633456 60948532 62323248 63762376 65275372 66863872 68511200 
1436.760 70178968 71821864 73406168 74915080 76344680 77687560 78925448 
1440.135 80018608 80908168 81530528 81818008 81711896 81171200 80171368 
1443.510 78712904 76824056 74568272 72038296 69341216 66597932 63918360 
1446.886 61394568 59100532 57080524 55346460 53875780 52623692 51535680 
1450.261 50565208 49690436 48917912 48280008 47815752 47555784 47502000 
1453.636 47624072 47857440 48112404 48291228 48291708 48043116 47540664 
1457.011 46868788 46173556 45597484 45237636 45128988 45269184 45641424 
1460.387 46222644 46985664 47892736 48897592 49937408 50931400 51795056 
1463.762 52443528 52817256 52903668 52745120 52423976 52027984 51634036 
1467.137 51290332 51018592 50823776 50698272 50626004 50580060 50524708 
1470.512 50415660 50204832 49857496 49368868 48777720 48155900 47584956 
1473.888 47129416 46820480 46665796 46660632 46798112 47071696 47472728 
1477.263 47986124 48586092 49238252 49906260 50551772 51143296 51660684 
1480.638 52095784 52455792 52760720 53042016 53335856 53681968 54125824 
1484.013 54714232 55495792 56514300 57795952 59337568 61091492 62968836 
1487.389 64829832 66494428 67770752 68458208 68391144 67482584 65748968 
1490.764 63321376 60402832 57222480 53969792 50765380 47679536 44735512 
1494.139 41939972 39311988 36889104 34732560 32915312 31496886 30504118 
1497.514 29924766 29722264 29847742 30253990 30901124 31751048 32764826 
1500.890 33903404 35122424 36376576 37623488 38812320 39884684 40767748 
1504.265 41354248 41504828 41059696 39884500 37958240 35439864 32638426 
1507.640 29865346 27316652 25047760 23026500 21196834 19516710 17966154 
1511.015 16548453 15277051 14160674 13200086 12384339 11696012 11115941 
1514.391 10626343 10211308 9854253 9539691 9255853 8998043 8770915 8584561 
1518.248 8447677 8360216 8310497 8275915 8232149 8162592 8070261 7978928 
1522.105 7922437 7924698 7988074 8096388 8224990 8353495 8470313 8577531 
1525.963 8686906 8813417 8966043 9144439 9340819 9546600 9757970 9977952 
1529.820 10214260 10474558 10761844 11072908 11398889 11729099 12056425 
1533.196 12380998 12710659 13053442 13414027 13788387 14167315 14537803 
1536.571 14888410 15210886 15498439 15746085 15947122 16093234 16173461 
1539.946 16180167 16116753 15998857 15848689 15685415 15517360 15338695 
1543.321 15134131 14887964 14592249 14254001 13893745 13538743 13210298 
1546.697 12915245 12645463 12383691 12112945 11824016 11521838 11222760 
1550.072 10948693 10715313 10525679 10371383 10239126 10117794 10003041 
1553.447 9899097 9814938 9758648 9731844 9728252 9734521 9733877 9705584 
1557.304 9624645 9465963 9213105 8877734 8506703 8164786 7898918 7721538 
1561.162 7619420 7567460 7539442 7512034 7468446 7401371 7313615 7217253 
1565.019 7128222 7060223 7017657 6995635 6982166 6964826 6933750 6886281 
1568.877 6826634 6765143 6713487 6680746 6671628 6686904 6725298 6783956 
1572.734 6857837 6939709 7018162 7080160 7114143 7115456 7091274 7060020 
1576.592 7044395 7058337 7102220 7165341 7233593 7295049 7343303 7377442 
1580.449 7400056 7414717 7423043 7424829 7418594 7403730 7382362 7359445 
1584.306 7340169 7328948 7326791 7331206 7338282 7344651 7349976 7356581 
1588.164 7368140 7387654 7416167 7453176 7497369 7549051 7610147 7684033 
1592.021 7772471 7874151 7983214 8090785 8188422 8270410 8336471 8390956 
1595.879 8441190 8493998 8553876 8622920 8702354 8794650 8904823 9040228 
1599.736 9208705 9416591 9666959 9959813 10293476 10665868 11074403 11514693 
1603.594 11978862 12452700 12915416 13343669 13711472 13994919 14176421 
1606.969 14245270 14200317 14049639 13810141 13503878 13154114 12785281 
1610.344 12419217 12074106 11764605 11498634 11277064 11094186 10940131 
1613.719 10801891 10666343 10522285 10361712 10182306 9990395 9801042 
1617.094 9634639 9509311 9436028 9416016 9442360 9503080 9584029 9672143 
1620.952 9756749 9832968 9902623 9974290 10059804 10169382 10307964 10473710 
1624.809 10661046 10863514 11077020 11298692 11526533 11757149 11985504 
1628.185 12205936 12414580 12611420 12799785 12984850 13171156 13359318 
1631.560 13546435 13725082 13886321 14021200 14120966 14179125 14192306 
1634.935 14162180 14097246 14012302 13924741 13847391 13785890 13737462 
1638.310 13694613 13646434 13582603 13496871 13388227 13262460 13129729 
1641.686 13001067 12884389 12780504 12684184 12584952 12470704 12329624 
1645.061 12154821 11945927 11711942 11470021 11242991 11053568 10916957 
1648.436 10839597 10818502 10844082 10900580 10965854 11011968 11002419 
1651.811 10899527 10682134 10372300 10042442 9774304 9612517 9548836 9548125 
1655.669 9572241 9594767 9601813 9589550 9561504 9524315 9484182 9444222 
1659.526 9403183 9356426 9297860 9221667 9124441 9006905 8874488 8737647 
1663.384 8608387 8498053 8413725 8356500 8322082 8301007 8281858 8251295 
1667.241 8197200 8111546 7992157 7844597 7681065 7517900 7369488 7245992 
1671.098 7150958 7082248 7033046 6992806 6949203 6888167 6798092 6674387 
1674.956 6524582 6368238 6228051 6121546 6052662 6013253 5988493 5964305 
1678.813 5931991 5891182 5849066 5815685 5798593 5796981 5800138 5788016 
1682.671 5738289 5633616 5474673 5286172 5108983 4978352 4905461 4880798 
1686.528 4884919 4899797 4912062 4914676 4904858 4883076 4851110 4812948 
1690.385 4774388 4742329 4723705 4723336 4740989 4770602 4799447 4811943 
1694.243 4792947 4734960 4645665 4548788 4475132 4444702 4458930 4500609 
1698.100 4543900 4558666 4520496 4420066 4273579 4120552 4002690 3943839 
1701.958 3940896 3974869 4022287 4063691 4085230 4079645 4047738 3997073 
1705.815 3940228 3888538 3849224 3823819 3809212 3800354 3792532 3783541 
1709.673 3773982 3766662 3765225 3772578 3789424 3814025 3842773 3870954 
1713.530 3895225 3912844 3922407 3922975 3912343 3887803 3847285 3791830 
1717.387 3728462 3669814 3630386 3619494 3639474 3685219 3747411 3816131 
1721.245 3883022 3943204 3994966 4039744 4080414 4120619 4163704 4211646 
1725.102 4266083 4327690 4395932 4468504 4540920 4607387 4661406 4698751 
1728.960 4719250 4727322 4730772 4736032 4746315 4757068 4756130 4726116 
1732.817 4651124 4525183 4362362 4194784 4060948 3985803 3970990 4002089 
1736.675 4057303 4116839 4164507 4190903 4193479 4176986 4150926 4125937 
1740.532 4110484 4107306 4114765 4128145 4142362 4153201 4158017 4156479 
1744.389 4149922 4140388 4129684 4118980 4108142 4095398 4078675 4054828 
1748.247 4021418 3976072 3917525 3845413 3761215 3668745 3574391 3486470 
1752.104 3412593 3357895 3323470 3306309 3299932 3296126 3287245 3267515 
1755.962 3235667 3195143 3153255 3117578 3092583 3078267 3070025 3061282 
1759.819 3044965 3016437 2974299 2921391 2863452 2807956 2761537 2728693 
1763.677 2710988 2707921 2716256 2731694 2747966 2759303 2760703 2750800 
1767.534 2732027 2711088 2695251 2689017 2691417 2696351 2693984 2674714 
1771.391 2633710 2574209 2507919 2449836 2411451 2396192 2400190 2415383 
1775.249 2433409 2449669 2462798 2474161 2485491 2497555 2508519 2515751 
1779.106 2516617 2510719 2500654 2490990 2485958 2487591 2494622 2503120 
1782.964 2508852 2508886 2502854 2492923 2483026 2476661 2475694 2480593 
1786.821 2490757 2506153 2526882 2553078 2583642 2614975 2641277 2654845 
1790.678 2648677 2619975 2571076 2511685 2454134 2409919 2385764 2381566 
1794.536 2393026 2413584 2437740 2461199 2481493 2497588 2508919 2515018 
1798.393 2515584 2510452 2500254 2486058 2469963 2454034 2440473 2431243 
1802.251 2427978 2431543 2442505 2459999 2482359 2506186 2528282 2545446 
1806.108 2555978 2560011 2559511 2556778 2553712 2550945 2547579 2541646 
1809.966 2531881 2518350 2503187 2489990 2482292 2482559 2491057 2505820 
1813.823 2524016 2542280 2558478 2571343 2581776 2590542 2599608 2609975 
1817.680 2622475 2636843 2652445 2668680 2684949 2700686 2716623 2733461 
1821.538 2751934 2772274 2793350 2813392 2829900 2840940 2846910 2850645 
1825.395 2857215 2871524 2896640 2931398 2970763 3006561 3029917 3034955 
1829.253 3020541 2992215 2960021 2935868 2927996 2939037 2966393 3004259 
1833.110 3046567 3088078 3126289 3160498 3191538 3220646 3249254 3278832 
1836.968 3310783 3347177 3390520 3443051 3506244 3580204 3663532 3753461 
1840.825 3846617 3938990 4025932 4102924 4166180 4213653 4247346 4273244 
1844.682 4300249 4336726 4387297 4451196 4523074 4593926 4653770 4695368 
1848.540 4714225 4710440 4687329 4649550 4601661 4546076 4483368 4413605 
1852.397 4336893 4254908 4170663 4087304 4007740 3933306 3864167 3799852 
1856.255 3739658 3683247 3630119 3579269 3529092 3477653 3423647 3367545 
1860.112 3311784 3259970 3215872 3181625 3156793 3138570 3123085 3107834 
1863.969 3091782 3076698 3064953 3057979 3054975 3052306 3044665 3028048 
1867.827 3000823 2966659 2932599 2906413 2894238 2897607 2913752 2937603 
1871.684 2963690 2988044 3007762 3021943 3029950 3031252 3025780 3013868 
1875.542 2996786 2977002 2957485 2940405 2926895 2916454 2907514 2898675 
1879.399 2889269 2879896 2871924 2866121 2862152 2858249 2852079 2841373 
1883.257 2825965 2807956 2790748 2778076 2772374 2773341 2778477 2784112 
1887.114 2786246 2782378 2772007 2756168 2737562 2719257 2703720 2693151 
1890.971 2688450 2689617 2695818 2705454 2716056 2725959 2733694 2738896 
1894.829 2742497 2745865 2749866 2754168 2757502 2757769 2753434 2744831 
1898.686 2733694 2723191 2716790 2716990 2723892 2736295 2752034 2768406 
1902.544 2784179 2798385 2810391 2819728 2825165 2825431 2820496 2811825 
1906.401 2801286 2792416 2787447 2787080 2790248 2794050 2796084 2794650 
1910.259 2789848 2783145 2776409 2770740 2766505 2763604 2762704 2764638 
1914.116 2770940 2783012 2799552 2817027 2830367 2834669 2827633 2811258 
1917.973 2792149 2778210 2775409 2784479 2800986 2817161 2824664 2819028 
1921.831 2800986 2776909 2755368 2744531 2748566 2767039 2795650 2828933 
1925.688 2862318 2893171 2920190 2942140 2957385 2963824 2959987 2946210 
1929.546 2925294 2901877 2881163 2867021 2860351 2859450 2861851 2865187 
1933.403 2868689 2873525 2880063 2888068 2895339 2898575 2895406 2885933 
1937.260 2873759 2865020 2865454 2878228 2901977 2931899 2961188 2984241 
1941.118 2998554 3005327 3007329 3008330 3008964 3007896 3002791 2992649 
1944.975 2979037 2966559 2961388 2968628 2990247 3024812 3067822 3114274 
1948.833 3159497 3200584 3236268 3265244 3285976 3298129 3301401 3297728 
1952.690 3290918 3285776 3285976 3293021 3304673 3316158 3322368 3319464 
1956.548 3307110 3287679 3264744 3241409 3218843 3196912 3174149 3151486 
1960.405 3131161 3116677 3110703 3113841 3122317 3130527 3131662 3122951 
1964.262 3103929 3078334 3051639 3029116 3013268 3004092 3000622 3001457 
1968.120 3006862 3016837 3030751 3045933 3057144 3060114 3051272 3031485 
1971.977 3005327 2980505 2963624 2959353 2969228 2992415 3029817 3084774 
1975.835 3162200 3267381 3399870 3550873 3703665 3837491 3934410 3984667 
1979.692 3989214 3956344 3899939 3832510 3762652 3694676 3629116 3565839 
1983.550 3505877 3452102 3407350 3373690 3351651 3338829 3333053 3332852 
1987.407 3338662 3351083 3371285 3396597 3421911 3440713 3447259 3439511 
1991.264 3420408 3396597 3376261 3365442 3366243 3376728 3392390 3409087 
1995.122 3424415 3439344 3456043 3476316 3500933 3527823 3554581 3578166 
1998.979 3597644 3612077 3623203 3630286 3632257 3626678 3610105 3581507 
2002.837 3541886 3495121 3446190 3401974 3368313 3348813 3346208 3361468 
2006.694 3393725 3440212 3496858 3556952 3613280 3658921 3690165 3705503 
2010.552 3706840 3698318 3684484 3668946 3654176 3642214 3634329 3633226 
2014.409 3641847 3661594 3693440 3734812 3781703 3828800 3871823 3907863 
2018.266 3935780 3955642 3967780 3972728 3971190 3965539 3960089 3960256 
2022.124 3971157 3996236 4034126 4079712 4125369 4163571 4189899 4203549 
2025.981 4207464 4205323 4200773 4194817 4187925 4179896 4172570 4169894 
2029.839 4177555 4199267 4235903 4284655 4339001 4391849 4438007 4475701 
2033.696 4505899 4531411 4553777 4572897 4588132 4597977 4603570 4608157 
2037.553 4616429 4631432 4653603 4679626 4703339 4718379 4720456 4709067 
2041.411 4688066 4663047 4639134 4620247 4607086 4599217 4596069 4597241 
2045.268 4604675 4620548 4646837 4683511 4729097 4779815 4831644 4879759 
2049.126 4919100 4945273 4955562 4949395 4929891 4903785 4880999 4870879 
2052.983 4881568 4915380 4967962 5029199 5086589 5129670 5152235 5155453 
2056.841 5145160 5130005 5116728 5108749 5105531 5103821 5100233 5092791 
2060.698 5082264 5071503 5063558 5061278 5065435 5075760 5091014 5109620 
2064.555 5129569 5148479 5163366 5170039 5165579 5148714 5120819 5086086 
2068.413 5050417 5019109 4995110 4978922 4967627 4957639 4946513 4933610 
2072.270 4920909 4911660 4908745 4913168 4923993 4938939 4954959 4970677 
2076.128 4985625 5000373 5015892 5032115 5047937 5061748 5071838 5077336 
2079.985 5079247 5079146 5079381 5082667 5090545 5103955 5123199 5147373 
2083.843 5174599 5202666 5228688 5249414 5262963 5268597 5266417 5258335 
2087.700 5246328 5231807 5215543 5197334 5176846 5154581 5131782 5110392 
2091.557 5093025 5080957 5074487 5073146 5075325 5080688 5089271 5102413 
2095.415 5121053 5145227 5173593 5202666 5229091 5250453 5265847 5276915 
2099.272 5286172 5296033 5307839 5320719 5333231 5343193 5350003 5354732 
2103.130 5360033 5368990 5384421 5407771 5438972 5476888 5519336 5563970 
2106.987 5607971 5648251 5681853 5706126 5720125 5724557 5722207 5717473 
2110.844 5714821 5717708 5727512 5743560 5763471 5784557 5804705 5822838 
2114.702 5838790 5852559 5864548 5874322 5881878 5887386 5891484 5895212 
2118.559 5899746 5905423 5912174 5919529 5927591 5937063 5950130 5968740 
2122.417 5994372 6026489 6062709 6098762 6130182 6154211 6170275 6180828 
2126.274 6189096 6198608 6211716 6228622 6248152 6268960 6290172 6311687 
2130.132 6334414 6359093 6385723 6413532 6441174 6467035 6490914 6513011 
2133.989 6533630 6553779 6573390 6592128 6610193 6628326 6647739 6671090 
2137.846 6698816 6729909 6760835 6786480 6803039 6807449 6800145 6783081 
2141.704 6759792 6732702 6702651 6669643 6633609 6595088 6557781 6526566 
2145.561 6505309 6496396 6497204 6502350 6503964 6495421 6472988 6437475 
2149.419 6391977 6341004 6288760 6236589 6184390 6130552 6073393 6010665 
2153.276 5940523 5861123 5769917 5665505 5549539 5428471 5314447 5222384 
2157.134 5168765 5165077 5212726 5303344 5418741 5538968 5646505 5730734 
2160.991 5787949 5820958 5833014 5829219 5813637 5789359 5759979 5729190 
2164.848 5700250 5675173 5654360 5636536 5618511 5598439 5574173 5545445 
2168.706 5511853 5473599 5429981 5380731 5326925 5270710 5217219 5171749 
2172.563 5138421 5119511 5113141 5114281 5117634 5117533 5110459 5095674 
2176.421 5074219 5047099 5014551 4976508 4931834 4882104 4829600 4778441 
2180.278 4733519 4698483 4674870 4661239 4655042 4653067 4653134 4653603 
2184.135 4653435 4651995 4646971 4637192 4622323 4603670 4583746 4567506 
2187.993 4558666 4559336 4568878 4584951 4603838 4622591 4638867 4651794 
2191.850 4660870 4664755 4662678 4654105 4640106 4624533 4613918 4614821 
2195.708 4632202 4667267 4716268 4772210 4825780 4869070 4897452 4909214 
2199.565 4906365 4891621 4868970 4840858 4810570 4781456 4757303 4741726 
2203.423 4737539 4745545 4764103 4789965 4819381 4849803 4880027 4909516 
2207.280 4938604 4965650 4988105 5002283 5005266 4996317 4977614 4953819 
2211.137 4931231 4914911 4908007 4910755 4921177 4936090 4951875 4966052 
2214.995 4976911 4983245 4984653 4981167 4974531 4966756 4961025 4959851 
2218.852 4964711 4974967 4988306 5001210 5010796 5015020 5014082 5009288 
2222.710 5002484 4994004 4984217 4971783 4956366 4938001 4918262 4899664 
2226.567 4884484 4874364 4869204 4868098 4870008 4874498 4881434 4891152 
2230.425 4903718 4917960 4931901 4943865 4952680 4958612 4963840 4970979 
2234.282 4981737 4996853 5014852 5033255 5050149 5064631 5077068 5089673 
2238.139 5103888 5120852 5140231 5160952 5181808 5202666 5223390 5244886 
2241.997 5267524 5290062 5311394 5329608 5343998 5355571 5366742 5380597 
2245.854 5398645 5421123 5445683 5468566 5486316 5497457 5502625 5504269 
2249.712 5505410 5508665 5515108 5524504 5535679 5548096 5560916 5574475 
2253.569 5588404 5601493 5611932 5617571 5616598 5608978 5596190 5580650 
2257.427 5564776 5549472 5533900 5516350 5494437 5467023 5435047 5400625 
2261.284 5366842 5336753 5311797 5292444 5278558 5269671 5265579 5267088 
2265.141 5274433 5287480 5304888 5324409 5342992 5358221 5368453 5373384 
2268.999 5373552 5370097 5364427 5357953 5351714 5346816 5344434 5344870 
2272.856 5347554 5351747 5355404 5356913 5355705 5352116 5347386 5343730 
2276.714 5342992 5346011 5352519 5361609 5372076 5383146 5394955 5407335 
2280.571 5420654 5434544 5447427 5457930 5464003 5465077 5460782 5451957 
2284.428 5439946 5426491 5412937 5401061 5392305 5387642 5387910 5392909 
2288.286 5401463 5411293 5419849 5424478 5423807 5417970 5408341 5397337 
2292.143 5387608 5380764 5377846 5379188 5384320 5392607 5403879 5417399 
2296.001 5432027 5446622 5459507 5469338 5475377 5477793 5477256 5475143 
2299.858 5471955 5468331 5463902 5458164 5451252 5443703 5436725 5431558 
2303.716 5429142 5429008 5430350 5431625 5431524 5430048 5427465 5425485 
2307.573 5425049 5426995 5430853 5435752 5440549 5444542 5447629 5450581 
2311.430 5454172 5458970 5464808 5470713 5475814 5479370 5480948 5481149 
2315.288 5480578 5479538 5478364 5476384 5472962 5467559 5460178 5451588 
2319.145 5442797 5435349 5430249 5428303 5428740 5429947 5429075 5422432 
2323.003 5406462 5378584 5337759 5285300 5225000 5162126 5102010 5049580 
2326.860 5007746 4976542 4954456 4938503 4925936 4914911 4905059 4897351 
2330.718 4892794 4892258 4895307 4901238 4908577 4916385 4924663 4933644 
2334.575 4943865 4955394 4967828 4980061 4991122 5000306 5007813 5014383 
2338.432 5020718 5027489 5034931 5043043 5051825 5061714 5073481 5087695 
2342.290 5104692 5123568 5142913 5161287 5178120 5194819 5214503 5241633 
2346.147 5280571 5333801 5401497 5481048 5567696 5655904 5739296 5812697 
2350.005 5871601 5912913 5935182 5938911 5926449 5901392 5868175 5831469 
2353.862 5794799 5760348 5729425 5702063 5677926 5656710 5638416 5623780 
2357.719 5613375 5608072 5607837 5612200 5619954 5629822 5639960 5649426 
2361.577 5657348 5664834 5673293 5684942 5702399 5727310 5760247 5800172 
2365.434 5843995 5888226 5929405 5964843 5993868 6017385 6037543 6056761 
2369.292 6077291 6100510 6127057 6157000 6190373 6227076 6267010 6309872 
2373.149 6354924 6400888 6446588 6491150 6534135 6575745 6616821 6658237 
2377.007 6700565 6744042 6788500 6833702 6879313 6925401 6971762 7018364 
2380.864 7064702 7109731 7152710 7192594 7229045 7262164 7292758 7321770 
2384.721 7350347 7379194 7409190 7440570 7473503 7507988 7543556 7579733 
2388.579 7615306 7649331 7680829 7709025 7733748 7755402 7774562 7791901 
2392.436 7808060 7823511 7839064 7855393 7873477 7894397 7918657 7946294 
2396.294 7976397 8007649 8038600 8068303 8096962 8125185 8154219 8184606 
2400.151 8216819 8249945 8283142 8314989 8345253 8374066 8402644 8432034 
2404.009 8463184 8496161 8531066 8567528 8605582 8646141 8690184 8738459 
2407.866 8791405 8848280 8907259 8966279 9023482 9077376 9127690 9174659 
2411.723 9219197 9262385 9305104 9347894 9391299 9435656 9481167 9528073 
2415.581 9575629 9623154 9669296 9712835 9752480 9788130 9819648 9847677 
2419.438 9873235 9897098 9920081 9943168 9967103 9992667 10020775 10052073 
2423.296 10087035 10125663 10167721 10212428 10259684 10308982 10360728 
2426.671 10415467 10473574 10535999 10603323 10675920 10753862 10836812 
2430.046 10924296 11015095 11108156 11202258 11296583 11390522 11484446 
2433.421 11578595 11673547 11769712 11867123 11965919 12065487 12165759 
2436.797 12266497 12367873 12469851 12572639 12676234 12780640 12885720 
2440.172 12991541 13098038 13204970 13311827 13417991 13522404 13624347 
2443.547 13723064 13818350 13910474 14000086 14088074 14175189 14262527 
2446.922 14350499 14439243 14528723 14618086 14706062 14791072 14870923 
2450.298 14943826 15008612 15065243 15114986 15159965 15202754 15245993 
2453.673 15291706 15341132 15394751 15452807 15514990 15581133 15651200 
2457.048 15724991 15802298 15883159 15967404 16054587 16144849 16237983 
2460.423 16333479 16430853 16529109 16627353 16724862 16821324 16916432 
2463.799 17010974 17105776 17201738 17300722 17404520 17515484 17636518 
2467.174 17769668 17916706 18078024 18252704 18438518 18633300 18834400 
2470.549 19040438 19250766 19465456 19684414 19907298 20133106 20360352 
2473.924 20587754 20814404 21039746 21263536 21484970 21702754 21914652 
2477.300 22117904 22309600 22487982 22651772 22800542 22933678 23050468 
2480.675 23149290 23228106 23285118 23319344 23331512 23323646 23299488 
2484.050 23262746 23217444 23166904 23113608 23059202 23004246 22948664 
2487.425 22891380 22830994 22765414 22693072 22612504 22523262 22425662 
2490.801 22320448 22208354 22089420 21963304 21829246 21685650 21531414 
2494.176 21365780 21188312 20999230 20798552 20586954 20365318 20135050 
2497.551 19897932 19655984 19411332 19165638 18920154 18674600 18428838 
2500.926 18182492 17935110 17687074 17439666 17193946 16951262 16713189 
2504.302 16480546 16253911 16034303 15822813 15620768 15429288 15249012 
2507.677 15080200 14922564 14775406 14637894 14509675 14390501 14280263 
2511.052 14178784 14085781 14000189 13921388 13848828 13782367 13722346 
2514.427 13669753 13625167 13589337 13562331 13543837 13533548 13531155 
2517.802 13536179 13548281 13566672 13590158 13617475 13647323 13678712 
2521.178 13711403 13745601 13781888 13820744 13862100 13905137 13949102 
2524.553 13992626 14035163 14076231 14115969 14154239 14190902 14224830 
2527.928 14254822 14278757 14295467 14303274 14301700 14290057 14268724 
2531.303 14237841 14198536 14152047 14100430 14045806 13990539 13936408 
2534.679 13884645 13835589 13788935 13743618 13698922 13654196 13609338 
2538.054 13565031 13521823 13480739 13442324 13406953 13374250 13343874 
2541.429 13314764 13285622 13255593 13223859 13190692 13156675 13122967 
2544.804 13090799 13061398 13034834 13010387 12987001 12963172 12937535 
2548.180 12909578 12878962 12846367 12812445 12778218 12744267 12711648 
2551.555 12680909 12653003 12628544 12607941 12590818 12576902 12565271 
2554.930 12554904 12545422 12536452 12528096 12520663 12513944 12507430 
2558.305 12500576 12492426 12482741 12471522 12459281 12446494 12433537 
2561.681 12419797 12404488 12386419 12364770 12339544 12311797 12283573 
2565.056 12256920 12234120 12216636 12205084 12199120 12197791 12199801 
2568.431 12203618 12208015 12211865 12214455 12215307 12214489 12212649 
2571.806 12210570 12209207 12209855 12213058 12219328 12228803 12241549 
2575.182 12257465 12276143 12297140 12319705 12342373 12364259 12384134 
2578.557 12401317 12415841 12428593 12440561 12453109 12467499 12484446 
2581.932 12504770 12528438 12555893 12586862 12621347 12658802 12698274 
2585.307 12738738 12779071 12818076 12855514 12890976 12924666 12957164 
2588.683 12989186 13021586 13055354 13091549 13131198 13175391 13224372 
2592.058 13277867 13334888 13393558 13451449 13506373 13556451 13600141 
2595.433 13637510 13668831 13695776 13719884 13743208 13767284 13793312 
2598.808 13821702 13851941 13883550 13915401 13946741 13977570 14008470 
2602.184 14040262 14074109 14110732 14150165 14192032 14235272 14279065 
2605.559 14322965 14367485 14413176 14461679 14514231 14571552 14634124 
2608.934 14701434 14772664 14846613 14922187 14998219 15074196 15149741 
2612.309 15224853 15300012 15375664 15452223 15529825 15608334 15686857 
2615.685 15764399 15839823 15912339 15981395 16047368 16110701 16172534 
2619.060 16233651 16294880 16356703 16419394 16482715 16546113 16609073 
2622.435 16670596 16729649 16785748 16838582 16888252 16935104 16980100 
2625.810 17023758 17066694 17109328 17151514 17193498 17235418 17277618 
2629.186 17320582 17364480 17409176 17453876 17497580 17538840 17576824 
2632.561 17610778 17640590 17666922 17690768 17712892 17734462 17756242 
2635.936 17778436 17801496 17825212 17849310 17873304 17896678 17919294 
2639.311 17940600 17961286 17981488 18002106 18024036 18047902 18074188 
2642.687 18103308 18135472 18170780 18209442 18251598 18297250 18346156 
2646.062 18397796 18451414 18505902 18560468 18614244 18667302 18719360 
2649.437 18770874 18822288 18874230 18926832 18980342 19034622 19089288 
2652.812 19143858 19197984 19251076 19303518 19355550 19407900 19461158 
2656.188 19515912 19572304 19629986 19688226 19746202 19803384 19859396 
2659.563 19914304 19968422 20022234 20075776 20129186 20182288 20234564 
2662.938 20285910 20336324 20385736 20434496 20482704 20530362 20577296 
2666.313 20623470 20668536 20712496 20755244 20797268 20838806 20880244 
2669.688 20922106 20964806 21008688 21053832 21100162 21147470 21195756 
2673.064 21244918 21294924 21346326 21399368 21454542 21512194 21572152 
2676.439 21634034 21697180 21760926 21825030 21889562 21954730 22021198 
2679.814 22089594 22160372 22234020 22310610 22390076 22472104 22556346 
2683.189 22641896 22727950 22813742 22898820 22983144 23067448 23152400 
2686.565 23239254 23329030 23422390 23519232 23619772 23723448 23830088 
2689.940 23939590 24051888 24166806 24283962 24402518 24521562 24640322 
2693.315 24758482 24875974 24993566 25111966 25232116 25354444 25479194 
2696.690 25606474 25736150 25868008 26001980 26137966 26275546 26414468 
2700.066 26554952 26696888 26840952 26987532 27137124 27289378 27443766 
2703.441 27598814 27753206 27905712 28055938 28204272 28351772 28499322 
2706.816 28647738 28796592 28945286 29092682 29237934 29380858 29521948 
2710.191 29662412 29803700 29946954 30093092 30242336 30395008 30550544 
2713.567 30709226 30870420 31033636 31197906 31361918 31523998 31682898 
2716.942 31837468 31986990 32131214 32270276 32404382 32534174 32660324 
2720.317 32784228 32907340 33031706 33159148 33291560 33430458 33576236 
2723.692 33729476 33889788 34056792 34229816 34408424 34592100 34780804 
2727.068 34974508 35173296 35376916 35585384 35797440 36011900 36227228 
2730.443 36441544 36653728 36862916 37068920 37271956 37471976 37668512 
2733.818 37860400 38046084 38223412 38391188 38548236 38694692 38830800 
2737.193 38957268 39074532 39183308 39283948 39377500 39465556 39550224 
2740.569 39634176 39720000 39810012 39905896 40008880 40119780 40239064 
2743.944 40366968 40503928 40649516 40803380 40964688 41132396 41305560 
2747.319 41482808 41662460 41842400 42019572 42190280 42350716 42497184 
2750.694 42626960 42738488 42831436 42906152 42963248 43002792 43024560 
2754.070 43028148 43012488 42977624 42923016 42848696 42754136 42638400 
2757.445 42500032 42337384 42149424 41935264 41695388 41430824 41143140 
2760.820 40834136 40505928 40160920 39802024 39432900 39058112 38682412 
2764.195 38310404 37946452 37593788 37255200 36933076 36629248 36346132 
2767.571 36085452 35849256 35638936 35455144 35297844 35166328 35059740 
2770.946 34976808 34916584 34877660 34858020 34855256 34866496 34888180 
2774.321 34916944 34949840 34984312 35018540 35050972 35080176 35105036 
2777.696 35123968 35135572 35138732 35132088 35114736 35086820 35048568 
2781.072 35001264 34946928 34888148 34827688 34768240 34711708 34659344 
2784.447 34611512 34567772 34527372 34489492 34453044 34416708 34379232 
2787.822 34338636 34292268 34237988 34173064 34095964 34006160 33904048 
2791.197 33790964 33669248 33541440 33410024 33277754 33147096 33020514 
2794.573 32900586 32789872 32690332 32604422 32533926 32479718 32443046 
2797.948 32424516 32424234 32442548 32479718 32535746 32610818 32704946 
2801.323 32817922 32949052 33096888 33259582 33434574 33619124 33810808 
2804.698 34007376 34207696 34411044 34617036 34825140 35034272 35242108 
2808.073 35445724 35641384 35824680 35992176 36140184 36265840 36367644 
2811.449 36444248 36495348 36521076 36522016 36498880 36453180 36386380 
2814.824 36300924 36199856 36086896 35966220 35842488 35720160 35602860 
2818.199 35493904 35395828 35310568 35240416 35187740 35154864 35144372 
2821.574 35158028 35196504 35258884 35342592 35443820 35557620 35679044 
2824.950 35803232 35925732 36043116 36152500 36251212 36337560 36409868 
2828.325 36466984 36508572 36534520 36545800 36544180 36532072 36512172 
2831.700 36487560 36460784 36433868 36407888 36383240 36359320 36335828 
2835.075 36312308 36288244 36264180 36240304 36217000 36194848 36174648 
2838.451 36157216 36144292 36137988 36141120 36156784 36188260 36238176 
2841.826 36309316 36404176 36525332 36675900 36859740 37080792 37343624 
2845.201 37652104 38009156 38415148 38867252 39358164 39875348 40400532 
2848.576 40911824 41382748 41788116 42105140 42316128 42411796 42391268 
2851.952 42261784 42036908 41734892 41377248 40984748 40578172 40176220 
2855.327 39792728 39438636 39119200 38835728 38585496 38363968 38166032 
2858.702 37986772 37822660 37671224 37530676 37399128 37274300 37153332 
2862.077 37032836 36909952 36782596 36648972 36509472 36364976 36217072 
2865.453 36068640 35923680 35786612 35663072 35558628 35478476 35426492 
2868.828 35405100 35414592 35453632 35519216 35606852 35710988 35825036 
2872.203 35941784 36053592 36153616 36236556 36298904 36340548 36363172 
2875.578 36370524 36366488 36355212 36339360 36321024 36300744 36278844 
2878.954 36255540 36231368 36207164 36184116 36163592 36147132 36135828 
2882.329 36130676 36131688 36138636 36149980 36163052 36175544 36184440 
2885.704 36187396 36183616 36173168 36157396 36138528 36119840 36104032 
2889.079 36094924 36096180 36111308 36144900 36201800 36287232 36407708 
2892.455 36570856 36784832 37060296 37408552 37841096 38368924 38999348 
2895.830 39733648 40563616 41470556 42422868 43374816 44274772 45064988 
2899.205 45689352 46104356 46281396 46212732 45911592 45410676 44756048 
2902.580 43997044 43185380 42365696 41572240 40831404 40160048 39567316 
2905.956 39057968 38633084 38291296 38030060 37845796 37734716 37693120 
2909.331 37718020 37806936 37957660 38167984 38434732 38753448 39117964 
2912.706 39519628 39947560 40389040 40829368 41252508 41643928 41989756 
2916.081 42279824 42508660 42675024 42782108 42835788 42843576 42812932 
2919.457 42749276 42656272 42535588 42386700 42208864 42001360 41765132 
2922.832 41504060 41224308 40935416 40649444 40378312 40133916 39925652 
2926.207 39759284 39637336 39558388 39518608 39511752 39530440 39567136 
2929.582 39613376 39661148 39703080 39731980 39742688 39731032 39694764 
2932.958 39632576 39544376 39430360 39291092 39127612 38941900 38736384 
2936.333 38515068 38282432 38043188 37802416 37564848 37334600 37116160 
2939.708 36913848 36731788 36573988 36443668 36342172 36268828 36220960 
2943.083 36193160 36178068 36167516 36151708 36120848 36065652 35978280 
2946.458 35852744 35686704 35481244 35241784 34976628 34697100 34415132 
2949.834 34141988 33887352 33658076 33457976 33288342 33148348 33035998 
2953.209 32948520 32882896 32836578 32806702 32791014 32787264 32793194 
2956.584 32806988 32827180 32853090 32884322 32921318 32964784 33015188 
2959.959 33072822 33137366 33207894 33283476 33363224 33446990 33534930 
2963.335 33627964 33726432 33830544 33939232 34051024 34163564 34275384 
2966.710 34385008 34492256 34598056 34703884 34811708 34924128 35043536 
2970.085 35172864 35315060 35473228 35649296 35844612 36058236 36287092 
2973.460 36526664 36769904 37008876 37235708 37441852 37620056 37764104 
2976.836 37869224 37933112 37956144 37941788 37895724 37825912 37741696 
2980.211 37651456 37563584 37484400 37418340 37367600 37332500 37311200 
2983.586 37299788 37292712 37283252 37263760 37226540 37165208 37074800 
2986.961 36952884 36799332 36616776 36409800 36184188 35946464 35702820 
2990.337 35458308 35216736 34980436 34750184 34525976 34307656 34094568 
2993.712 33886496 33683280 33484210 33288092 33093062 32896332 32695048 
2997.087 32486752 32269776 32043810 31810120 31571246 31329796 31088694 
3000.462 30850074 30615316 30384776 30158226 29935166 29715308 29498898 
3003.838 29286526 29079360 28879202 28687132 28504524 28332178 28169942 
3007.213 28017696 27874832 27740350 27613254 27492302 27376324 27263940 
3010.588 27154052 27045500 26937784 26830976 26725640 26622654 26523040 
3013.963 26427602 26336340 26249144 26165274 26084024 26004866 25927656 
3017.339 25852042 25778270 25706160 25635294 25565776 25497358 25430672 
3020.714 25366842 25307728 25254942 25210520 25175056 25149040 25132048 
3024.089 25123410 25122568 25129378 25144158 25167156 25199038 25239736 
3027.464 25288304 25343132 25401372 25459412 25513102 25558326 25591186 
3030.840 25608970 25610130 25594700 25564020 25520514 25466826 25405800 
3034.215 25339830 25270606 25199670 25128360 25057694 24988970 24922922 
3037.590 24860256 24801488 24746416 24694996 24646634 24600836 24557042 
3040.965 24514548 24472866 24431540 24390426 24350088 24311644 24276466 
3044.341 24246016 24221632 24203520 24191468 24184392 24180644 24179278 
3047.716 24179208 24179908 24181450 24184218 24188456 24194832 24203906 
3051.091 24216308 24232808 24253934 24279688 24309228 24341676 24375322 
3054.466 24408826 24441424 24472972 24504242 24536250 24569874 24605640 
3057.842 24643688 24683596 24725020 24767918 24812576 24859026 24908010 
3061.217 24959526 25013398 25069242 25126956 25186152 25246934 25309482 
3064.592 25374008 25440580 25509094 25579554 25652062 25726690 25803480 
3067.967 25882004 25961000 26038392 26111962 26179318 26238584 26289412 
3071.343 26332504 26369152 26401404 26430948 26458978 26486024 26512192 
3074.718 26537480 26562066 26586124 26610078 26634386 26659402 26685438 
3078.093 26712674 26741604 26772298 26804860 26839190 26874474 26910146 
3081.468 26945576 26980622 27015916 27052624 27091732 27134126 27179872 
3084.844 27228060 27277592 27327414 27377098 27427180 27478570 27532792 
3088.219 27590762 27652838 27718382 27786374 27855648 27925534 27995714 
3091.594 28066436 28137912 28210424 28283586 28356794 28429238 28500384 
3094.969 28570304 28639242 28708442 28778960 28852004 28928074 29007838 
3098.344 29090804 29176802 29265154 29355296 29446628 29539150 29632648 
3101.720 29726770 29821586 29916354 30010288 30102468 30192216 30279212 
3105.095 30363774 30446504 30528468 30610376 30692724 30775198 30857616 
3108.470 30939336 31020468 31101436 31183274 31266802 31352908 31441528 
3111.845 31531874 31623342 31714688 31805378 31895374 31984884 32074310 
3115.221 32164004 32253820 32343052 32431766 32519248 32605994 32692618 
3118.596 32780010 32868742 32959600 33052192 33146306 33241230 33336532 
3121.971 33431638 33526696 33621448 33715764 33809516 33902688 33995088 
3125.346 34086864 34178516 34270684 34364096 34459392 34556688 34655756 
3128.722 34755784 34855436 34953572 35049248 35141892 35232296 35321384 
3132.097 35410600 35501488 35594844 35690588 35788156 35886144 35983320 
3135.472 36078828 36172196 36264148 36355140 36446372 36538376 36631344 
3138.847 36725336 36819960 36915004 37010032 37104864 37199104 37292784 
3142.223 37385944 37478908 37572580 37668256 37767140 37870452 37978888 
3145.598 38091872 38208288 38326400 38444000 38559424 38671620 38780112 
3148.973 38885440 38988872 39091320 39194292 39298708 39404964 39512768 
3152.348 39621396 39729400 39835180 39937824 40036968 40132644 40226124 
3155.724 40318900 40412168 40507088 40603784 40702060 40801780 40902792 
3159.099 41005360 41109956 41217020 41326440 41437640 41549416 41660232 
3162.474 41768996 41874948 41977820 42077904 42176040 42272556 42368288 
3165.849 42463680 42559196 42655104 42751944 42849356 42946972 43043660 
3169.225 43138424 43230400 43319604 43406308 43491996 43578220 43666256 
3172.600 43756836 43850148 43945860 44043248 44141608 44240064 44338104 
3175.975 44434884 44529476 44621116 44709472 44794252 44876284 44956644 
3179.350 45036724 45117740 45200460 45285036 45371208 45458208 45545304 
3182.726 45631524 45716368 45799096 45879148 45957004 46033068 46108520 
3186.101 46184652 46262712 46343288 46426168 46510396 46594640 46677604 
3189.476 46758556 46837232 46914300 46990572 47066636 47142784 47219540 
3192.851 47296824 47374976 47454428 47535340 47617492 47700096 47781720 
3196.227 47860880 47936616 48008772 48077908 48145572 48212948 48281008 
3199.602 48349780 48418596 48486276 48552488 48616888 48680116 48743204 
3202.977 48806896 48871520 48937084 49003212 49069764 49136652 49203964 
3206.352 49271656 49339356 49406072 49470452 49531572 49588988 49643444 
3209.728 49696604 49750664 49807516 49868276 49933060 50000420 50068868 
3213.103 50136400 50201892 50264456 50324280 50381728 50437992 50493928 
3216.478 50550728 50608876 50668748 50729928 50791412 50851900 50910500 
3219.853 50966720 51020900 51074080 51127864 51183816 51242532 51304128 
3223.229 51368120 51433092 51498076 51562620 51626424 51689828 51753544 
3226.604 51818164 51884284 51952092 52021972 52093692 52166992 52240788 
3229.979 52313852 52385244 52454068 52520700 52585880 52651336 52718596 
3233.354 52788708 52861788 52936936 53012628 53087544 53160972 53232580 
3236.729 53302968 53372384 53441104 53508748 53575164 53640504 53705668 
3240.105 53771852 53840676 53913032 53988440 54065400 54141512 54215080 
3243.480 54284912 54352012 54417992 54485940 54558104 54635880 54719004 
3246.855 54806544 54896884 54988708 55081272 55174524 55268180 55362376 
3250.230 55456448 55549596 55641336 55731020 55818988 55905320 55990836 
3253.606 56075844 56160492 56244928 56329116 56413512 56498524 56584236 
3256.981 56670872 56758048 56844716 56930420 57014212 57095904 57175912 
3260.356 57254232 57331436 57407288 57481680 57554268 57624484 57692556 
3263.731 57758708 57823128 57886384 57948632 58010048 58070792 58130640 
3267.107 58189660 58247856 58305264 58361880 58417860 58473472 58529356 
3270.482 58586492 58645576 58707360 58771544 58837556 58904452 58971168 
3273.857 59037208 59102924 59168872 59236120 59304788 59374948 59445572 
3277.232 59515640 59584312 59651628 59718496 59786060 59855764 59928104 
3280.608 60003196 60079856 60156952 60233912 60310388 60386652 60463952 
3283.983 60543516 60626484 60713852 60806460 60904536 61008548 61118380 
3287.358 61233120 61352288 61474456 61598536 61723868 61850504 61978664 
3290.733 62109268 62243396 62381656 62524436 62672468 62826104 62985808 
3294.109 63152352 63325824 63506000 63692272 63883616 64079040 64277968 
3297.484 64480260 64686252 64896500 65110976 65329364 65551020 65775260 
3300.859 66001624 66230572 66463268 66700808 66944584 67195488 67453752 
3304.234 67719864 67993856 68275928 68566136 68863648 69167384 69475728 
3307.610 69786936 70099920 70414808 70732736 71055264 71384088 71720272 
3310.985 72063408 72412216 72765456 73122000 73481784 73845320 74213096 
3314.360 74585544 74962176 75341928 75723752 76106936 76491608 76878280 
3317.735 77267512 77659272 78052416 78445608 78837240 79226320 79613016 
3321.111 79997648 80380840 80762776 81142400 81518768 81890904 82258744 
3324.486 82623176 82984984 83344480 83700344 84049904 84389280 84714944 
3327.861 85025224 85320552 85602816 85874360 86136576 86388840 86628960 
3331.236 86853952 87061080 87249232 87418296 87568616 87700544 87812352 
3334.612 87901872 87966384 88004688 88017344 88007040 87977544 87931656 
3337.987 87870720 87793816 87698192 87580784 87439736 87273984 87084120 
3341.362 86870864 86634496 86374200 86089024 85777216 85438488 85073416 
3344.737 84683656 84271112 83837288 83383224 82909264 82416144 81905224 
3348.113 81378720 80839440 80290184 79732744 79167912 78595912 78015936 
3351.488 77428224 76833392 76232656 75628424 75022576 74416760 73812528 
3354.863 73210936 72613352 72020728 71434936 70856992 70288304 69729664 
3358.238 69181800 68645456 68121672 67611024 67113968 66630960 66161452 
3361.614 65704988 65260740 64828412 64407960 63999400 63602888 63218116 
3364.989 62843984 62479436 62123376 61775128 61434912 61103656 60782752 
3368.364 60473208 60175184 59888280 59610956 59341936 59079424 58821696 
3371.739 58566892 58313412 58058596 57800456 57537020 57267012 56990372 
3375.115 56707792 56420528 56129532 55835420 55538224 55237212 54931512 
3378.490 54620512 54303460 53979996 53649312 53310192 52961420 52601516 
3381.865 52229276 51844480 51447752 51040692 50624996 50203156 49776820 
3385.240 49347860 48917244 48485792 48054144 47622776 47191984 46762024 
3388.615 46333484 45906580 45481756 45059328 44639552 44222748 43809312 
3391.991 43400116 42996280 42598812 42209124 41827628 41453972 41087012 
3395.366 40724328 40363804 40003540 39642776 39282424 38923928 38569240 
3398.741 38220156 37877176 37539776 37206792 36876516 36547460 36219052 
3402.116 35891248 35564312 35238656 34914360 34591380 34269900 33949832 
3405.492 33631904 33317282 33007036 32701944 32402348 32107666 31817250 
3408.867 31529948 31245116 30962072 30680920 30402046 30126048 29853422 
3412.242 29584370 29318818 29056334 28796806 28539660 28285142 28033814 
3415.617 27786726 27545218 27310548 27083516 26863652 26649958 26440420 
3418.993 26232426 26024038 25814204 25603066 25392064 25183272 24978440 
3422.368 24779178 24585828 24397998 24214660 24034694 23857076 23681700 
3425.743 23508530 23338016 23170014 23004490 22840702 22677886 22515340 
3429.118 22352262 22188442 22024196 21860118 21697006 21536114 21378450 
3432.494 21224390 21074734 20929060 20786770 20646924 20508548 20370770 
3435.869 20233314 20096250 19960234 19826204 19694884 19566862 19441962 
3439.244 19319418 19198052 19076650 18954626 18831458 18708084 18585436 
3442.619 18464864 18347226 18232246 18118334 18003486 17884904 17760868 
3445.995 17631240 17497822 17363790 17232868 17108672 16992402 16883498 
3449.370 16779446 16677137 16573684 16467709 16359318 16250264 16143130 
3452.745 16039699 15940798 15846387 15755054 15665112 15575362 15484498 
3456.120 15392211 15298193 15202479 15105071 15006176 14906035 14805197 
3459.496 14704588 14604859 14506728 14410539 14316562 14225343 14137533 
3462.871 14053985 13975141 13900964 13830150 13760376 13688937 13613338 
3466.246 13531907 13445263 13355252 13264988 13177508 13095409 13019161 
3469.621 12948390 12881317 12815652 12749930 12682614 12613330 12541738 
3472.997 12467567 12391225 12312478 12232313 12151856 12072913 11997766 
3476.372 11928149 11865523 11810397 11762188 11719363 11679572 11640362 
3479.747 11598979 11553789 11503975 11450187 11394298 11338891 11286654 
3483.122 11239387 11197430 11159420 11123012 11085859 11046125 11003438 
3486.498 10958989 10914681 10872483 10833924 10799071 10767074 10736642 
3489.873 10706314 10676327 10647464 10620775 10597924 10579590 10565433 
3493.248 10554331 10544893 10536101 10527750 10520859 10516276 10516377 
3496.623 10522081 10534233 10552973 10577485 10606344 10638363 10671981 
3499.999 10706212 10740276 10773595 10806409 10839020 10872721 10908565 
3503.374 10948320 10993957 11046737 11108259 11178935 11258021 11344264 
3506.749 11435559 11528983 11622665 11715551 11807809 11901347 11998345 
3510.124 12100714 12209173 12322397 12438038 12552823 12664533 12772041 
3513.500 12876504 12979729 13084345 13191854 13302260 13413856 13523703 
3516.875 13629441 13728502 13820368 13905000 13982977 14054533 14118741 
3520.250 14174333 14219113 14251056 14268930 14272149 14261088 14237018 
3523.625 14200830 14153314 14094576 14023698 13939077 13839284 13722962 
3527.000 13590192 13442494 13282957 13116068 12945387 12774430 12603711 
3530.376 12432753 12259476 12081669 11898486 11709934 11517176 11321818 
3533.751 11124915 10926335 10725910 10523065 10317906 10112470 9909708 
3537.126 9712733 9524687 9346811 9178483 9018036 8863057 8711278 8561682 
3540.984 8414366 8269700 8128831 7992191 7859610 7730071 7602830 7475997 
3544.841 7349234 7222543 7097067 6974792 6858174 6748989 6648513 6555562 
3548.698 6467674 6380679 6290441 6193230 6087472 5974518 5857899 5742788 
3552.556 5633917 5533666 5442663 5358959 5279263 5201123 5123500 5046965 
3556.413 4972956 4903182 4838077 4776800 4716905 4656014 4592251 4525384 
3560.271 4456988 4389573 4326552 4270434 4222152 4181970 4148049 4117642 
3564.128 4087137 4052018 4007774 3950760 3878409 3791730 3694375 3593467 
3567.986 3496257 3409688 3337694 3280401 3235433 3198515 3165170 3131595 
3571.843 3095119 3054675 3010365 2963257 2914619 2865887 2818228 2772708 
3575.700 2729326 2688350 2648977 2610175 2571210 2531248 2489890 2447903 
3579.558 2406287 2366307 2329629 2297550 2270470 2248887 2231835 2217947 
3583.415 2205392 2191605 2173556 2148415 2113353 2066442 2007519 1938919 
3587.273 1864639 1791170 1725398 1672575 1636022 1615734 1608917 1610979 
3591.130 1616100 1618694 1613939 1599006 1573001 1537886 1497055 1454997 
3594.988 1415637 1382063 1354741 1333403 1316852 1303060 1290730 1278235 
3598.845 1264477 1248494 1229354 1206760 1181342 1154531 1128951 1107624 
3602.702 1092875 1086630 1089121 1099220 1114102 1129914 1142106 1146658 
3606.560 1139947 1121144 1091181 1053879 1014854 979983 953251 935685 925292 
3610.899 917555 908026 893084 872566 848728 826419 810219 803414 805937 
3615.239 814701 824328 828511 822237 801688 765806 716252 657578 596457 
3619.579 540155 495603 467839 458585 466180 487277 516435 548184 579005 
3623.918 607008 631463 653994 674503 691162 699160 690565 657014 594101 
3628.258 504825 403163 309748 244863 218341 227922 262235 306465 347549 
3632.597 375968 387841 384922 372619 357862 346322 341016 341580 345394 
3636.937 349539 351893 351595 349406 346554 344664 344465 346455 350500 
3641.277 356635 364892 375770 390328 408867 431652 458187 486945 515540 
3645.616 540122 556013 557805 540752 501043 438120 355441 260975 166298 
3649.956 84301 26441 -66 5964 40425 94144 157083 217712 266147 294959 299834 
3655.260 281432 245426 202098 162055 134147 122215 125563 140013 160133 
3659.599 180916 198684 211214 217513 217844 213535 206441 199280 195037 
3663.939 196297 204849 221524 245095 272679 300729 324304 337999 336838 
3668.279 316976 277652 222485 161293 107798 75983 74458 103291 154896 215258 
3673.100 267043 294794 285775 235746 153172 59015 -21602 -70934 -84582 
3677.440 -71397 -44927 -18952 -1722 5069 3942 530 695 7885 21902 41121 63257 
3683.226 87283 113929 144322 178794 215921 250897 277519 288229 277652 
3687.566 243769 190529 126789 63191 9774 -28361 -50526 -58643 -55694 -44463 
3692.387 -27268 -5433 18489 41850 62429 78103 88543 95204 100904 109289 
3697.209 122944 142698 166464 190363 208695 216087 209457 188275 155492 
3701.549 117409 81550 54608 40889 41618 55403 79330 110052 144521 180618 
3706.371 216551 250764 281432 306564 323674 330007 324171 305106 274005 
3710.710 234022 189634 147305 112968 91658 85195 93249 112637 138290 165536 
3715.532 189170 205811 213932 213800 207700 198949 190628 184695 181446 
3719.872 179524 176706 171403 163083 152509 141969 133815 129739 129838 
3724.211 132722 135572 136102 133186 127518 122314 122546 131794 152675 
3728.551 184131 222121 260412 291810 310444 313726 303547 285676 268535 
3732.890 258820 257991 261970 262799 252223 225436 185291 139980 102064 
3737.230 80655 80026 98452 131164 172165 217380 264722 313063 360283 401869 
3742.052 428535 428634 391091 312102 202164 87283 1060 -33132 -11066 53448 
3746.874 138787 222983 287068 318965 314655 277984 219734 153338 91492 41585 
3751.695 8018 -7521 -4241 17561 55602 105478 160862 214529 260743 295125 
3756.517 315849 323011 318501 304078 281664 253383 222817 194871 176275 
3760.857 173093 188109 218938 259152 298673 327686 339690 332959 312234 
3765.196 287002 267672 261307 269098 286273 304011 313959 310079 291776 
3769.536 263561 234188 211844 203092 208993 227160 251924 277420 298375 
3773.875 312334 318866 319463 317838 316744 317938 320491 321784 317838 
3778.215 305470 284416 257229 230508 211645 205645 214065 233690 257693 
3782.555 278017 288627 286273 272380 252024 231635 217546 213004 217844 
3786.894 229215 243338 256466 266512 273077 277519 281432 286836 294893 
3791.234 305702 318866 332859 345261 353916 356569 351893 340154 324006 
3795.573 307924 297380 297711 311206 336440 368010 398188 417623 417888 
3799.913 393744 345161 279708 211579 158509 134511 143825 181612 235713 
3804.253 291876 335446 355574 347052 312135 261274 209988 174054 163083 
3808.592 177601 212010 257859 306962 354015 397259 437291 475402 511924 
3812.932 544601 568554 577512 565601 530634 477093 416926 365622 337004 
3817.271 337435 363964 406413 449895 478818 480643 448568 385685 306697 
3821.611 233260 184231 170375 189833 232497 283786 330140 362074 375869 
3825.951 374344 364992 357928 361211 377991 406280 440309 472450 496067 
3830.290 507777 507313 498555 486746 478354 477491 486348 503398 524862 
3834.630 545330 558468 557937 540487 505090 456130 401306 350865 313992 
3838.969 295589 295258 307924 326890 344830 357331 361974 359719 352457 
3843.309 343702 336407 332693 334020 340983 353551 371657 395037 423626 
3847.649 457556 497129 542146 591646 642745 690166 724748 735104 708917 
3851.988 636573 517497 365290 208860 81649 6925 -10006 20145 79098 149460 
3856.810 219701 282957 337170 383065 422034 455002 482434 503796 519122 
3861.150 529075 534781 537302 537070 533421 525226 512587 498224 486680 
3865.489 484059 494442 517795 549013 578872 596424 592243 562051 509933 
3869.829 448899 396331 365290 361178 379218 408734 437224 455168 458419 
3874.168 449231 435267 425483 427573 444322 473179 507910 540620 563677 
3878.508 571507 562516 539757 511161 486348 474971 482467 508142 545695 
3882.848 584280 613014 621608 605051 565535 513317 464356 434306 433244 
3887.187 461172 509436 564075 611189 639427 642247 620214 579702 532558 
3891.527 490893 463792 455401 464257 486016 515407 548582 583086 617859 
3895.866 652103 684326 712103 732116 741078 737128 720367 693784 662655 
3900.206 632392 607539 589888 577910 567459 553989 533719 505289 471056 
3904.546 436097 406944 388736 384458 394175 415434 443924 474440 503531 
3908.885 527980 546890 560625 571042 580034 589589 600936 614175 628643 
3913.225 642679 654193 661361 662888 658275 648021 634217 618423 603159 
3917.564 590419 581095 575986 575687 580100 589456 603292 619883 637038 
3921.904 651340 659636 659702 651141 636109 618754 604254 596723 598813 
3926.244 609696 626851 646329 665144 680941 693286 702711 710013 714891 
3930.583 716750 713862 705034 690797 673308 656516 644272 639626 642911 
3934.923 652402 664746 675830 682799 684691 682633 679348 678053 681206 
3939.262 689337 700654 711971 719538 719803 711871 696538 677390 658972 
3943.602 645765 641020 645466 657180 672511 687146 697202 700089 695675 
3947.942 685520 672346 658839 646959 637403 629738 623267 617494 612516 
3952.281 609596 609829 614209 622404 633819 646760 659470 670786 680542 
3956.621 688739 696472 703939 711373 718343 723819 727072 727370 724914 
3960.960 720002 713896 708088 703806 702413 704636 710577 719803 731320 
3965.300 743833 756080 767399 777257 786352 795580 804908 814834 824262 
3969.640 832594 838404 841558 842155 841425 840562 840329 840894 841790 
3973.979 842055 840595 837507 833524 829938 828511 830270 835383 843085 
3978.319 851816 860481 867553 872665 875554 876550 875886 874226 871636 
3982.658 868847 866557 865262 865428 867154 869877 872632 874226 873794 
3986.998 871171 866424 860381 854107 848297 843483 840130 838304 838105 
3991.338 839599 842686 847268 852480 857626 861444 863004 861942 858124 
3995.677 852347 845574 839167 834287 831897 832262 835183 840230 845807 
4000.017 851218 854970 
##END=
