
##TITLE=mdmaHCL00398_3
##JCAMP-DX=5.01  $$ Nicolet v. 1
##DATATYPE=INFRARED SPECTRUM
##ORIGIN=UniL
##OWNER=Nicolet
##LONGDATE=2011/08/24
##TIME=09:37:17
##SPECTROMETER/DATA SYSTEM=Nicolet iS5
##DATA PROCESSING=
Ratio against background
%Transmittance->Absorbance
Truncated
ElementMultiply or ElementDivide
##COMMENTS=
Number of sample scans: 32
Collection length: 51.19 sec
Sample gain: 2.0
Background collected on: Mer Aout 24 09:35:50 2011 (GMT+02:00);
Number of background scans: 32
Background gain: 2.0
Sample spacing:  1.000
Number of scan points: 12415
Resolution points: 8192
Number of FFT points: 65536
Apodization: N-B fort;
Phase correction: Mertz;
Laser frequency: 15798.0 cm-1
Number of rejected sample scans: 0
Number of rejected background scans: 0
Bench serial number: ASB1000141;
##RESOLUTION=4.000
##XUNITS=1/CM
##YUNITS=ABSORBANCE
##FIRSTX=649.893372
##LASTX=4000.122314
##FIRSTY=0.099734
##MAXX=4000.122314
##MINX=649.893372
##MAXY=0.247262
##MINY=0.000438
##XFACTOR=1.000000
##YFACTOR=1.000000E-009
##NPOINTS=6950
##DELTAX=0.482117
##ZPD=6100
##XYDATA=(X++(Y..Y))
649.893 99734072 98796448 97927544 97162984 96508904 95953288 95479984 
653.268 95080896 94758864 94520920 94366320 94280680 94235528 94202224 
656.643 94163664 94124856 94108640 94146128 94259648 94448968 94691776 
660.018 94951080 95193880 95400200 95572136 95725056 95879976 96051864 
663.393 96244120 96450608 96661744 96865616 97049120 97195184 97276960 
666.767 97260464 97122952 96873064 96568368 96288032 96098120 96020944 
670.142 96034624 96089768 96128712 96105688 95993496 95791528 95520200 
673.517 95208480 94877776 94531840 94159216 93743040 93274600 92759664 
676.892 92217576 91670984 91134920 90610224 90085736 89546176 88983776 
680.267 88402080 87815920 87241336 86689424 86159840 85643936 85129928 
683.642 84611744 84091072 83577344 83079736 82601576 82137992 81678424 
687.016 81214304 80744256 80277544 79829784 79417640 79049840 78725336 
690.391 78434216 78165064 77912056 77677616 77472536 77309872 77199664 
693.766 77144176 77138712 77174376 77244712 77347560 77486320 77666280 
697.141 77891952 78163440 78478040 78832232 79225168 79659464 80139856 
700.516 80668048 81239912 81842656 82458808 83070544 83665392 84239408 
703.890 84795416 85337416 85865632 86372664 86845816 87273088 87647680 
707.265 87973600 88261128 88524176 88772184 89008256 89230736 89440272 
710.640 89644248 89861352 90115424 90426520 90800080 91219904 91647992 
714.015 92031936 92323432 92487264 92511992 92410272 92212416 91958632 
717.390 91688584 91443032 91263560 91192312 91277752 91566976 92093536 
720.765 92866904 93856536 94989472 96144752 97179272 97951384 98339320 
724.139 98279488 97776208 96906200 95797184 94604264 93478784 92526256 
727.514 91802440 91308288 91007224 90843376 90763896 90734008 90736784 
730.889 90768840 90831608 90923392 91037216 91164232 91298688 91440824 
734.264 91596720 91773664 91973584 92190992 92412320 92623032 92813856 
737.639 92984032 93141880 93300192 93469080 93651688 93843544 94035600 
741.013 94221240 94399136 94574016 94753048 94941720 95139920 95341968 
744.388 95541000 95733080 95920888 96112960 96318640 96543128 96783624 
747.763 97030264 97270416 97493856 97697784 97886864 98069672 98252480 
751.138 98436896 98618576 98791168 98950560 99098720 99242360 99390416 
754.513 99548272 99715104 99883640 100044512 100191128 100323360 100447568 
757.888 100572776 100706784 100852336 101006712 101164992 101324160 
760.780 101485400 101653912 101836384 102036912 102255824 102489904 
763.673 102737832 103004552 103305352 103667272 104125752 104715544 
766.566 105465992 106387496 107464008 108642152 109831568 110912592 
769.458 111739008 112176448 112128112 111559264 110518000 109129432 
772.351 107576688 106043224 104684512 103594128 102788792 102225168 
775.244 101822520 101497752 101180296 100822616 100397040 99878256 99235360 
778.619 98429464 97416472 96161792 94650608 92891400 90913136 88756824 
781.993 86471640 84105512 81706976 79326024 77009960 74801944 72737480 
785.368 70837680 69110576 67553536 66158444 64915932 63819676 62866120 
788.743 62052620 61374724 60825324 60394492 60072588 59852912 59733856 
792.118 59718156 59811688 60021188 60351468 60805660 61386096 62095624 
795.493 62938848 63923464 65059244 66358328 67837144 69515544 71422048 
798.867 73594384 76074840 78908120 82126304 85731888 89675160 93835856 
802.242 98022800 101954864 105302680 107739296 108967752 108810264 107243008 
805.617 104418312 100631000 96262928 91714736 87290344 83167888 79379128 
808.992 75838432 72397064 68910904 65303712 61582728 57838268 54200180 
812.367 50810520 47779132 45162480 42969396 41168680 39709176 38531072 
815.742 37580600 36813284 36189988 35680016 35258708 34906496 34612048 
819.116 34370016 34178476 34036656 33941632 33888644 33871876 33887460 
822.491 33934464 34015440 34134280 34294136 34495340 34736008 35012436 
825.866 35322464 35665700 36043580 36458444 36912696 37407976 37947828 
829.241 38540272 39200136 39951556 40829368 41873740 43129572 44641572 
832.616 46442544 48545336 50924772 53508560 56156608 58661432 60781192 
835.990 62244160 62816376 62358052 60848692 58407172 55257152 51700988 
839.365 48040268 44528008 41357748 38631564 36379060 34576204 33169196 
842.740 32092466 31280402 30678396 30238926 29922068 29698102 29543582 
846.115 29443296 29389084 29376070 29400924 29458898 29544150 29650882 
849.490 29775348 29916282 30075728 30255800 30457556 30679498 30918342 
852.865 31170636 31435362 31715010 32015276 32342766 32703336 33100606 
856.239 33537220 34015728 34541976 35124756 35777148 36514664 37353592 
859.614 38312576 39413380 40680480 42143656 43829840 45753812 47905388 
862.989 50237264 52659640 55034932 57203168 59000884 60281724 60956312 
866.364 61000424 60467076 59470992 58181020 56793468 55489392 54432488 
869.739 53744252 53494356 53712492 54389300 55488072 56945456 58677548 
873.113 60584656 62538936 64398624 66017860 67249336 67978624 68136944 
876.488 67712512 66752656 65355012 63653872 61786972 59886608 58060376 
879.863 56372804 54850112 53479180 52221356 51024292 49840068 48641016 
883.238 47424604 46215756 45056312 43997964 43085880 42349988 41804132 
886.613 41445768 41262784 41238188 41356872 41606440 41976944 42459660 
889.987 43046476 43729900 44505616 45373896 46341224 47418172 48618928 
893.362 49958076 51447940 53099336 54918728 56905828 59046284 61304088 
896.737 63616008 65879712 67965648 69731224 71031072 71756312 71848016 
900.112 71308680 70200320 68633152 66752344 64703988 62631240 60657876 
903.487 58871364 57332268 56071096 55094584 54394292 53954296 53758464 
906.862 53792252 54046336 54515240 55195632 56085160 57182072 58484956 
910.236 59993720 61708744 63627132 65739528 68024040 70441312 72939280 
913.611 75454544 77921648 80289872 82527440 84630184 86620056 88542616 
916.986 90456800 92418888 94474216 96636952 98877992 101109904 103188608 
920.361 104931160 106123432 106576336 106166288 104868848 102784472 
923.254 100136880 97264736 94546048 92373352 91098264 90950920 92024480 
926.628 94233840 97333632 100916536 104472976 107505336 109556776 110323000 
930.003 109695600 107747408 104693104 100805520 96374480 91635760 86757600 
933.378 81860936 77026456 72321880 67821568 63602732 59744844 56322968 
936.753 53391080 50984716 49119884 47794928 46994672 46689260 46833764 
940.128 47357160 48160008 49123852 50105200 50959828 51565340 51824996 
943.502 51690688 51164356 50296264 49171460 47893252 46573612 45306256 
946.877 44162372 43186956 42396564 41787312 41341892 41038504 40854192 
950.252 40768148 40762288 40818740 40919796 41049352 41193304 41343280 
953.627 41497020 41658228 41833900 42030340 42252360 42500948 42774396 
957.002 43070368 43387192 43724516 44082448 44460352 44856368 45266796 
960.377 45688208 46118284 46557124 47006784 47469768 47947528 48439340 
963.751 48942684 49454336 49973096 50499660 51037000 51588736 52157460 
967.126 52743620 53346200 53964200 54598152 55250980 55927896 56634176 
970.501 57373444 58147116 58954924 59796364 60672928 61588340 62548660 
973.876 63560196 64626916 65750628 66930704 68166248 69457648 70807848 
977.251 72221104 73701872 75252952 76875592 78571368 80343808 82200360 
980.625 84153416 86216128 88400608 90714040 93156656 95722120 98396712 
984.000 101159968 103979264 106802928 109559936 112149768 114449104 
986.893 116333024 117678944 118394528 118434528 117804440 116563632 
989.786 114813144 112695408 110369648 107995080 105729360 103699496 
992.678 101997312 100680752 99768304 99250104 99096768 99273424 99745128 
996.053 100482184 101463136 102669040 104081752 105683256 107453184 
998.946 109370696 111415608 113561952 115775480 118009608 120196688 
1001.839 122254888 124098256 125640992 126818672 127596024 127971960 
1004.731 127979488 127682848 127175376 126562728 125961976 125492200 
1007.624 125253528 125329096 125774744 126616256 127856000 129477936 
1010.517 131458776 133770448 136384848 139275520 142411296 145758752 
1013.409 149285200 152958368 156752832 160648368 164619200 168623856 
1016.302 172589920 176399184 179902736 182927952 185304688 186911168 
1019.195 187691888 187683216 187007696 185876032 184561888 183348496 
1022.087 182528000 182350288 182988704 184546336 187038528 190409712 
1024.980 194542096 199284848 204478128 209949664 215538480 221088352 
1027.873 226434384 231420240 235895792 239727120 242819360 245114864 
1030.766 246593408 247261664 247142784 246269104 244678224 242419760 
1033.659 239555440 236152224 232282016 228009008 223384928 218457440 
1036.552 213276672 207904272 202426608 196946112 191573520 186423952 
1039.446 181595200 177165552 173193696 169709520 166715520 164178464 
1042.339 162028208 160149696 158387168 156574000 154539568 152148224 
1045.232 149330192 146087664 142499568 138697568 134855872 131154552 
1048.125 127751544 124783432 122342264 120475664 119194208 118473648 
1051.018 118265864 118504296 119120016 120045864 121218872 122587736 
1053.911 124102536 125708656 127345400 128935592 130388800 131614880 
1056.804 132523088 133037432 133107600 132707624 131844264 130554888 
1059.697 128913704 127024160 125009728 123014520 121177312 119620944 
1062.590 118451280 117739560 117528040 117830904 118635728 119905184 
1065.483 121574344 123558184 125744104 127998304 130187440 132177416 
1068.376 133854464 135140224 135985728 136374000 136311136 135818544 
1071.269 134925936 133665504 132072808 130182344 128027272 125644176 
1074.162 123072352 120360544 117574512 114791648 112104512 109616104 
1077.055 107421232 105607224 104243848 103373744 103014968 103155536 
1079.948 103754320 104735152 105987736 107380288 108753528 109948232 
1082.842 110831624 111306464 111339000 110961264 110269480 109401512 
1085.735 108515792 107781168 107341000 107310752 107770456 108754328 
1088.628 110254056 112216688 114556408 117153384 119866624 122559568 
1091.521 125096488 127361048 129265744 130741504 131741000 132236720 
1094.414 132216680 131688280 130676720 129228440 127406176 125285552 
1097.307 122958008 120518736 118063960 115686856 113457256 111415784 
1100.200 109563304 107859904 106229128 104572784 102801088 100845272 
1103.093 98680032 96329272 93863408 91385904 89008456 86846832 84998424 
1106.468 83533112 82498152 81913024 81775528 82064856 82747032 83777856 
1109.844 85103128 86666048 88405608 90253712 92141832 93993224 95722872 
1113.219 97249232 98491440 99381160 99874128 99949112 99611032 98885768 
1116.594 97817464 96461152 94875016 93121968 91260456 89338504 87396096 
1119.969 85458376 83538744 81643672 79776656 77943968 76158024 74436536 
1123.344 72801224 71274672 69874840 68615616 67505688 66550000 65753712 
1126.720 65123060 64666064 64392976 64313048 64432560 64752020 65263972 
1130.095 65952100 66787900 67731640 68734064 69733592 70668088 71480952 
1133.470 72127800 72589656 72875248 73022456 73087808 73141640 73255728 
1136.845 73486648 73873520 74429024 75138264 75958712 76824616 77659544 
1140.221 78375872 78891192 79139168 79068208 78650072 77877208 76758656 
1143.596 75317576 73587552 71614128 69448896 67149736 64779632 62396152 
1146.971 60053568 57798676 55666568 53684256 51870580 50236224 48786428 
1150.346 47521224 46436164 45522560 44768792 44162332 43689812 43340216 
1153.722 43104980 42978024 42954872 43032352 43206644 43473724 43830352 
1157.097 44273856 44803284 45418992 46121824 46911608 47786972 48744500 
1160.472 49779496 50886360 52057420 53282736 54546644 55826488 57093336 
1163.847 58310416 59437592 60436340 61268528 61901664 62310240 62474272 
1167.223 62382572 62033660 61437240 60612848 59589368 58402888 57089556 
1170.598 55686080 54227208 52742424 51259308 49803168 48395408 47056112 
1173.973 45802592 44647668 43601772 42672172 41863272 41178440 40620120 
1177.348 40190356 39890604 39721632 39683440 39775804 39999072 40355296 
1180.724 40848876 41485468 42271312 43212096 44311060 45568848 46982564 
1184.099 48546076 50246044 52058876 53949344 55862772 57727412 59462404 
1187.474 60975868 62181832 63011436 63414812 63372404 62894992 62024028 
1190.849 60823344 59372440 57761508 56073884 54385132 52760008 51245700 
1194.225 49878644 48684860 47680756 46876544 46275536 45874136 45660380 
1197.600 45612388 45700688 45884708 46116848 46347604 46522896 46592904 
1200.975 46515668 46257916 45802664 45150236 44319612 43344684 42270328 
1204.350 41147984 40024832 38942552 37933832 37019124 36210264 35511488 
1207.726 34921756 34436940 34051132 33757156 33547278 33413496 33349052 
1211.101 33348660 33409488 33530738 33713180 33957684 34264196 34631536 
1214.476 35056756 35535756 36062552 36629432 37226140 37839036 38453412 
1217.851 39053400 39624012 40153904 40635072 41062536 41434212 41749372 
1221.227 42009172 42216536 42378040 42504160 42608280 42707376 42818052 
1224.602 42954760 43128948 43347248 43611260 43918068 44260720 44628720 
1227.977 45008940 45388276 45755720 46105388 46439224 46768184 47111872 
1231.352 47494052 47942428 48484164 49142812 49940236 50895748 52026008 
1234.728 53346684 54871356 56608960 58564388 60736716 63120624 65705604 
1238.103 68477176 71415648 74492160 77671280 80908416 84152568 87356424 
1241.478 90477688 93483920 96354832 99076288 101636616 104022000 106212112 
1244.853 108179136 109888872 111297600 112354992 113008376 113201408 
1247.746 112887360 112035504 110635544 108700664 106264080 103374416 
1250.639 100085856 96458056 92557336 88452520 84221992 79952320 75726352 
1254.015 71627144 67729272 64089604 60752684 57745688 55078112 52744444 
1257.390 50724600 48987636 47490392 46183324 45014304 43927936 42875576 
1260.765 41818248 40727568 39590944 38408960 37193832 35965108 34746844 
1264.140 33564600 32440048 31391624 30432538 29569508 28804380 28133600 
1267.516 27550268 27044442 26605640 26224752 25894314 25609496 25367930 
1270.891 25168420 25010272 24893202 24817416 24783880 24794438 24852396 
1274.266 24960824 25122358 25337512 25603874 25914782 26257558 26614800 
1277.641 26962110 27269478 27507126 27645738 27663962 27553410 27318734 
1281.017 26977800 26556114 26083744 25588058 25090552 24606972 24147190 
1284.392 23718092 23326162 22977414 22678758 22436304 22254736 22137114 
1287.767 22086038 22103922 22194718 22363424 22615052 22953066 23377874 
1291.142 23886270 24470098 25116354 25807770 26520294 27224498 27887940 
1294.518 28475088 28956088 29311020 29533332 29632542 29631938 29566354 
1297.893 29472796 29388656 29347746 29375396 29489960 29701544 30009720 
1301.268 30403112 30857900 31341120 31810228 32220490 32532566 32714374 
1304.643 32747318 32627068 32363508 31977930 31499452 30964742 30410112 
1308.019 29869358 29371994 28938026 28578090 28294478 28083438 27938044 
1311.394 27851480 27819190 27838268 27906666 28021656 28178640 28371864 
1314.769 28596030 28847296 29124218 29427588 29758670 30117846 30504792 
1318.144 30918380 31358178 31825308 32322526 32852266 33414606 34003832 
1321.520 34607740 35207248 35776572 36289108 36717908 37040772 37245128 
1324.895 37330552 37312100 37218200 37091728 36982180 36935532 36991484 
1328.270 37173040 37484508 37912608 38432200 39014140 39629784 40258080 
1331.645 40886156 41507776 42121896 42730848 43339012 43951692 44575296 
1335.021 45215128 45873804 46548936 47231840 47909052 48562196 49170788 
1338.396 49715552 50177792 50541648 50795436 50931848 50950400 50857524 
1341.771 50667068 50398064 50073292 49718820 49358992 49016384 48710660 
1345.146 48455748 48261196 48131652 48066432 48058664 48093528 48149420 
1348.521 48195848 48197848 48122880 47943240 47644224 47227076 46711252 
1351.897 46133248 45540700 44992660 44547064 44254520 44154484 44265012 
1355.272 44580696 45071056 45687512 46366996 47040308 47646628 48133316 
1358.647 48462272 48614000 48585428 48392484 48066508 47657904 47230476 
1362.022 46851516 46588624 46491404 46580808 46845024 47241444 47705828 
1365.398 48156196 48509616 48687160 48620372 48268308 47623220 46717780 
1368.773 45616364 44406768 43182564 42019792 40975540 40081480 39346412 
1372.148 38766236 38331648 38035448 37873996 37846592 37949672 38172544 
1375.523 38497328 38902688 39367704 39878292 40428460 41019492 41658992 
1378.899 42358392 43133888 44005036 44995156 46127756 47416732 48855540 
1382.274 50403308 51985332 53487196 54769372 55694444 56127576 55966376 
1385.649 55161244 53736376 51806476 49560132 47238380 45060140 43177216 
1389.024 41663184 40515564 39686052 39104188 38700740 38412180 38182204 
1392.400 37965148 37720372 37415560 37032436 36569628 36043872 35481536 
1395.775 34909296 34343084 33785128 33229462 32670044 32110340 31568964 
1399.150 31076770 30667228 30367078 30186534 30119584 30149914 30257898 
1402.525 30425892 30640562 30894436 31183486 31505012 31856150 32232482 
1405.901 32629036 33041790 33469216 33913184 34377724 34868076 35388276 
1409.276 35940016 36521800 37130056 37760344 38408056 39069384 39740076 
1412.651 40414056 41083332 41739380 42374536 42986260 43578840 44163468 
1416.026 44755900 45374628 46038156 46761436 47554044 48415448 49329816 
1419.402 50265872 51180536 52029068 52769924 53373060 53823120 54118240 
1422.777 54276648 54335036 54348480 54374544 54459720 54628964 54881584 
1426.152 55200184 55561536 55948924 56353560 56775380 57220060 57696456 
1429.527 58217660 58800944 59471296 60257512 61183416 62262016 63487440 
1432.903 64839028 66283716 67790392 69338880 70918080 72527864 74170176 
1436.278 75842176 77528704 79207640 80859712 82468104 84018296 85487584 
1439.653 86843224 88033984 88993784 89656256 89953048 89825696 89232368 
1443.028 88147048 86567880 84522408 82075784 79325312 76384888 73384512 
1446.404 70444232 67667128 65139808 62917052 61017356 59418252 58068184 
1449.779 56901412 55859876 54915120 54073844 53375720 52870320 52598112 
1453.154 52564676 52734680 53029212 53337392 53538320 53508260 53166328 
1456.529 52515912 51671320 50816144 50122008 49698984 49580448 49755976 
1459.905 50200072 50882708 51769668 52814712 53961688 55135436 56241872 
1463.280 57185892 57875860 58253536 58314812 58115676 57752692 57323268 
1466.655 56909452 56561136 56299356 56127648 56035848 56002864 55994116 
1470.030 55963172 55855200 55613128 55200828 54622464 53935688 53233968 
1473.406 52614380 52145508 51853216 51734916 51777020 51968376 52303048 
1476.781 52775648 53373848 54071404 54828988 55602316 56343752 57014060 
1480.156 57589564 58063104 58447352 58769948 59069896 59388508 59767428 
1483.531 60252260 60889172 61727728 62813932 64177208 65816516 67683504 
1486.906 69683568 71665248 73430928 74769464 75461440 75327704 74279528 
1490.282 72343280 69669280 66482960 63032352 59517160 56060048 52727312 
1493.657 49536180 46487940 43601296 40919324 38514960 36477328 34880284 
1497.032 33759340 33103362 32870528 33004214 33450034 34164032 35106328 
1500.407 36237924 37519656 38905592 40346204 41792968 43184756 44449708 
1503.783 45498680 46201568 46393320 45888940 44538548 42329824 39459752 
1507.158 36292640 33185434 30353932 27850278 25628232 23617846 21767546 
1510.533 20053982 18481562 17067040 15822504 14750074 13838292 13067988 
1513.908 12417614 11867260 11399570 10996438 10641521 10322181 10033524 
1517.284 9781013 9576001 9427833 9335808 9286012 9251384 9202817 9119501 
1521.141 9004030 8883990 8799654 8781024 8832657 8937631 9068308 9201394 
1524.999 9323790 9437991 9557642 9699790 9874184 10079133 10304198 10537832 
1528.856 10774750 11017542 11274650 11554911 11861743 12190839 12531644 
1532.231 12871692 13204219 13532898 13871371 14233732 14627716 15048366 
1535.606 15482747 15912477 16320372 16693907 17021896 17295824 17507066 
1538.982 17646492 17705644 17681898 17585588 17438630 17267344 17091854 
1542.357 16917258 16733816 16520917 16259482 15940249 15572065 15179317 
1545.732 14793678 14439311 14122507 13833229 13550606 13255320 12937808 
1549.107 12605144 12277847 11981723 11734239 11537524 11379910 11244250 
1552.483 11116893 10993787 10881112 10791802 10737117 10719966 10732600 
1555.858 10758176 10775532 10758786 10678263 10504632 10220027 9839781 
1559.233 9419402 9033496 8735078 8537115 8423724 8365824 8333701 8301176 
1563.091 8249878 8172113 8071678 7962864 7863963 7790214 7746430 7726057 
1566.948 7715366 7699716 7668318 7618206 7554513 7488874 7434604 7401371 
1570.805 7394226 7414010 7459446 7527879 7614227 7710306 7803101 7877087 
1574.663 7918556 7921087 7892878 7855933 7837916 7856675 7913529 7996106 
1578.520 8086903 8170661 8237552 8284762 8313807 8327892 8329783 8320630 
1582.378 8301176 8272875 8240118 8209322 8186767 8176401 8177684 8186193 
1586.235 8195985 8202738 8206182 8209862 8219452 8239442 8271659 8315159 
1590.093 8367647 8428318 8498931 8583006 8683255 8799181 8925049 9051528 
1593.950 9168974 9270407 9354395 9424921 9489398 9555440 9627965 9709921 
1597.807 9802974 9910353 10038340 10195467 10390795 10631674 10921374 
1601.183 11259891 11645094 12074378 12545149 13052315 13586739 14132023 
1604.558 14663974 15155128 15575157 15896425 16099216 16171949 16114691 
1607.933 15938049 15662124 15312539 14915225 14497376 14083076 13692698 
1611.308 13342747 13042754 12794086 12590443 12419558 12265679 12111821 
1614.684 11943202 11749047 11526840 11285702 11046839 10838714 10685530 
1618.059 10601625 10587059 10631878 10718642 10828014 10942712 11048334 
1621.434 11138479 11216028 11293013 11385590 11507990 11667012 11860109 
1624.809 12078876 12314012 12559030 12810499 13066520 13324877 13581133 
1628.185 13829809 14066340 14289817 14503097 14711683 14920952 15132896 
1631.560 15344805 15549193 15735470 15891304 16004084 16062908 16061533 
1634.935 16002020 15897663 15771443 15649758 15550327 15478867 15429563 
1638.310 15389430 15342951 15275919 15179969 15054335 14906961 14751033 
1641.686 14601260 14467572 14351971 14248009 14142737 14020995 13867471 
1645.061 13672079 13433130 13161114 12877494 12610943 12390340 12234631 
1648.436 12150800 12133730 12170223 12239981 12315239 12362964 12339987 
1651.811 12203482 11931554 11554027 11159148 10843538 10657786 10590488 
1655.187 10598807 10637650 10675920 10696941 10695073 10673068 10637277 
1658.562 10593884 10546693 10495263 10436306 10365208 10277361 10170061 
1661.937 10044239 9905098 9762511 9628135 9513815 9426817 9369190 9336519 
1665.794 9318950 9303986 9276229 9221634 9130160 8998719 8833366 8648270 
1669.652 8463319 8296684 8161174 8061889 7995836 7954293 7923281 7887007 
1673.509 7827694 7730847 7591736 7420447 7241679 7083764 6967923 6898367 
1677.367 6864569 6847671 6829831 6800549 6759287 6715237 6681184 6667456 
1681.224 6674084 6689024 6688923 6646596 6540088 6367835 6156328 5952616 
1685.082 5798694 5710020 5677623 5679906 5696893 5712840 5718849 5711430 
1688.939 5690112 5656911 5615960 5573804 5539404 5521182 5525276 5552157 
1692.796 5595016 5639355 5666747 5659093 5606931 5517323 5416258 5338363 
1696.654 5306833 5324107 5371673 5420520 5437396 5394754 5282549 5118874 
1700.511 4948423 4817371 4751441 4746248 4780418 4827791 4866992 4884048 
1704.369 4872086 4833285 4776599 4715565 4661439 4621017 4594997 4580163 
1708.226 4571557 4565095 4559235 4554413 4553041 4557360 4569113 4587764 
1712.083 4611473 4637226 4662143 4684583 4704177 4720355 4731677 4734055 
1715.941 4721461 4688200 4632805 4561914 4489929 4434928 4410191 4419865 
1719.798 4459365 4518588 4586491 4653468 4714460 4767955 4815830 4861732 
1723.656 4909314 4961326 5018573 5081594 5149787 5222652 5298179 5372948 
1727.513 5442328 5501081 5545847 5576288 5596627 5613073 5630997 5651708 
1731.371 5668794 5668727 5632776 5544975 5399987 5214839 5025042 4872555 
1735.228 4783064 4758040 4780786 4828193 4879491 4918362 4935990 4931130 
1739.085 4909214 4880161 4854059 4838311 4835229 4842968 4857778 4875973 
1742.943 4894570 4911693 4926740 4939375 4950199 4959416 4967191 4972889 
1746.800 4975503 4973224 4963638 4944066 4911191 4861899 4793986 4707493 
1750.658 4606383 4498600 4395899 4309451 4246610 4209237 4193312 4189765 
1754.515 4187022 4174778 4145607 4098543 4039845 3980988 3933774 3905255 
1758.373 3895660 3898334 3903416 3899671 3878743 3837491 3778394 3709079 
1762.230 3640276 3582476 3542655 3523480 3523547 3538278 3560794 3583044 
1766.087 3597142 3597577 3583645 3559625 3534838 3518837 3517468 3529860 
1769.945 3548133 3560460 3554113 3521877 3465695 3397566 3334088 3288847 
1773.802 3267615 3267314 3280201 3297895 3315323 3330649 3344539 3358329 
1777.660 3371552 3381670 3385344 3379967 3366443 3349080 3334522 3329046 
1781.517 3335223 3350783 3369849 3385444 3392156 3388282 3375893 3360433 
1785.375 3347577 3341601 3344906 3357227 3377864 3405347 3438409 3474413 
1789.232 3509117 3536942 3550873 3545394 3518336 3472976 3418237 3365442 
1793.089 3324605 3301067 3294189 3299498 3311751 3326241 3339965 3351785 
1796.947 3361334 3368313 3372454 3372888 3368748 3359932 3347077 3331316 
1800.804 3314856 3299431 3286611 3277663 3273357 3274425 3280701 3291819 
1804.662 3306576 3323437 3341066 3358730 3375826 3392423 3408085 3421811 
1808.519 3431663 3435603 3432497 3422679 3408352 3393291 3381437 3375660 
1812.376 3376828 3383674 3394160 3405580 3416601 3426553 3436071 3446157 
1816.234 3457479 3470739 3486237 3504240 3525485 3550305 3579435 3612678 
1820.091 3649365 3688160 3727459 3765593 3800822 3831340 3855342 3871054 
1823.949 3878543 3879947 3880013 3885396 3901510 3930765 3970923 4015900 
1827.806 4055965 4082254 4089244 4077437 4054125 4030648 4018709 4024929 
1831.664 4049978 4088609 4133899 4179428 4221114 4258120 4291582 4323506 
1835.521 4355066 4386895 4418995 4451699 4487117 4528666 4580263 4645330 
1839.378 4725514 4819481 4924260 5034629 5144925 5248676 5340141 5414782 
1843.236 5470982 5511551 5543397 5576321 5618746 5674837 5742956 5817062 
1847.093 5888025 5946737 5986947 6005626 6003274 5982916 5947745 5899679 
1850.951 5839495 5766694 5681921 5587732 5488867 5390896 5298380 5213598 
1854.808 5135403 5061178 4987904 4913905 4840087 4768358 4700693 4637695 
1858.666 4578254 4519927 4460904 4401087 4342248 4287299 4239315 4199267 
1862.523 4166816 4140388 4118746 4101887 4091485 4088876 4093960 4104296 
1866.380 4114063 4116471 4106169 4081183 4045129 4005767 3971892 3950660 
1870.238 3944875 3952766 3969987 3991956 4014963 4036133 4054092 4066968 
1874.095 4073290 4071718 4062018 4045363 4024327 4001888 3980353 3960423 
1877.953 3941465 3921938 3901176 3879913 3860390 3845380 3836588 3833814 
1881.810 3834549 3835017 3832544 3825858 3816532 3807239 3800755 3798315 
1885.667 3798649 3798749 3795073 3784978 3767531 3744103 3717200 3690065 
1889.525 3665905 3646725 3634496 3630219 3634329 3645756 3662563 3681009 
1893.382 3697182 3708411 3713490 3713858 3712688 3712955 3716264 3722045 
1897.240 3727693 3730467 3728830 3723683 3718035 3715261 3718202 3727627 
1901.097 3742031 3758474 3774249 3787987 3799485 3808777 3816131 3820844 
1904.955 3821446 3817334 3808777 3797914 3787352 3779664 3775620 3774283 
1908.812 3773380 3771709 3768902 3767264 3769503 3778160 3793502 3813256 
1912.669 3833546 3851297 3864903 3875266 3884493 3893754 3902413 3907696 
1916.527 3905188 3892484 3871221 3846216 3825423 3814994 3816265 3825457 
1920.384 3835184 3837424 3827763 3807005 3781335 3759477 3748815 3752792 
1924.242 3769904 3795273 3823451 3850561 3875500 3898167 3918194 3934276 
1928.099 3944072 3945611 3939124 3928659 3919398 3916890 3924379 3940428 
1931.957 3960156 3977377 3987542 3989916 3987542 3984532 3984767 3989013 
1935.814 3995400 4000550 4003225 4004363 4007707 4017338 4034828 4057403 
1939.671 4078976 4092221 4091585 4076902 4052654 4027370 4009646 4004530 
1943.529 4012388 4029745 4052620 4078173 4107206 4141158 4182004 4228943 
1947.386 4278966 4327556 4371098 4408116 4439146 4466227 4490565 4510854 
1951.244 4524313 4527025 4517114 4495688 4467499 4438509 4414911 4399547 
1955.101 4391982 4388502 4384619 4376687 4363299 4344758 4322168 4297806 
1958.958 4273077 4250089 4231319 4219843 4217200 4223691 4236505 4250257 
1962.816 4259860 4263240 4260630 4257484 4260696 4274951 4301654 4336960 
1966.673 4373674 4404099 4424986 4436702 4442895 4447648 4452770 4456486 
1970.531 4454979 4445673 4428300 4407312 4389372 4380469 4383983 4399681 
1974.388 4425187 4459432 4505028 4567539 4653000 4763433 4892928 5027255 
1978.246 5147909 5238682 5289861 5301969 5281174 5238548 5183820 5124003 
1982.103 5062117 5000741 4941587 4888237 4845046 4814322 4795694 4786281 
1985.960 4780954 4775627 4770234 4767788 4772746 4788893 4815059 4845984 
1989.818 4873258 4889879 4892425 4883545 4870075 4860392 4859989 4870075 
1993.675 4887868 4909650 4931600 4952512 4973258 4993501 5011165 5021724 
1997.533 5019277 5000037 4964208 4917893 4869606 4828997 4801658 4787453 
2001.390 4780954 4774890 4763534 4746014 4726418 4710842 4706388 4715297 
2005.248 4736635 4765443 4797269 4828728 4860291 4894302 4932974 4977380 
2009.105 5026249 5075928 5122595 5164406 5200084 5230566 5257295 5281845 
2012.962 5305592 5329876 5355940 5384455 5415420 5446287 5473901 5493732 
2016.820 5502993 5501651 5492927 5481384 5471620 5465513 5462157 5458366 
2020.677 5451051 5440113 5428471 5422465 5428706 5450213 5485444 5528095 
2024.535 5569843 5603239 5625257 5636972 5643048 5648754 5657314 5669701 
2028.392 5685210 5703238 5724054 5750879 5786505 5833014 5890577 5956479 
2032.250 6026019 6095436 6161638 6222438 6277128 6323253 6358387 6379973 
2036.107 6387841 6384311 6375165 6367095 6366356 6375871 6394197 6416894 
2039.964 6439593 6458560 6472517 6483313 6493100 6502787 6512204 6519066 
2043.822 6520747 6517552 6511767 6508033 6512776 6530973 6565115 6614432 
2047.679 6675296 6741451 6805665 6860126 6897626 6912742 6903417 6872884 
2051.537 6829091 6783552 6747744 6730885 6736134 6758883 6789240 6815425 
2055.394 6827913 6823537 6805900 6783014 6764807 6757301 6762653 6777764 
2059.251 6798126 6818993 6838111 6855682 6872412 6888638 6902306 6911025 
2063.109 6912136 6905908 6894799 6883892 6877529 6878000 6883858 6890793 
2066.966 6893587 6888604 6875172 6855851 6834544 6814718 6797755 6783283 
2070.824 6769047 6753836 6738052 6723616 6713016 6708103 6708742 6713622 
2074.681 6720385 6727957 6736706 6748417 6765109 6788029 6815998 6846089 
2078.539 6875172 6899983 6919509 6933985 6944793 6953075 6959236 6963412 
2082.396 6965970 6968496 6973244 6983210 6999844 7022843 7049042 7074333 
2086.253 7094406 7106329 7110135 7107811 7101816 7093834 7083595 7069518 
2090.111 7049715 7023280 6991628 6959001 6930215 6910049 6901128 6904124 
2093.968 6917388 6938295 6964152 6992301 7020721 7047358 7070528 7089118 
2097.826 7103365 7113772 7123102 7133510 7146411 7162242 7180365 7199095 
2101.683 7217894 7238074 7261389 7290837 7327128 7369219 7413167 7454761 
2105.541 7490256 7518574 7541566 7562875 7586780 7615239 7647544 7680964 
2109.398 7712026 7737930 7758337 7774731 7790315 7807183 7826243 7846486 
2113.255 7865851 7882284 7894767 7903844 7910425 7916296 7921661 7927296 
2117.113 7932965 7938769 7945451 7954258 7965395 7978726 7993473 8008121 
2120.970 8021858 8035292 8050177 8069451 8095511 8129675 8170999 8217089 
2124.828 8264905 8311781 8356602 8398961 8438893 8476023 8509609 8537891 
2128.685 8560093 8575639 8585811 8592502 8598113 8604703 8613862 8627010 
2132.542 8645160 8670376 8704315 8747959 8800432 8858154 8915781 8967802 
2136.400 9010221 9042224 9066583 9087661 9109891 9134897 9161529 9185996 
2140.257 9203797 9211277 9206607 9190734 9165623 9133442 9095883 9054268 
2144.115 9008969 8962085 8917033 8876753 8844458 8822005 8807634 8798472 
2147.972 8790694 8780653 8765742 8744173 8714626 8675176 8623630 8558809 
2151.830 8481057 8392915 8298204 8201658 8106212 8013082 7921188 7831169 
2155.687 7745722 7673916 7628997 7626333 7677356 7783704 7934585 8108474 
2159.544 8280237 8426899 8534444 8599330 8626368 8623630 8600614 8565264 
2163.402 8521841 8473725 8423015 8371228 8319110 8267235 8213915 8157426 
2167.259 8096287 8030026 7959658 7887918 7817033 7748825 7683899 7621207 
2171.117 7559907 7500673 7445188 7397158 7360423 7337474 7328645 7330970 
2174.974 7338484 7343775 7339057 7317962 7276686 7215266 7137316 7049446 
2178.832 6960348 6879179 6813507 6768205 6743302 6735259 6738187 6744783 
2182.689 6749393 6749023 6742461 6730346 6713352 6692456 6668162 6641885 
2186.546 6616383 6594483 6579916 6574870 6580185 6594011 6613793 6635762 
2190.404 6657901 6679603 6700734 6722169 6743571 6763528 6780490 6794726 
2194.261 6806439 6818320 6833063 6852114 6874466 6897391 6916142 6926915 
2198.119 6928330 6920788 6907995 6893149 6879885 6869416 6862717 6859587 
2201.976 6860395 6866319 6878371 6896650 6918936 6940854 6958260 6967182 
2205.833 6966947 6959775 6949742 6941695 6938329 6940214 6945837 6952402 
2209.691 6958159 6962604 6966812 6972267 6980651 6991190 7003177 7014896 
2213.548 7025840 7035437 7043654 7050019 7052342 7048739 7036346 7014559 
2217.406 6986644 6957183 6932807 6918600 6916849 6925670 6940820 6956105 
2221.263 6966442 6969034 6963176 6949843 6930450 6906076 6877361 6845988 
2225.121 6814786 6787725 6769787 6764470 6772042 6789947 6812463 6833332 
2228.978 6847974 6853562 6850734 6841780 6829528 6816267 6803847 6793986 
2232.835 6788769 6790889 6802871 6826230 6860294 6901565 6944557 6983681 
2236.693 7014794 7036144 7049210 7056653 7061098 7064028 7065880 7065342 
2240.550 7061940 7055642 7047829 7040892 7037323 7039108 7047796 7064129 
2244.408 7088310 7120340 7159379 7203475 7249327 7293061 7330296 7358266 
2248.265 7376296 7385901 7390181 7392102 7394158 7397023 7400427 7403797 
2252.123 7407269 7411718 7418796 7429379 7443132 7458064 7470603 7477952 
2255.980 7478222 7471480 7459749 7445895 7431671 7418054 7404168 7388665 
2259.837 7370196 7348763 7325309 7301687 7279785 7260715 7245149 7233021 
2263.695 7224295 7219309 7218904 7223250 7232077 7244071 7256773 7267824 
2267.552 7274900 7276921 7273619 7265499 7253572 7238344 7220993 7202768 
2271.410 7185317 7170933 7161771 7159076 7162714 7171270 7181982 7192964 
2275.267 7202094 7209202 7214356 7218635 7222778 7227091 7231538 7235783 
2279.125 7240230 7245419 7252629 7262972 7276888 7293634 7312099 7330599 
2282.982 7347482 7361771 7372791 7379700 7382093 7379767 7372420 7360760 
2286.839 7346168 7330161 7314727 7300946 7289152 7278505 7268397 7257716 
2290.697 7246834 7236491 7228135 7223149 7222341 7225137 7230662 7237838 
2294.554 7245891 7254650 7264388 7275607 7288310 7301822 7314963 7326454 
2298.412 7335081 7340304 7341820 7340338 7336024 7329386 7321332 7312841 
2302.269 7305192 7300002 7298486 7300811 7306169 7312537 7317356 7318502 
2306.126 7314828 7306876 7296060 7284772 7274630 7266712 7261355 7257548 
2309.984 7254852 7252831 7251786 7252696 7256672 7264017 7274664 7287737 
2313.841 7301721 7314828 7325780 7333800 7338013 7338653 7335654 7329555 
2317.699 7320726 7309875 7298081 7286221 7275978 7268734 7265398 7266274 
2321.556 7270014 7273687 7272777 7262096 7237367 7195962 7138091 7067362 
2325.414 6989776 6912338 6841713 6783014 6737884 6705579 6683169 6667153 
2329.271 6654334 6643063 6632936 6625029 6620488 6620017 6624290 6632599 
2333.128 6644577 6659179 6675665 6693095 6710257 6726543 6741014 6753532 
2336.986 6764571 6774836 6785370 6796846 6809064 6821820 6834510 6846931 
2340.843 6859789 6873624 6889277 6906884 6925670 6944321 6961997 6978462 
2344.701 6995938 7018128 7049581 7094440 7154865 7230359 7317457 7411044 
2348.558 7504887 7592917 7669768 7731454 7775405 7801245 7810050 7805159 
2352.416 7789911 7768457 7744271 7719413 7695365 7672870 7652063 7633751 
2356.273 7618543 7606809 7598919 7594265 7591972 7590826 7590590 7591028 
2360.130 7593051 7597772 7606101 7618543 7634595 7653614 7674725 7697692 
2363.988 7722482 7749500 7779049 7810826 7843955 7877829 7911302 7944203 
2367.845 7976565 8008932 8041806 8075560 8109790 8144192 8178562 8212698 
2371.703 8247142 8282432 8319245 8357716 8398185 8440582 8484976 8531775 
2375.560 8581553 8634378 8690015 8747688 8805809 8862922 8917777 8969527 
2379.417 9018001 9063470 9106271 9146842 9185523 9222852 9259508 9296404 
2383.275 9334454 9374099 9415406 9457462 9498812 9538269 9574884 9608893 
2387.132 9641211 9673328 9706431 9741094 9777150 9813447 9848898 9882420 
2390.990 9913403 9942015 9968730 9993853 10018062 10041764 10065366 10089578 
2394.847 10115149 10142519 10172334 10204286 10238074 10273119 10309593 
2398.222 10347528 10387775 10430807 10476696 10524694 10573649 10621759 
2401.598 10667702 10710389 10750024 10787420 10823801 10860423 10898508 
2404.973 10939077 10983082 11031205 11083581 11140076 11199470 11260197 
2408.348 11320322 11378379 11434130 11488189 11542288 11598196 11657142 
2411.723 11719124 11783499 11848531 11912585 11974741 12034350 12091958 
2415.099 12147665 12201437 12252796 12301025 12345305 12385532 12422387 
2418.474 12456962 12490175 12523220 12556472 12590034 12624041 12658563 
2421.849 12693805 12730208 12768015 12807360 12848313 12891078 12936341 
2425.224 12985157 13038726 13098243 13164189 13236259 13313022 13393592 
2428.600 13477081 13563527 13653717 13748953 13849854 13956321 14067230 
2431.975 14180735 14294714 14407764 14519199 14629121 14738522 14848293 
2435.350 14959498 15072893 15189097 15308421 15431383 15557917 15687441 
2438.725 15819136 15951660 16083365 16213220 16340394 16464474 16585458 
2442.101 16703272 16817848 16929178 17037196 17142346 17244936 17345892 
2445.476 17445046 17542290 17637002 17728146 17814890 17897438 17976272 
2448.851 18053084 18129736 18207196 18286156 18365856 18444914 18521704 
2452.226 18594774 18663426 18727490 18787860 18845714 18902710 18961030 
2455.602 19022298 19088354 19160236 19238676 19323436 19414276 19510230 
2458.977 19610570 19714786 19822076 19931928 20043330 20155422 20266990 
2462.352 20377472 20486908 20596440 20707596 20822398 20941820 21066770 
2465.727 21197740 21334388 21477622 21628914 21789982 21963652 22151828 
2469.103 22355436 22574110 22806234 23049456 23301062 23558760 23820462 
2472.478 24084422 24349178 24612688 24873482 25130396 25382298 25628934 
2475.853 25870328 26105982 26335002 26555902 26766448 26963980 27145870 
2479.228 27309808 27453650 27576392 27677096 27756208 27814032 27851974 
2482.604 27871442 27873948 27861124 27834134 27794074 27742186 27680064 
2485.979 27609404 27532122 27449978 27364078 27274664 27181566 27083904 
2489.354 26981362 26873238 26759718 26640870 26516206 26384960 26245626 
2492.729 26096164 25934444 25759002 25568976 25364348 25146054 24914782 
2496.104 24671674 24417940 24154720 23883366 23605426 23322492 23036108 
2499.480 22747852 22458496 22169332 21880920 21593986 21309436 21028026 
2502.855 20750274 20476174 20206030 19939870 19678174 19422072 19173394 
2506.230 18934136 18706596 18492210 18291202 18103204 17926962 17761280 
2509.605 17605636 17459982 17324996 17201358 17089612 16989402 16899966 
2512.981 16820156 16748864 16685609 16630590 16584013 16546525 16518164 
2516.356 16498581 16487258 16483093 16485881 16495207 16511487 16534582 
2519.731 16564494 16600743 16642295 16687399 16734883 16783130 16831072 
2523.106 16877986 16923840 16969076 17014006 17059182 17104330 17149240 
2526.482 17192156 17231626 17265690 17292616 17311754 17322962 17326754 
2529.857 17323892 17314686 17299342 17277274 17247692 17210494 17165508 
2533.232 17113738 17056630 16995950 16933244 16870202 16807376 16745489 
2536.607 16684713 16624840 16565733 16507426 16449917 16393965 16340636 
2539.983 16291337 16247684 16210847 16180547 16155818 16133742 16111184 
2543.358 16084844 16052388 16013158 15968161 15919866 15871130 15824875 
2546.733 15783571 15747562 15716882 15690567 15666865 15644468 15622176 
2550.108 15598821 15573989 15547408 15519214 15489889 15459879 15429632 
2553.484 15399626 15370653 15343157 15318031 15296442 15279659 15268196 
2556.859 15262396 15261504 15263976 15267922 15271286 15271869 15268540 
2560.234 15260337 15246885 15228319 15204847 15177088 15146139 15113923 
2563.609 15082292 15053340 15028437 15007926 14991429 14977606 14965157 
2566.985 14953359 14942111 14931994 14924381 14920163 14919752 14923010 
2570.360 14929251 14937447 14946980 14957646 14969444 14982648 14997087 
2573.735 15012556 15028437 15044216 15059515 15074059 15088159 15102430 
2577.110 15117148 15133033 15150736 15170637 15193284 15218779 15246816 
2580.486 15276673 15307529 15338283 15368662 15398837 15429872 15462901 
2583.861 15499470 15539715 15583193 15628463 15673941 15717741 15759485 
2587.236 15798999 15837692 15876869 15918009 15962111 16009618 16060295 
2590.611 16113590 16168578 16224157 16279090 16332412 16383300 16430888 
2593.987 16475452 16517442 16557643 16597128 16636614 16676277 16716184 
2597.362 16755786 16794426 16832036 16868378 16903582 16938170 16972486 
2600.737 17006872 17041848 17077826 17115014 17153996 17194842 17237866 
2604.112 17283100 17330616 17380344 17432560 17487542 17545326 17606360 
2607.488 17670612 17737810 17808090 17881244 17957106 18035710 18116850 
2610.863 18199628 18283426 18367412 18450758 18533322 18615696 18698330 
2614.238 18782464 18868624 18956840 19046600 19137210 19227558 19316716 
2617.613 19404334 19489990 19573378 19654216 19731914 19806194 19877154 
2620.989 19945040 20010716 20075290 20139388 20203322 20267058 20329726 
2624.364 20390702 20449326 20505284 20558640 20609710 20658564 20705094 
2627.739 20749162 20790732 20829698 20866722 20902600 20938378 20974958 
2631.114 21012828 21051884 21091744 21131190 21169282 21205012 21237578 
2634.490 21266598 21291966 21314410 21334318 21352484 21369644 21386246 
2637.865 21402884 21419696 21437380 21456214 21477134 21500636 21527340 
2641.240 21557666 21591270 21627556 21665764 21705540 21746398 21788656 
2644.615 21832764 21879178 21928348 21979964 22033816 22089280 22145832 
2647.990 22203156 22261188 22320064 22379890 22440526 22501974 22563708 
2651.366 22625384 22686718 22747572 22808120 22868364 22928334 22988350 
2654.741 23048686 23109172 23170398 23232404 23294734 23357176 23419242 
2658.116 23480270 23539904 23598256 23655354 23711968 23768418 23825398 
2661.491 23883014 23941342 24000096 24059034 24117802 24176160 24233790 
2664.867 24290130 24345040 24398382 24450538 24501788 24552868 24604342 
2668.242 24656416 24708780 24760866 24811980 24861518 24909622 24956752 
2671.617 25004132 25052884 25104206 25158800 25217050 25278718 25343730 
2674.992 25411350 25481196 25552388 25624330 25696178 25767440 25838186 
2678.368 25908978 25980416 26053836 26130120 26209794 26292968 26379538 
2681.743 26468944 26560904 26655348 26751718 26849834 26949244 27048992 
2685.118 27148550 27247394 27345834 27444650 27545466 27649270 27757126 
2688.493 27869180 27984724 28102632 28221704 28341268 28460972 28581238 
2691.869 28702636 28825980 28951766 29080496 29211990 29346540 29483684 
2695.244 29623424 29765022 29908332 30052576 30197544 30343092 30489260 
2698.619 30636864 30786508 30938732 31094316 31253270 31415596 31580654 
2701.994 31747770 31915660 32083548 32250326 32415412 32578458 32739814 
2705.370 32899622 33058916 33218090 33377894 33538326 33699648 33861384 
2708.745 34023756 34186688 34350540 34515712 34682528 34851024 35021088 
2712.120 35192628 35365736 35540144 35716240 35893952 36073068 36253088 
2715.495 36433220 36612268 36789340 36963452 37133772 37300112 37462188 
2718.871 37619872 37773320 37923164 38070028 38215128 38360096 38506416 
2722.246 38656152 38810652 38971476 39139760 39316268 39501228 39694580 
2725.621 39895396 40102772 40315408 40532300 40752788 40976740 41204380 
2728.996 41435852 41670844 41908736 42147744 42385896 42621216 42852064 
2732.372 43077244 43296216 43508736 43714436 43912684 44102544 44283248 
2735.747 44453748 44613736 44762768 44900972 45028712 45146488 45255212 
2739.122 45355980 45450336 45540444 45628248 45716444 45806788 45901904 
2742.497 46002936 46111988 46230168 46358956 46499148 46651188 46814980 
2745.873 46989468 47173184 47364256 47559960 47757676 47953896 48145276 
2749.248 48327704 48497688 48651876 48787616 48903300 48998056 49071692 
2752.623 49124520 49156652 49168820 49161032 49133684 49086792 49020128 
2755.998 48932892 48823208 48689380 48528848 48340000 48121808 47874236 
2759.374 47598336 47295792 46968348 46618096 46247228 45858192 45454164 
2762.749 45039000 44617152 44193220 43772412 43359108 42957212 42570780 
2766.124 42202840 41856632 41534936 41240520 40974812 40739248 40534116 
2769.499 40359152 40213404 40095976 40005176 39939568 39897140 39875456 
2772.875 39871968 39883736 39907748 39940876 39980324 40023232 40066688 
2776.250 40108224 40145112 40175096 40196284 40207372 40207588 40196356 
2779.625 40173784 40139912 40095612 40042236 39981452 39915812 39847964 
2783.000 39780416 39715240 39653960 39597332 39545756 39499052 39456848 
2786.375 39418316 39382000 39345576 39306220 39259972 39203652 39134356 
2789.751 39050100 38950600 38836524 38709436 38571808 38425976 38275156 
2793.126 38122112 37970284 37822984 37683872 37556216 37442824 37346188 
2796.501 37268160 37209824 37172248 37155716 37160700 37186864 37234336 
2799.876 37302536 37391112 37499968 37628620 37776284 37942256 38124608 
2803.252 38320968 38528864 38745476 38968432 39196292 39427896 39662236 
2806.627 39898412 40134496 40367840 40595340 40813132 41017600 41205324 
2810.002 41373128 41518500 41638972 41732268 41796652 41830984 41834996 
2813.377 41809568 41756232 41677884 41577636 41459292 41326952 41185032 
2816.753 41038392 40891764 40749804 40617096 40497744 40395476 40313376 
2820.128 40254480 40220744 40213584 40233320 40279092 40348716 40438932 
2823.503 40545720 40664288 40790312 40919432 41047568 41171156 41286904 
2826.878 41392004 41484156 41561700 41623436 41669460 41699692 41715196 
2830.254 41717092 41707024 41687148 41659868 41627700 41592916 41557580 
2833.629 41522688 41488712 41455392 41422588 41390256 41358876 41328848 
2837.004 41300788 41274952 41251452 41230284 41211628 41197272 41189300 
2840.379 41191372 41208096 41243652 41302244 41387448 41502164 41649620 
2843.755 41833428 42058192 42328912 42650828 43027268 43459072 43942892 
2847.130 44470412 45027168 45593728 46146844 46659340 47105188 47460748 
2850.505 47706792 47832396 47834764 47719880 47500776 47196452 46829484 
2853.880 46422336 45997224 45573892 45167224 44788628 44444976 44138492 
2857.256 43868216 43630420 43420108 43231608 43059684 42900152 42749168 
2860.631 42604260 42463020 42322664 42180860 42034832 41882208 41721504 
2864.006 41552512 41376624 41196728 41017272 40844108 40682592 40539064 
2867.381 40418748 40326024 40264224 40235140 40239028 40274620 40339080 
2870.757 40427476 40533496 40649736 40768292 40881572 40983444 41069568 
2874.132 41137896 41188676 41223324 41244020 41253128 41252144 41242380 
2877.507 41224560 41199172 41167656 41131120 41091892 41052120 41013736 
2880.882 40978564 40947828 40922420 40902976 40889688 40882260 40879896 
2884.258 40881204 40883900 40885464 40883204 40874944 40859616 40837776 
2887.633 40811532 40784596 40761304 40746564 40745148 40761232 40798576 
2891.008 40861220 40953256 41080820 41251708 41475260 41763676 42129780 
2894.383 42586240 43144828 43813236 44593028 45476164 46443504 47462376 
2897.759 48485388 49457528 50316500 51000704 51461516 51665944 51603920 
2901.134 51288244 50753800 50050052 49230572 48351776 47462484 46600500 
2904.509 45794824 45064364 44419320 43865212 43402644 43030232 42744596 
2907.884 42541180 42415924 42364232 42383084 42469888 42622316 42838568 
2911.260 43115592 43449040 43832736 44258112 44714068 45187592 45662960 
2914.635 46123040 46551480 46932724 47255040 47511648 47700984 47826888 
2918.010 47896432 47919264 47904168 47858108 47784828 47685044 47556636 
2921.385 47396296 47201696 46972408 46711808 46427132 46129488 45833300 
2924.760 45552548 45301436 45090500 44926548 44811732 44744000 44718476 
2928.136 44727252 44761444 44811956 44869632 44925960 44973732 45006552 
2931.511 45019120 45007760 44970056 44904060 44809052 44684832 44531680 
2934.886 44351168 44145568 43918220 43673544 43416704 43152696 42886804 
2938.261 42624544 42370736 42130548 41909064 41710636 41539240 41397476 
2941.637 41286504 41205472 41151628 41120156 41103948 41094260 41081036 
2945.012 41052304 40997352 40905816 40770296 40587520 40359044 40091292 
2948.387 39794360 39481668 39167136 38863264 38580968 38327560 38106704 
2951.762 37919588 37764900 37639784 37541152 37465364 37409676 37371176 
2955.138 37347888 37337740 37339256 37351136 37372332 37402196 37440264 
2958.513 37486748 37542052 37606180 37679172 37760560 37849340 37944644 
2961.888 38045396 38150944 38260936 38375332 38493744 38615480 38739464 
2965.263 38864100 38988044 39110280 39230888 39350508 39470784 39593412 
2968.639 39720176 39853124 39993588 40143804 40305592 40481412 40673276 
2972.014 40882480 41109048 41350932 41604476 41863452 42120216 42366572 
2975.389 42592896 42790628 42952384 43072564 43147796 43178424 43167924 
2978.764 43122400 43050132 42961272 42864824 42770592 42685880 42615992 
2982.140 42563800 42529340 42509752 42499708 42491956 42478148 42449536 
2985.515 42398608 42318976 42206748 42060384 41880420 41669896 41433704 
2988.890 41177528 40908436 40632816 40356388 40083548 39816876 39557296 
2992.265 39304804 39058728 38818624 38584228 38355644 38132532 37913836 
2995.641 37697640 37480792 37259788 37031140 36792044 36541656 36280604 
2999.016 36011144 35736420 35459708 35184144 34911812 34644164 34381992 
3002.391 34125248 33874424 33629864 33391990 33161792 32940154 32727736 
3005.766 32525282 32332950 32150588 31978108 31815040 31660906 31514808 
3009.142 31375810 31242554 31113430 30987052 30861884 30737178 30612864 
3012.517 30489366 30367718 30249334 30135070 30025626 29921252 29821586 
3015.892 29726272 29634920 29547270 29462798 29381142 29301732 29223828 
3019.267 29147000 29071142 28996396 28924106 28855652 28792556 28736336 
3022.643 28688088 28648198 28617336 28595960 28584812 28584988 28597730 
3026.018 28623706 28663028 28714600 28776730 28846164 28918934 28990516 
3029.393 29056086 29110540 29149550 29169608 29168686 29146822 29105686 
3032.768 29048716 28979890 28903494 28822898 28740514 28657540 28574408 
3036.144 28491292 28408262 28325848 28244722 28165770 28089872 28017766 
3039.519 27949634 27885786 27826184 27770796 27719654 27672894 27630590 
3042.894 27592916 27559762 27530848 27505962 27484606 27466216 27450510 
3046.269 27437202 27426332 27418214 27413414 27412354 27415284 27422168 
3049.645 27432296 27445214 27459968 27475924 27492654 27509916 27527426 
3053.020 27545114 27563152 27581688 27601496 27623494 27648812 27678510 
3056.395 27713226 27752500 27795628 27841306 27888188 27935500 27983380 
3059.770 28032470 28083262 28136426 28191898 28249248 28307704 28366698 
3063.146 28426444 28487576 28551230 28618752 28690954 28768020 28849280 
3066.521 28933740 29019988 29106820 29192748 29276426 29355934 29429500 
3069.896 29495210 29551776 29598700 29637082 29668656 29696328 29722654 
3073.271 29749868 29779002 29810302 29842702 29875036 29906094 29935166 
3076.646 29962288 29988206 30014016 30040964 30070224 30102538 30137804 
3080.022 30175558 30214486 30253528 30291220 30327104 30361250 30393978 
3083.397 30426460 30460222 30496440 30536500 30581150 30631068 30686290 
3086.772 30746460 30810696 30878000 30946808 31015806 31083890 31150772 
3090.147 31216668 31282540 31349596 31418872 31490900 31565330 31641412 
3093.523 31718146 31794324 31869482 31943944 32018378 32094252 32173388 
3096.898 32257036 32346052 32440442 32539136 32640464 32742460 32843154 
3100.273 32941226 33036176 33128176 33218340 33308056 33398036 33488758 
3103.648 33580172 33671432 33762136 33852108 33941344 34030168 34119192 
3107.024 34208376 34297616 34386476 34474676 34562104 34649368 34737332 
3110.399 34827184 34919780 35015596 35114376 35215588 35318328 35421744 
3113.774 35525400 35628544 35730628 35830976 35928828 36023856 36116240 
3117.149 36206556 36295916 36385944 36477760 36572004 36668292 36765864 
3120.525 36863276 36959772 37054628 37148244 37241412 37335140 37429900 
3123.900 37526016 37622908 37719864 37815900 37910692 38004492 38098132 
3127.275 38192840 38289956 38390176 38493564 38599184 38705812 38811596 
3130.650 38915520 39016820 39115972 39213372 39310532 39408228 39507472 
3134.026 39608764 39711900 39816696 39922532 40029192 40135880 40242304 
3137.401 40347732 40451224 40552340 40650932 40747108 40841816 40936104 
3140.776 41031436 41128864 41229592 41334020 41442196 41553900 41668256 
3144.151 41783992 41900088 42015044 42128320 42239544 42349332 42458636 
3147.527 42568920 42681276 42795968 42912552 43029756 43146256 43260924 
3150.902 43373644 43484968 43595696 43707000 43819136 43931856 44044496 
3154.277 44156204 44266368 44375020 44482784 44590276 44698348 44806996 
3157.652 44915892 45024672 45133068 45241272 45349840 45459900 45571684 
3161.028 45685668 45800936 45916452 46030824 46143160 46252796 46360100 
3164.403 46465924 46571508 46677420 46784756 46892968 47001504 47109032 
3167.778 47214296 47316000 47413960 47508540 47601184 47693956 47788860 
3171.153 47887368 47990196 48096416 48204844 48313296 48420596 48525436 
3174.529 48627524 48726672 48823244 48917060 49008296 49097252 49184444 
3177.904 49271248 49359256 49449656 49543124 49639320 49737064 49834568 
3181.279 49930272 50023320 50113636 50201596 50287784 50372908 50457084 
3184.654 50540492 50623768 50707696 50793312 50881888 50973616 51068416 
3188.030 51164912 51261248 51356000 51448536 51538664 51627392 51715880 
3191.405 51804796 51894364 51984100 52073144 52161388 52248372 52334560 
3194.780 52419900 52504620 52587824 52669028 52747624 52823768 52897824 
3198.155 52971000 53044000 53117348 53190932 53264120 53336228 53407080 
3201.531 53476892 53546680 53617600 53690144 53764540 53840560 53917420 
3204.906 53994740 54072344 54150216 54228032 54305336 54381152 54454388 
3208.281 54524520 54591732 54656808 54721412 54786884 54854060 54922264 
3211.656 54990664 55057384 55121708 55183444 55243528 55303780 55366180 
3215.031 55431716 55500688 55572228 55645028 55717496 55788172 55856180 
3218.407 55921148 55983076 56042708 56101144 56159584 56219396 56281516 
3221.782 56346584 56414492 56484184 56554644 56624888 56694580 56763712 
3225.157 56833460 56904732 56978436 57054600 57133016 57212916 57293592 
3228.532 57373896 57453312 57531040 57606892 57680296 57751668 57821576 
3231.908 57891268 57961956 58034512 58109428 58186252 58263656 58340656 
3235.283 58416116 58490000 58563100 58636400 58710964 58786752 58863432 
3238.658 58939780 59015080 59089140 59162760 59237488 59314776 59395232 
3242.033 59478512 59563256 59647596 59729600 59808876 59885580 59961424 
3245.409 60038308 60118368 60203084 60293140 60388248 60487600 60590180 
3248.784 60694456 60799028 60902744 61004504 61103848 61200844 61296076 
3252.159 61389952 61483160 61575776 61668340 61760616 61853216 61946256 
3255.534 62040652 62136600 62234064 62332388 62430504 62526920 62620684 
3258.910 62711088 62798188 62882512 62964784 63045300 63124492 63202864 
3262.285 63280552 63358604 63437396 63517504 63598440 63679040 63757584 
3265.660 63832260 63901968 63966156 64026124 64083920 64142028 64202404 
3269.035 64266404 64334028 64404352 64475992 64547488 64617692 64686328 
3272.411 64753480 64820060 64887612 64957372 65030456 65107048 65186352 
3275.786 65267324 65347924 65427156 65504364 65580188 65656148 65733664 
3279.161 65813816 65896636 65980792 66065228 66148608 66230952 66313708 
3282.536 66399136 66489720 66587232 66692188 66803776 66920072 67039572 
3285.912 67160992 67283688 67407928 67534104 67662320 67792592 67924728 
3289.287 68058416 68193928 68331768 68473184 68619184 68770904 68929192 
3292.662 69094696 69268032 69449872 69640224 69838960 70044712 70256016 
3296.037 70471000 70688008 70906576 71126960 71350304 71577792 71810256 
3299.413 72048392 72291544 72539456 72791312 73047552 73308288 73574448 
3302.788 73846456 74125208 74410784 74703936 75005256 75315288 75633632 
3306.163 75959936 76292176 76628504 76967432 77308568 77653168 78003600 
3309.538 78362056 78729976 79106488 79489136 79874216 80258816 80641680 
3312.914 81024272 81409768 81801928 82203528 82615360 83036048 83462688 
3316.289 83891952 84321960 84751720 85180888 85610120 86039488 86468888 
3319.664 86897704 87325752 87753056 88179648 88605112 89028144 89446584 
3323.039 89857848 90259872 90652104 91035376 91411704 91783496 92151664 
3326.415 92515760 92873432 93221952 93558960 93883104 94194080 94491928 
3329.790 94776088 95045096 95296896 95528912 95740224 95930760 96101472 
3333.165 96253496 96387016 96500416 96591424 96657024 96695608 96707616 
3336.540 96695320 96661864 96610048 96540856 96453000 96344040 96210248 
3339.916 96049336 95859904 95641720 95395736 95122880 94823944 94499376 
3343.291 94149504 93774248 93374296 92949720 92500216 92025504 91525616 
3346.666 91000896 90452960 89884456 89298984 88699464 88088680 87468264 
3350.041 86839016 86201704 85557256 84907040 84252760 83595656 82936216 
3353.417 82274160 81609240 80941432 80272288 79604656 78942376 78289440 
3356.792 77648656 77021752 76408592 75808248 75220240 74644208 74080720 
3360.167 73530560 72994504 72472144 71962504 71464272 70976248 70498128 
3363.542 70030544 69574464 69131600 68703432 68290544 67893272 67511496 
3366.917 67144472 66791452 66451220 66122176 65802328 65489872 65182924 
3370.293 64880072 64580360 64283080 63987152 63691816 63395640 63097520 
3373.668 62797004 62494168 62189480 61883552 61576428 61266736 60953068 
3377.043 60633344 60305820 59970100 59626616 59276264 58920200 58558132 
3380.418 58189244 57810940 57420900 57017312 56599260 56167772 55724580 
3383.794 55272432 54814212 54352160 53888124 53423568 52958872 52494004 
3387.169 52028468 51561944 51093948 50624736 50155364 49687352 49222444 
3390.544 48762184 48308260 47861176 47421868 46990648 46568336 46155356 
3393.919 45751564 45355724 44965500 44577460 44188264 43795312 43398324 
3397.295 42999024 42600604 42206896 41820584 41442632 41072224 40706936 
3400.670 40344280 39982504 39621504 39261820 38905224 38552724 38204560 
3404.045 37860224 37518572 37178528 36839760 36502156 36166472 35833060 
3407.420 35502640 35175164 34850736 34529308 34210956 33895740 33583720 
3410.796 33275250 32970432 32669936 32374538 32085300 31803380 31529236 
3414.171 31262814 31002816 30747242 30494094 30241236 29988346 29735604 
3417.546 29484040 29235028 28989666 28748478 28511530 28279024 28050990 
3420.921 27827810 27609828 27397392 27190386 26988062 26789602 26594402 
3424.297 26402286 26213524 26028436 25847400 25669814 25494372 25319352 
3427.672 25143106 24965070 24784968 24603886 24423232 24244194 24067298 
3431.047 23892678 23719808 23548580 23379134 23212132 23048582 22889424 
3434.422 22735352 22586220 22441050 22299030 22158662 22019246 21879838 
3437.798 21740302 21600358 21459868 21318866 21177422 21035468 20893804 
3441.173 20752638 20612492 20474160 20337922 20203774 20071160 19939386 
3444.548 19806990 19672938 19536604 19398304 19259180 19121488 18987888 
3447.923 18860456 18740082 18626176 18517072 18409930 18302710 18194030 
3451.299 18084068 17973718 17864362 17756862 17651356 17547224 17443218 
3454.674 17338616 17233490 17128490 17024824 16923872 16825526 16729236 
3458.049 16633654 16537199 16438941 16338570 16236849 16135084 16034303 
3461.424 15935436 15838414 15743338 15649861 15557779 15467605 15379372 
3464.800 15293491 15209960 15128641 15049155 14970713 14892559 14813700 
3468.175 14732900 14649305 14562027 14470620 14376117 14280161 14184671 
3471.550 14092249 14004364 13921388 13842910 13767147 13692698 13618227 
3474.925 13543564 13469152 13396086 13325732 13259146 13196636 13138266 
3478.301 13083013 13029575 12976281 12921287 12863330 12801832 12737749 
3481.676 12673096 12611147 12555312 12507738 12469170 12437526 12409705 
3485.051 12381305 12349021 12311046 12267895 12221237 12174346 12129811 
3488.426 12089232 12053563 12022564 11995926 11973344 11954509 11939149 
3491.802 11926445 11914662 11902130 11886942 11868349 11847169 11825446 
3495.177 11806174 11791841 11785031 11786598 11796437 11813597 11836443 
3498.552 11863650 11893651 11924981 11956621 11987854 12018272 12048352 
3501.927 12079318 12113150 12151516 12196155 12247480 12305491 12369543 
3505.302 12439061 12514012 12594127 12679544 12769585 12863262 12959417 
3508.678 13056993 13155377 13255662 13359387 13468503 13584414 13707470 
3512.053 13836581 13969734 14104400 14238560 14370911 14500699 14627338 
3515.428 14750279 14868351 14980007 15084111 15180347 15268917 15350812 
3518.803 15427195 15498680 15565163 15625164 15676895 15718291 15747186 
3522.179 15762405 15763231 15749281 15720146 15675556 15614619 15536693 
3525.554 15440584 15326407 15194278 15045657 14883507 14711409 14533417 
3528.929 14352896 14172073 13991087 13809354 13625065 13436958 13244013 
3532.304 13046613 12845377 12640893 12433128 12221646 12005907 11786121 
3535.680 11563486 11340898 11122501 10911861 10711408 10521945 10342065 
3539.055 10169213 10001041 9835714 9672786 9512732 9356799 9205760 9060053 
3542.912 8919232 8781870 8646377 8511028 8374133 8234884 8093552 7951559 
3546.770 7811872 7677929 7553502 7441446 7342158 7253741 7171775 7090667 
3550.627 7004692 6909813 6805126 6692456 6575677 6459939 6349410 6246807 
3554.485 6152530 6065531 5984025 5906061 5829790 5754170 5678060 5600923 
3558.342 5522524 5443368 5364629 5288553 5217588 5154414 5100367 5056284 
3562.199 5021087 4992161 4966152 4938604 4904388 4858046 4794723 4711412 
3566.057 4607555 4486682 4356371 4226869 4108042 4008108 3930331 3874263 
3569.914 3835284 3807741 3785680 3763654 3737987 3706272 3667776 3622568 
3573.772 3572219 3519138 3465562 3414029 3366110 3322635 3282938 3245648 
3577.629 3208462 3169643 3127890 3083306 3036590 2989546 2944175 2902144 
3581.487 2865087 2833836 2809290 2791549 2779877 2772474 2766339 2757335 
3585.344 2740096 2710355 2664846 2603908 2531381 2454268 2381699 2321034 
3589.201 2276699 2249487 2236331 2231935 2229937 2224808 2212252 2190040 
3593.059 2158171 2118880 2075730 2032618 1993372 1960319 1934525 1915988 
3596.916 1903042 1894156 1886768 1878915 1868199 1853358 1834025 1811167 
3600.774 1786712 1763390 1744094 1730921 1725498 1727694 1736942 1751613 
3604.631 1769112 1786346 1799654 1804978 1798390 1777563 1742364 1695693 
3608.489 1643605 1593353 1551486 1520861 1500878 1487213 1474280 1456892 
3612.346 1432391 1401974 1369798 1341314 1321704 1313662 1316287 1326258 
3616.203 1337724 1345269 1343108 1327388 1296579 1252083 1198320 1142239 
3620.061 1091779 1053414 1030929 1024652 1031693 1047868 1069026 1092078 
3623.918 1116726 1144099 1175528 1211079 1247098 1277271 1290764 1276374 
3627.776 1226829 1143369 1038900 934257 851484 802850 788975 800825 825855 
3632.115 852579 872068 880302 877314 865693 849359 831465 814269 798501 
3636.455 784527 772876 764146 759565 759565 763416 769623 776162 781041 
3640.794 783099 782734 781373 781771 786319 797539 816593 843184 875587 
3645.134 910748 944252 971283 985994 983836 961187 917289 854339 778120 
3649.474 697501 622670 564407 531032 526952 551169 598083 658906 722259 
3653.813 776958 812875 823066 805838 766403 715887 667567 633255 618953 
3658.153 624263 644272 671317 698795 720799 734042 737394 731619 719206 
3662.492 703375 688142 677589 675100 682932 701981 731088 767498 806402 
3666.832 841989 866822 873927 857227 814336 749210 673905 606942 566597 
3671.172 565369 604586 674868 758437 834088 881829 884950 837375 747019 
3675.511 637237 537003 468204 437656 438153 455998 478155 496897 510597 
3679.851 522108 535643 554155 577578 603392 628178 650012 669956 691361 
3684.190 718111 751998 791033 829872 860381 874425 866988 838105 794153 
3688.530 744961 700454 666571 643309 627017 613445 600571 589523 583385 
3692.870 585309 596656 615503 638465 660498 677456 687644 691826 693319 
3697.209 696173 702844 713829 726541 736033 736863 724748 698430 660167 
3701.549 616166 574725 543373 527781 529672 547719 578076 616399 658607 
3705.888 701716 744231 785190 824228 860381 892221 916725 930306 929542 
3710.228 911479 875853 825291 766038 706163 654193 616830 597121 594400 
3714.568 605383 624661 646893 666970 681936 689934 691427 687976 681837 
3718.907 675000 668828 664149 660930 659802 661295 665410 672876 682600 
3723.247 692987 701516 705067 701284 689901 672810 654393 641219 639692 
3727.586 654127 685753 731519 785556 840030 887241 921075 939271 943189 
3731.926 937544 928181 918750 908391 892155 862838 816892 755582 687412 
3736.266 625822 583252 566829 575654 603591 643409 689901 741111 798867 
3740.605 864797 937943 1011400 1072048 1101910 1084870 1013027 897965 770718 
3744.945 673076 634682 660996 735801 832528 923963 987090 1007913 982075 
3749.284 915762 823133 721595 627216 550207 496565 469763 471421 501043 
3753.624 554587 625092 702446 776294 838470 883555 910084 920245 917655 
3757.964 905967 887639 864166 837673 811912 793622 788775 802153 833026 
3762.303 876019 921407 958697 979817 981444 965770 940666 915662 898596 
3766.643 891457 891491 892155 887108 871935 846869 815929 785921 763283 
3770.982 752130 752960 763714 780610 800128 819647 838304 855866 873064 
3775.322 890793 908955 926421 940666 948635 947573 936017 915131 888735 
3779.662 862871 843317 833623 833723 840196 848064 852148 849326 839532 
3784.001 825291 810452 798966 792726 791796 794120 797539 800891 803779 
3788.341 807697 814137 823996 837541 854040 872367 891690 911313 930771 
3792.680 949001 964010 972910 973043 963180 944717 922602 904440 898795 
3797.020 911512 943223 988352 1036774 1074872 1088623 1068162 1009839 922104 
3801.360 823199 738755 690664 688872 728930 796078 870939 932829 966235 
3805.699 962416 923067 860215 793721 743733 722790 732482 766005 813207 
3810.039 864897 915496 963578 1011101 1059858 1109584 1156425 1192506 
3813.896 1209252 1199051 1160810 1101744 1038867 991972 976463 996721 
3817.754 1045642 1106860 1159980 1186359 1171840 1112175 1015718 904240 
3821.611 806535 744662 729030 755085 808792 873230 933095 978954 1007182 
3825.951 1019869 1023788 1026910 1035412 1051554 1073875 1098389 1121044 
3829.808 1138086 1148418 1152405 1152239 1150877 1151043 1154764 1163667 
3833.666 1177555 1194931 1213139 1227427 1232345 1222841 1195994 1153169 
3837.523 1100349 1046938 1003297 976131 967530 974139 989747 1006485 1018242 
3841.863 1021364 1015087 1001105 983769 968228 959295 960889 974570 1000374 
3846.202 1035745 1077429 1122240 1167687 1213106 1259094 1306948 1355738 
3850.060 1402240 1437610 1449512 1423083 1345933 1215199 1044646 866125 
3853.917 717314 625922 599443 626784 688540 765440 844612 917987 981843 
3858.257 1035147 1077595 1108687 1128253 1137256 1138053 1134033 1129150 
3862.114 1125828 1123802 1120114 1111577 1096695 1078260 1063412 1060722 
3865.971 1076599 1111012 1156956 1201443 1230251 1230750 1198420 1138319 
3869.829 1066866 1004824 967630 960457 977094 1005190 1031394 1046539 
3873.686 1048167 1041059 1034449 1037804 1057267 1093473 1141475 1192672 
3877.544 1238558 1270692 1283752 1276341 1251817 1218588 1187356 1168784 
3881.401 1170212 1192572 1229686 1270725 1302960 1313628 1295084 1246866 
3885.259 1179116 1109683 1058496 1040660 1060223 1110547 1177322 1243543 
3889.116 1294153 1317184 1308112 1270027 1213638 1153202 1103206 1073609 
3892.973 1068261 1085135 1119649 1165827 1217791 1270459 1319611 1360890 
3896.831 1390473 1404933 1402573 1383825 1352448 1314459 1277504 1247597 
3900.688 1228191 1217924 1212608 1205165 1190413 1165794 1133336 1098788 
3904.546 1069856 1053049 1051521 1064209 1087062 1114567 1141110 1162837 
3908.403 1178153 1187290 1191808 1193569 1195197 1198553 1205929 1219087 
3912.260 1239156 1265940 1297643 1330478 1359660 1379870 1387349 1380534 
3916.118 1361489 1334533 1305652 1280727 1263115 1253910 1252315 1255904 
3919.975 1263049 1272686 1284317 1297410 1311169 1324031 1333603 1338488 
3923.833 1337757 1332739 1325792 1320242 1319212 1324064 1334666 1349889 
3927.690 1367671 1385919 1402938 1417631 1428236 1433488 1431693 1421886 
3931.548 1404501 1381798 1357600 1337292 1324696 1322336 1329681 1343607 
3935.405 1359527 1373022 1380967 1382462 1379670 1375881 1375050 1379803 
3939.262 1390373 1404600 1418895 1428701 1430662 1423482 1408623 1390008 
3943.120 1372324 1360458 1357134 1362685 1374917 1390240 1404069 1412379 
3946.977 1412911 1405232 1391138 1373421 1355905 1341945 1333304 1330412 
3950.835 1332439 1337093 1342377 1346365 1348326 1348459 1347961 1348825 
3954.692 1352514 1359760 1370496 1382695 1394396 1403371 1408024 1408190 
3958.550 1405465 1402307 1400844 1403171 1409853 1420025 1431660 1442796 
3962.407 1451207 1456460 1458521 1458588 1458156 1458521 1460583 1464339 
3966.264 1469825 1476707 1484287 1492200 1500147 1507628 1514843 1521493 
3970.122 1528243 1535325 1543173 1551718 1560497 1568744 1575595 1580949 
3973.979 1584474 1587566 1591357 1597077 1605558 1616433 1628406 1639780 
3977.837 1648561 1653317 1653184 1648395 1639581 1627674 1614205 1600569 
3981.694 1587999 1577922 1571338 1568777 1570074 1574530 1581314 1588897 
3985.552 1596446 1603529 1610347 1616932 1623517 1629603 1634525 1636887 
3989.409 1636587 1633361 1628206 1622586 1618029 1615302 1614471 1614837 
3993.266 1615335 1614737 1612542 1608850 1604494 1600337 1597443 1596013 
3997.124 1596313 1597942 1600702 1604294 1608451 1612409 1615535 1617098 
##END=
