
##TITLE=mdmaHCL00398_9
##JCAMP-DX=5.01  $$ Nicolet v. 1
##DATATYPE=INFRARED SPECTRUM
##ORIGIN=UniL
##OWNER=Nicolet
##LONGDATE=2011/08/24
##TIME=09:56:07
##SPECTROMETER/DATA SYSTEM=Nicolet iS5
##DATA PROCESSING=
Ratio against background
%Transmittance->Absorbance
Truncated
ElementMultiply or ElementDivide
##COMMENTS=
Number of sample scans: 32
Collection length: 51.18 sec
Sample gain: 2.0
Background collected on: Mer Aout 24 09:54:19 2011 (GMT+02:00);
Number of background scans: 32
Background gain: 2.0
Sample spacing:  1.000
Number of scan points: 12415
Resolution points: 8192
Number of FFT points: 65536
Apodization: N-B fort;
Phase correction: Mertz;
Laser frequency: 15798.0 cm-1
Number of rejected sample scans: 0
Number of rejected background scans: 0
Bench serial number: ASB1000141;
##RESOLUTION=4.000
##XUNITS=1/CM
##YUNITS=ABSORBANCE
##FIRSTX=649.893372
##LASTX=4000.122314
##FIRSTY=0.091573
##MAXX=4000.122314
##MINX=649.893372
##MAXY=0.224233
##MINY=0.000458
##XFACTOR=1.000000
##YFACTOR=1.000000E-009
##NPOINTS=6950
##DELTAX=0.482117
##ZPD=6100
##XYDATA=(X++(Y..Y))
649.893 91572912 90855136 90177280 89553912 88981824 88450488 87953400 
653.268 87496920 87098296 86779488 86553968 86420168 86360176 86350760 
656.643 86372184 86416776 86489472 86599632 86750640 86933960 87128904 
660.018 87311904 87467168 87594120 87706672 87824960 87967312 88139704 
663.393 88336448 88541728 88737272 88907080 89033104 89095016 89068416 
666.767 88931720 88683504 88364184 88054680 87838272 87761816 87817136 
670.142 87953928 88104232 88202176 88204696 88095344 87889992 87624648 
673.517 87341104 87065616 86799848 86524120 86213096 85849840 85436304 
676.892 84991088 84538760 84098472 83674712 83258784 82836192 82397400 
680.267 81941920 81477440 81012056 80546976 80074704 79583160 79062840 
683.642 78516224 77958200 77412576 76900664 76431152 75998224 75583544 
687.016 75167688 74737824 74295456 73853688 73431752 73044176 72697568 
690.391 72389584 72114416 71867296 71649848 71467944 71328280 71233128 
693.766 71179032 71157560 71160872 71187928 71245512 71347032 71505208 
697.141 71728280 72014360 72354088 72734624 73146584 73587360 74060640 
700.516 74571616 75121680 75703672 76303352 76903280 77488064 78049920 
703.890 78587688 79103112 79596096 80060560 80486192 80862432 81184864 
707.265 81457936 81693856 81908304 82113976 82316536 82517304 82717288 
710.640 82923256 83149424 83414016 83730520 84099440 84501648 84900712 
714.015 85248736 85503600 85638488 85648456 85548904 85370360 85148760 
717.390 84917432 84709544 84560136 84506712 84595800 84874088 85375808 
720.765 86111280 87051080 88123104 89210400 90175240 90883968 91224720 
724.139 91142608 90646712 89815056 88769784 87657808 86619688 85752312 
727.514 85104536 84674800 84426384 84305064 84259280 84255304 84275608 
730.889 84316528 84378816 84461392 84557992 84661792 84768112 84878520 
734.264 84999552 85139080 85300632 85480400 85668272 85853440 86028632 
737.639 86194872 86360464 86535976 86728752 86938504 87157048 87372552 
741.013 87576160 87765272 87944352 88121280 88302832 88490136 88679032 
744.388 88862928 89037744 89204784 89370864 89543936 89728680 89923336 
747.763 90120728 90312168 90492184 90662848 90832096 91010448 91203672 
751.138 91410520 91621112 91823072 92005520 92164896 92305392 92436184 
754.513 92565736 92698048 92831704 92961824 93085712 93204088 93322864 
757.888 93449232 93589048 93742632 93905400 94070824 94234576 94397000 
761.262 94563560 94740768 94933552 95142024 95362760 95591792 95831848 
764.637 96094400 96404224 96795096 97301168 97952416 98761472 99714904 
768.012 100764992 101827592 102792280 103524056 103898752 103826400 
770.905 103274248 102284208 100969120 99496360 98035416 96732696 95680904 
774.279 94903296 94367720 94004704 93739912 93504992 93249920 92941720 
777.654 92549912 92039344 91371464 90503160 89401360 88051352 86459184 
781.029 84650480 82663576 80545536 78344840 76111088 73896256 71747280 
784.404 69705544 67802440 66054472 64465688 63030364 61738768 60581912 
787.779 59553984 58651988 57873932 57215976 56672528 56236404 55901172 
791.154 55663592 55524520 55487356 55556604 55735804 56027476 56432908 
794.528 56954860 57598492 58372680 59289368 60361708 61604456 63034460 
797.903 64670988 66540964 68679064 71123992 73914960 77077144 80606456 
801.278 84447832 88479568 92515304 96286216 99481856 101797512 102958432 
804.653 102801680 101308424 98623640 95025056 90872208 86543208 82325384 
808.028 78389760 74768480 71383112 68095008 64768792 61331336 57788344 
811.402 54223264 50757556 47525104 44630664 42129380 40033264 38315976 
814.777 36931812 35825216 34944056 34242720 33679668 33220664 32838612 
818.152 32513462 32235156 32000936 31812366 31671778 31578444 31528308 
821.527 31515590 31535044 31583894 31662368 31771864 31912952 32084584 
824.902 32284264 32510464 32764468 33051192 33378072 33751892 34177544 
828.277 34656364 35188600 35777072 36431056 37169544 38023332 39029836 
831.651 40231760 41671756 43380824 45371024 47619340 50059012 52560936 
835.026 54933396 56951648 58361916 58943120 58560672 57189176 54934184 
838.401 52001056 48670964 45227228 41909940 38904428 36310328 34158832 
841.776 32429658 31073852 30030278 29237188 28643066 28203460 27881476 
845.151 27650860 27492160 27393192 27347670 27350810 27396474 27476630 
848.525 27580064 27696450 27819226 27946666 28081918 28230402 28396764 
851.900 28582900 28787742 29009538 29247928 29505882 29789576 30105770 
855.275 30459868 30854554 31289912 31765488 32283660 32850050 33475478 
858.650 34174608 34963124 35860120 36887480 38069628 39435260 41011004 
862.025 42811472 44828264 47017712 49296376 51534820 53582964 55286052 
865.400 56505996 57157620 57217380 56733920 55814620 54617352 53326188 
868.774 52111100 51124992 50481052 50242772 50436096 51050152 52049276 
872.149 53374332 54948884 56682948 58462176 60159504 61642984 62778740 
875.524 63461168 63625440 63257860 62399096 61135584 59588264 57881808 
878.899 56136888 54452508 52889036 51472296 50191960 49013788 47889848 
882.274 46775196 45642716 44488400 43334432 42220148 41195780 40306684 
885.648 39583940 39042632 38681400 38487588 38443496 38532700 38742544 
889.023 39063292 39488308 40011244 40626484 41330304 42122732 43008680 
892.398 43997556 45102260 46336768 47713560 49243004 50931180 52777032 
895.773 54766476 56865716 59017092 61127764 63080432 64745904 65991440 
899.148 66715836 66862248 66428252 65464868 64068676 62368228 60495488 
902.523 58582056 56743928 55065736 53608568 52406664 51470508 50796256 
905.897 50370304 50176932 50200776 50430732 50859200 51482256 52297596 
909.272 53304352 54502092 55891376 57471772 59240300 61187232 63292168 
912.647 65519660 67823160 70146528 72432176 74634880 76727096 78705280 
916.022 80589736 82421440 84253160 86134992 88105576 90174144 92310144 
919.397 94428424 96392808 98031720 99146264 99562528 99168576 97944904 
922.771 95988912 93511704 90831112 88301040 86287544 85118000 85004912 
926.146 86032216 88116776 91026264 94378344 97697416 100520808 102425336 
929.521 103130488 102537904 100717064 97869600 94251008 90132464 85734744 
932.896 81213984 76680608 72206040 67848648 63673632 59749632 56150648 
936.271 52947756 50193932 47925256 46158560 44892856 44113620 43792088 
939.646 43886288 44330764 45035180 45892844 46774352 47549500 48106740 
943.020 48357184 48254936 47799068 47032112 46028392 44880360 43688236 
946.395 42537524 41493816 40599960 39872732 39310208 38897472 38614648 
949.770 38440164 38353872 38339356 38380364 38462212 38572208 38699728 
953.145 38837900 38984632 39141244 39311296 39497384 39701120 39922020 
956.520 40159028 40411696 40681316 40970332 41281112 41614464 41968512 
959.894 42339100 42722148 43114236 43514632 43925036 44347900 44784808 
963.269 45235244 45696456 46165044 46638608 47117044 47602440 48098336 
966.644 48607812 49132496 49672568 50227668 50798412 51386360 51995044 
970.019 52627320 53285772 53971216 54683944 55425016 56197600 57006920 
973.394 57859848 58762776 59719368 60730428 61794460 62909552 64075120 
976.768 65293088 66566884 67900360 69296600 70756872 72282464 73876584 
980.143 75545656 77299976 79151176 81109576 83182088 85369960 87668672 
983.518 90067312 92549176 95085432 97629784 100117816 102458016 104537920 
986.893 106243976 107464512 108115336 108155080 107587632 106465688 
989.786 104879360 102956584 100839832 98672960 96598208 94730224 93153704 
993.160 91922480 91055352 90546136 90370872 90499856 90902712 91552744 
996.535 92429544 93514744 94790344 96238984 97841992 99580864 101437440 
999.910 103389424 105406016 107444992 109445120 111332328 113028408 
1002.803 114455576 115554976 116293824 116669080 116708528 116467792 
1005.695 116028736 115485280 114942560 114508232 114273880 114315784 
1008.588 114686136 115409120 116488152 117909880 119654376 121697408 
1011.481 124015192 126584904 129379632 132369416 135524832 138815904 
1014.374 142218768 145714080 149277904 152873136 156435984 159862368 
1017.266 163021184 165760112 167927808 169414688 170168224 170216368 
1020.159 169663616 168693232 167546192 166474816 165741040 165571280 
1023.052 166124080 167495664 169703392 172700272 176383504 180620560 
1025.945 185270064 190179456 195205760 200209424 205042512 209564256 
1028.838 213638992 217145008 219995536 222136672 223547920 224233216 
1031.731 224210688 223507472 222155216 220196768 217686016 214682480 
1034.624 211250416 207448224 203323552 198921392 194288864 189483328 
1037.517 184584400 179685168 174885712 170290064 165986048 162044384 
1040.410 158518224 155435376 152798416 150577232 148707120 147080896 
1043.303 145552416 143965088 142158048 140003600 137435664 134456400 
1046.196 131140936 127613680 124040096 120590464 117413872 114639152 
1049.089 112351984 110596896 109382840 108687040 108464408 108653896 
1051.982 109192568 110019088 111076408 112317960 113698008 115166600 
1054.875 116667952 118131800 119475512 120617232 121474488 121978048 
1057.768 122081096 121758760 121015456 119883520 118428696 116744424 
1060.661 114942560 113154456 111506152 110109600 109059824 108420768 
1063.554 108229592 108498520 109216592 110350888 111844664 113622720 
1066.448 115585024 117611648 119582888 121377640 122893136 124058352 
1069.341 124828704 125188544 125142408 124708984 123913984 122785864 
1072.234 121356392 119656384 117715704 115566728 113244280 110790656 
1075.127 108263608 105732528 103280896 101003408 98988544 97318336 96059344 
1078.502 95252496 94915536 95037592 95581136 96475928 97621072 98896632 
1081.877 100157496 101258688 102078744 102527488 102572600 102240816 
1084.770 101617648 100826960 100012472 99327728 98904160 98847952 99233984 
1088.146 100095080 101426184 103181376 105284896 107629920 110089912 
1091.039 112541984 114863936 116950824 118723384 120118824 121092960 
1093.932 121618880 121681976 121284184 120443216 119195952 117595312 
1096.825 115707656 113616048 111408112 109173904 107001360 104957032 
1099.718 103080336 101374040 99803248 98299600 96774224 95145696 93350680 
1103.093 91364968 89208320 86943432 84663728 82471064 80472872 78760568 
1106.468 77400376 76437984 75892376 75761144 76024272 76648904 77593824 
1109.844 78808952 80243312 81842168 83545168 85290392 87007720 88618400 
1113.219 90045872 91214264 92059416 92539872 92635616 92351336 91710560 
1116.594 90753240 89529192 88091000 86495616 84796176 83037536 81257056 
1119.969 79478864 77716256 75975328 74259240 72573016 70927488 69338528 
1123.344 67826376 66412224 65113856 63944808 62913760 62025864 61285128 
1126.720 60697164 60269008 60010232 59929852 60034276 60325044 60795672 
1130.095 61431020 62204164 63077600 64004972 64929320 65793572 66546216 
1133.470 67147224 67579472 67850544 67993736 68059464 68110232 68210560 
1136.845 68411704 68750288 69238888 69865536 70592536 71360736 72100648 
1140.221 72732304 73180544 73384944 73298872 72896992 72172352 71133048 
1143.596 69799384 68200912 66378020 64377064 62250468 60056152 57847884 
1146.971 55675988 53584760 51607132 49768384 48085900 46569408 45223588 
1150.346 44048016 43038864 42188308 41486380 40922092 40484104 40162592 
1153.722 39949920 39840408 39829408 39913196 40087400 40347876 40691252 
1157.097 41115056 41618804 42203320 42869800 43618516 44447948 45354364 
1160.472 46332860 47377044 48479124 49629476 50814020 52012448 53199848 
1163.847 54343636 55407736 56356920 57155276 57771388 58179620 58359456 
1167.223 58299540 57998308 57465076 56719232 55788436 54706116 53505976 
1170.598 52220912 50882372 49517164 48150868 46807748 45508652 44273156 
1173.973 43117932 42055052 41093784 40240228 39497996 38869496 38356876 
1177.348 37961784 37685716 37529484 37493828 37579444 37787884 38122260 
1180.724 38587488 39189144 39932628 40822488 41860500 43046916 44378544 
1184.099 45849652 47447704 49150084 50922944 52713172 54451872 56062312 
1187.474 57458384 58561052 59308284 59656416 59589712 59119628 58285444 
1190.849 57146356 55775396 54255888 52664988 51073112 49540672 48112148 
1194.225 46821180 45692000 44739444 43972916 43395540 43004184 42787920 
1197.600 42726936 42793812 42951032 43154380 43358084 43512176 43570524 
1200.975 43494452 43252944 42829788 42224936 41455320 40551980 39556248 
1204.350 38515936 37475008 36472100 35537736 34690820 33942168 33295784 
1207.726 32750998 32304146 31949970 31682398 31494000 31377412 31326164 
1211.101 31335030 31401168 31523716 31702928 31939376 32232586 32581064 
1214.476 32982300 33432640 33927084 34459176 35019940 35596568 36175152 
1217.851 36739936 37276032 37772020 38219904 38615120 38956148 39242856 
1221.227 39476664 39660604 39800644 39905932 39988644 40064108 40147548 
1224.602 40252552 40390092 40566600 40784160 41040684 41330380 41644512 
1227.977 41971868 42301152 42623008 42932632 43232300 43532468 43851724 
1231.352 44212404 44640652 45161816 45797324 46566976 47487584 48573012 
1234.728 49836652 51289212 52938324 54787600 56836180 59079120 61507172 
1238.103 64107648 66862948 69746976 72727608 75763672 78808192 81817328 
1241.478 84751512 87580136 90283896 92849632 95266248 97521560 99597576 
1244.853 101469200 103105744 104466608 105504600 106169168 106405744 
1247.746 106167648 105423032 104159104 102385824 100132088 97442304 94367064 
1251.122 90962528 87291968 83421248 79425752 75388552 71389120 67507312 
1254.497 63814684 60365784 57203768 54354904 51828616 49620268 47711116 
1257.872 46071860 44661880 43433660 42337604 41320792 40336864 39348260 
1261.247 38328208 37264952 36158768 35021772 33872272 32732990 31627476 
1264.623 30575890 29594976 28696654 27887128 27167880 26535966 25985342 
1267.998 25507514 25093182 24734804 24425686 24161586 23939802 23758304 
1271.373 23615398 23509790 23440504 23408122 23414698 23464040 23560438 
1274.748 23707666 23906996 24156614 24449942 24774338 25112598 25440826 
1278.124 25730382 25953226 26082124 26098064 25993362 25772958 25453756 
1281.499 25059520 24618334 24155528 23691114 23239988 22811438 22411916 
1284.874 22047168 21723024 21445318 21219728 21050806 20941646 20895266 
1288.249 20914630 21003926 21168028 21411342 21736576 22143566 22628210 
1291.625 23182422 23793826 24446438 25117970 25781328 26406722 26961582 
1295.000 27417932 27757268 27973274 28074354 28081776 28026958 27944086 
1298.375 27867448 27828340 27850914 27953096 28145230 28428212 28792238 
1301.750 29215252 29666066 30103960 30485742 30773490 30936026 30955810 
1305.125 30829476 30567002 30189942 29726876 29212736 28681752 28165522 
1308.501 27690764 27275722 26929888 26655384 26449118 26305080 26217678 
1311.876 26182906 26198074 26261008 26368520 26516312 26698650 26910850 
1315.251 27149644 27413908 27704184 28021338 28364930 28733788 29126306 
1318.626 29541738 29981458 30448922 30947234 31477008 32032896 32603316 
1322.002 33169374 33705984 34187620 34589012 34889836 35079060 35157448 
1325.377 35139380 35051872 34934288 34831924 34786800 34835012 34997816 
1328.752 35279516 35668752 36143568 36678136 37246936 37831192 38418948 
1332.127 39003808 39584084 40160520 40735936 41314744 41902168 42503288 
1335.503 43120680 43752512 44390656 45022352 45629540 46192168 46691472 
1338.878 47109584 47432256 47650104 47758344 47758676 47658496 47471324 
1342.253 47214480 46908360 46576084 46239380 45919364 45634876 45399864 
1345.628 45224360 45113364 45066568 45076936 45129468 45202628 45266464 
1349.004 45287168 45233552 45079620 44811664 44430844 43955796 43420404 
1352.379 42869032 42356196 41936032 41655676 41552440 41643928 41926652 
1355.754 42373656 42940864 43570268 44197360 44764824 45222412 45533268 
1359.129 45677716 45652324 45471344 45164172 44777716 44371752 44009108 
1362.505 43752988 43649692 43719348 43951580 44307280 44727620 45137040 
1365.880 45458428 45618680 45553360 45223368 44620276 43773068 42740648 
1369.255 41604216 40451552 39354500 38368312 37524640 36833736 36293288 
1372.630 35895208 35632176 35499512 35494152 35610956 35838388 36158984 
1376.006 36552688 37000072 37488048 38010856 38569276 39169492 39821888 
1379.381 40541428 41346704 42259776 43303024 44489940 45814816 47241188 
1382.756 48700984 50090028 51280896 52147528 52565204 52437844 51716964 
1386.131 50421768 48655284 46590172 44449784 42437956 40697184 39296968 
1389.507 38235316 37467244 36927124 36550088 36277472 36057696 35848892 
1392.882 35614008 35323216 34959392 34520736 34022676 33489938 32947588 
1396.257 32411128 31882818 31357326 30829050 30301346 29791706 29329346 
1399.632 28945782 28666248 28499960 28440982 28473246 28578266 28739132 
1403.008 28943480 29184668 29459322 29765056 30099024 30456918 30833460 
1406.383 31225000 31630076 32050554 32490574 32954882 33446670 33966780 
1409.758 34512988 35081072 35666776 36266308 36877056 37496104 38119148 
1413.133 38739572 39349748 39943016 40516840 41074776 41626536 42186008 
1416.509 42769604 43393124 44069836 44808428 45608488 46456444 47324496 
1419.884 48173376 48961448 49649536 50208660 50623132 50890828 51028316 
1423.259 51070316 51069312 51080380 51148064 51296632 51525156 51816780 
1426.634 52148760 52504176 52873952 53257564 53660152 54091444 54564904 
1430.010 55098120 55715652 56444488 57306332 58311932 59454652 60714120 
1433.385 62059572 63462400 64904548 66376320 67877656 69409280 70967000 
1436.760 72534560 74091136 75619664 77106784 78541040 79903216 81163816 
1440.135 82275288 83176032 83803568 84094256 83993328 83462240 82476600 
1443.510 81034696 79161112 76915696 74387776 71682328 68919208 66209576 
1446.886 63648112 61314584 59258984 57498248 56012096 54753584 53663112 
1450.261 52688068 51802220 51011436 50351288 49867196 49596196 49543716 
1453.636 49678104 49927224 50189468 50353412 50304228 49966812 49344556 
1457.011 48544260 47737928 47085984 46691144 46583572 46752836 47173996 
1460.387 47818304 48652984 49634452 50709968 51808456 52841168 53717552 
1463.762 54350396 54683944 54714420 54496568 54123420 53689732 53274832 
1467.137 52926608 52665476 52494376 52403600 52373396 52372348 52358632 
1470.512 52282492 52092236 51753728 51268220 50684832 50084928 49554636 
1473.888 49156096 48913760 48827212 48885832 49080816 49407368 49860580 
1477.263 50428204 51085336 51794788 52515056 53201268 53816856 54339432 
1480.638 54761964 55096616 55369756 55618812 55883764 56205440 56627908 
1484.013 57196440 57958056 58957048 60221352 61750112 63497796 65376348 
1487.389 67244304 68917696 70199536 70884144 70802272 69866944 68097872 
1490.764 65631332 62675224 59461036 56177120 52940308 49815576 46821032 
1494.139 43959868 41251124 38736240 36484748 34580832 33094204 32058186 
1497.514 31461618 31264380 31412672 31854582 32547638 33453218 34533152 
1500.890 35749012 37056036 38406932 39755944 41046804 42213868 43176192 
1504.265 43814628 43976952 43490572 42213684 40131300 37424660 34434500 
1507.640 31498204 28821554 26456444 24360812 22468720 20731230 19125332 
1511.015 17654188 16332550 15170774 14170362 13319684 12600232 11991056 
1514.391 11473491 11031069 10647837 10308982 10003855 9728049 9486586 
1517.766 9289159 9143830 9049328 8992664 8949435 8894001 8808716 8697520 
1521.623 8586453 8512380 8501567 8556883 8661215 8788125 8915274 9029774 
1525.481 9133645 9239301 9363333 9516356 9698502 9902013 10117490 10340267 
1529.338 10572155 10819894 11090107 11384705 11699313 12023960 12347623 
1532.713 12664636 12978569 13301850 13646913 14019660 14415300 14821345 
1536.089 15221043 15598821 15943101 16244004 16494347 16686916 16815194 
1539.464 16872924 16858696 16781752 16660783 16517751 16368916 16218310 
1542.839 16056238 15864223 15625130 15330731 14989919 14625522 14267012 
1546.214 13936853 13641135 13370424 13105756 12828655 12530347 12216841 
1549.590 11907000 11624809 11386508 11194438 11038138 10901838 10773188 
1552.965 10648211 10532774 10438919 10377458 10350921 10352482 10366056 
1556.340 10371689 10345255 10259006 10086662 9813650 9456819 9069662 8721048 
1560.198 8457948 8289288 8198112 8155907 8135178 8111310 8068370 7999819 
1564.055 7910458 7814469 7729059 7667845 7633853 7619656 7610349 7591703 
1567.912 7552895 7491908 7415324 7336867 7271631 7230123 7217590 7233863 
1571.770 7276450 7341618 7423582 7514562 7601886 7670813 7707810 7706124 
1575.627 7672466 7626906 7596255 7598311 7636146 7699277 7772403 7841121 
1579.485 7896556 7935968 7960400 7972718 7974777 7966880 7948691 7920851 
1583.342 7886534 7852019 7823241 7805091 7798243 7799963 7805226 7810421 
1587.199 7814908 7820913 7832687 7853064 7882789 7920176 7962965 8010281 
1591.057 8064151 8128324 8206418 8298947 8402002 8508122 8609638 8701001 
1594.914 8781397 8854603 8926841 9004165 9089861 9185319 9291056 9409346 
1598.772 9545923 9708837 9906624 10146318 10431011 10760927 11133992 
1602.147 11547867 12000014 12485811 12996697 13516901 14023391 14489976 
1605.522 14887450 15189784 15378342 15443125 15385242 15215690 14954457 
1608.897 14625796 14253762 13862750 13474108 13105756 12772997 12485230 
1612.273 12245128 12048113 11884217 11739311 11597822 11445628 11271725 
1615.648 11072466 10854986 10637820 10446692 10304164 10223114 10204049 
1619.023 10237565 10308032 10397752 10491496 10577179 10650247 10714906 
1622.398 10783345 10870853 10989675 11144768 11332089 11542832 11768010 
1625.774 12002092 12242674 12488845 12738841 12988230 13231237 13462453 
1629.149 13679910 13885979 14085507 14283482 14482028 14678746 14866225 
1632.524 15034165 15170568 15262843 15301214 15280312 15204366 15088090 
1635.899 14955520 14832418 14734888 14667195 14621856 14585875 14544141 
1639.275 14483227 14395570 14280641 14146022 14004055 13868121 13746901 
1642.650 13641442 13544829 13444237 13324331 13170473 12973720 12733859 
1646.025 12463031 12184126 11926241 11717048 11573491 11500165 11490400 
1649.400 11530378 11600613 11675181 11723176 11704794 11579650 11326681 
1652.776 10972684 10599316 10297514 10116472 10046918 10050174 10084797 
1656.151 10122034 10146352 10152017 10140858 10117557 10086390 10049360 
1659.526 10004839 9949202 9877980 9787825 9678173 9551682 9415508 9279952 
1663.384 9156013 9053321 8977138 8927416 8898465 8880710 8862076 8828937 
1667.241 8768988 8674128 8542994 8382105 8205709 8031950 7877087 7751658 
1671.098 7659077 7595850 7553872 7520664 7482435 7423986 7333228 7206237 
1674.956 7052208 6892981 6753263 6651339 6590378 6561078 6546580 6531410 
1678.813 6506184 6470533 6432094 6401628 6387001 6387202 6390498 6375165 
1682.671 6317234 6199212 6023566 5818742 5630561 5496450 5427296 5410757 
1686.528 5423874 5446790 5464607 5469875 5461151 5439845 5409850 5376235 
1690.385 5345340 5323939 5318069 5331050 5361274 5401363 5437295 5452326 
1694.243 5430887 5365836 5266249 5158538 5076230 5040763 5053535 5095808 
1698.100 5140231 5155319 5115622 5012606 4863139 4708732 4591582 4535161 
1701.958 4535128 4571724 4620816 4662545 4683879 4677583 4644962 4593323 
1705.815 4534859 4480690 4438041 4409187 4392150 4383079 4377992 4374779 
1709.673 4372403 4372001 4374712 4381574 4392184 4405237 4418860 4431179 
1713.530 4441455 4449724 4455716 4457959 4452603 4433924 4396870 4340943 
1717.387 4273479 4209371 4166013 4155074 4179327 4232222 4302457 4377624 
1721.245 4447916 4507807 4556255 4596604 4633877 4673463 4719149 4772177 
1725.102 4832112 4897418 4966119 5035400 5102077 5162092 5211485 5247938 
1728.960 5272086 5288251 5302842 5320820 5343126 5364125 5370532 5343696 
1732.817 5267021 5133961 4958779 4774924 4623328 4531043 4501379 4519692 
1736.675 4564090 4614353 4654038 4673597 4671286 4652162 4625906 4603001 
1740.532 4590677 4590845 4601460 4617936 4636221 4653401 4668238 4680765 
1744.389 4691717 4701664 4710440 4717240 4720456 4718446 4709268 4691650 
1748.247 4664219 4625571 4574336 4509381 4431078 4342482 4249989 4163270 
1752.104 4091084 4039544 4009613 3997240 3994330 3990752 3977510 3948988 
1755.962 3905422 3853069 3802359 3763487 3741462 3735113 3737118 3738187 
1759.819 3728529 3702161 3657785 3600049 3537276 3479456 3434769 3407183 
1763.677 3396831 3400271 3412259 3426486 3436472 3437073 3425885 3404478 
1767.534 3378732 3357127 3347744 3353554 3371385 3392123 3403643 3395028 
1771.391 3360767 3304840 3239940 3182326 3143810 3128091 3130761 3143643 
1775.249 3158796 3172280 3183761 3195778 3210698 3229191 3248953 3266146 
1779.106 3276929 3280000 3276962 3272322 3270686 3273958 3281135 3288113 
1782.964 3290651 3285376 3271855 3252792 3232596 3215906 3205491 3202520 
1786.821 3207227 3219344 3238805 3265311 3297428 3331116 3360166 3377196 
1790.678 3375292 3351451 3308512 3255596 3204256 3165304 3144444 3141340 
1794.536 3151386 3168909 3188835 3207460 3223149 3234766 3241743 3243646 
1798.393 3239840 3230727 3217107 3201185 3185197 3171445 3161733 3156626 
1802.251 3156526 3161299 3171078 3185764 3204656 3226320 3249020 3270486 
1806.108 3289081 3304239 3316258 3326208 3334388 3340966 3344639 3344405 
1809.966 3339330 3329614 3317360 3305240 3295992 3291552 3292320 3296860 
1813.823 3303738 3311150 3318195 3325173 3332786 3342035 3354189 3369849 
1817.680 3388850 3410890 3435036 3460819 3487239 3514328 3542287 3571718 
1821.538 3603056 3636100 3669714 3701593 3728863 3749149 3762451 3771175 
1825.395 3780332 3794872 3817468 3847352 3879713 3906993 3921905 3920367 
1829.253 3903684 3879345 3858150 3850695 3862496 3892952 3936282 3984700 
1833.110 4031484 4072688 4107474 4137813 4166615 4196390 4228375 4262704 
1836.968 4299680 4339905 4385690 4439815 4504961 4582708 4672592 4771976 
1840.825 4876542 4981234 5079984 5167725 5240359 5297140 5341248 5379523 
1844.682 5420889 5471988 5535109 5607132 5681048 5747858 5799063 5829756 
1848.540 5838521 5827842 5802220 5765955 5721468 5668660 5605957 5531920 
1852.397 5446924 5354061 5258066 5164104 5076029 4995580 4922115 4854025 
1856.255 4789731 4728361 4669645 4613080 4557829 4502517 4445740 4387431 
1860.112 4329129 4273813 4224828 4184346 4152799 4128614 4109547 4093826 
1863.969 4080949 4072320 4069276 4071852 4077605 4082120 4079645 4066066 
1867.827 4040547 4007004 3972361 3944307 3928324 3925784 3934477 3949924 
1871.684 3968315 3987007 4004663 4020749 4034929 4045999 4052821 4054059 
1875.542 4049845 4040982 4029344 4016067 4002089 3986740 3969385 3949890 
1879.399 3928926 3908364 3890244 3875634 3864033 3853503 3841569 3826894 
1883.257 3810047 3794103 3782873 3779530 3784878 3796944 3811017 3821446 
1887.114 3823752 3814927 3795173 3766763 3734310 3703264 3678436 3664435 
1890.971 3663532 3675695 3698586 3728061 3758039 3782639 3797914 3802560 
1894.829 3798683 3790193 3781435 3775586 3772745 3771676 3769971 3767097 
1898.686 3763721 3762518 3765994 3775419 3789323 3804331 3815930 3821078 
1902.544 3819306 3812855 3805468 3801123 3802326 3809078 3820008 3833011 
1906.401 3846282 3858718 3870285 3880782 3890077 3897732 3903583 3908097 
1910.259 3912711 3918294 3925115 3932236 3937619 3939157 3936516 3930966 
1914.116 3926252 3925784 3931568 3942568 3955073 3963867 3964871 3957615 
1917.973 3945644 3935780 3933708 3942367 3959420 3979650 3996571 4005299 
1921.831 4005333 3999414 3992157 3988378 3990184 3996838 4006135 4015866 
1925.688 4025397 4035731 4048440 4064059 4081217 4096636 4106904 4110082 
1929.546 4106704 4099847 4093191 4089846 4090247 4092656 4094897 4095365 
1933.403 4094295 4094061 4096235 4101787 4109146 4115066 4117140 4114966 
1937.260 4111521 4112123 4122358 4144101 4175079 4208936 4237141 4252632 
1941.118 4252632 4239516 4220010 4202010 4192509 4194416 4208032 4231018 
1944.975 4261198 4296735 4336090 4377256 4417789 4454109 4483502 4505196 
1948.833 4520697 4533286 4546947 4564224 4584884 4606717 4626475 4641177 
1952.690 4649316 4651392 4648043 4640675 4629490 4614018 4594327 4571791 
1956.548 4549726 4532047 4522170 4521132 4527293 4536634 4544569 4547516 
1960.405 4544168 4535429 4522271 4506267 4488121 4468604 4449724 4434660 
1964.262 4426727 4429070 4441355 4460302 4480288 4495922 4505262 4510686 
1968.120 4518822 4535964 4566066 4606985 4651559 4691650 4720723 4737707 
1971.977 4747052 4756265 4771339 4794455 4822430 4849837 4873024 4893062 
1975.835 4916720 4952646 5008518 5084242 5170810 5254109 5320518 5359966 
1979.692 5371270 5358624 5329709 5291437 5246764 5196227 5138421 5074118 
1983.550 5007378 4945005 4893967 4860894 4847726 4852584 4871013 4897485 
1987.407 4926774 4954824 4978955 4995580 5001344 4994507 4974967 4945742 
1991.264 4913101 4883479 4862637 4852987 4853288 4859989 4869506 4880530 
1995.122 4892761 4908678 4929052 4952713 4975972 4993870 5002283 5000373 
1998.979 4989748 4975235 4960891 4950334 4943296 4938202 4932706 4925567 
2002.837 4917190 4909482 4903819 4901037 4900937 4903182 4908979 4922015 
2006.694 4946278 4985458 5038987 5102077 5164406 5216649 5250890 5265914 
2010.552 5265713 5258905 5255182 5260984 5279229 5308611 5345240 5384924 
2014.409 5423405 5458366 5486417 5504873 5511920 5507624 5494806 5480377 
2018.266 5472257 5477592 5500880 5541317 5594646 5654931 5717406 5779487 
2022.124 5840569 5900754 5957890 6006903 6041104 6054577 6044632 6014865 
2025.981 5972301 5927893 5891551 5869787 5865992 5879292 5907707 5948954 
2029.839 6001191 6061801 6126721 6190104 6246539 6291415 6323992 6347729 
2033.696 6367936 6390094 6416726 6446386 6475208 6498650 6514525 6523540 
2037.553 6529594 6536523 6546950 6560103 6572785 6581497 6583818 6579277 
2041.411 6569790 6558118 6545268 6531276 6514693 6494748 6472315 6450691 
2045.268 6434885 6429740 6438012 6460007 6492528 6531444 6572818 6612581 
2049.126 6646898 6671628 6682664 6676305 6652214 6613927 6569858 6530704 
2052.983 6507496 6507697 6531847 6573154 6621362 6664629 6695249 6711872 
2056.841 6718366 6721799 6728764 6742393 6762316 6784932 6806068 6822662 
2060.698 6834207 6841276 6844641 6844574 6840131 6830504 6815694 6797755 
2064.555 6779918 6765917 6757739 6755350 6755821 6755586 6751177 6741283 
2068.413 6726274 6708069 6688048 6667489 6646696 6625332 6604272 6585130 
2072.270 6570901 6564240 6566090 6575980 6591421 6608814 6625938 6641784 
2076.128 6656420 6671393 6687341 6704502 6721832 6738153 6752759 6765984 
2079.985 6778773 6792370 6807314 6823537 6840737 6858207 6876149 6895135 
2083.843 6915267 6936073 6955365 6969775 6976341 6973041 6960112 6940248 
2087.700 6917152 6894293 6873658 6855346 6837674 6819060 6799270 6779379 
2091.557 6762686 6752456 6750605 6757907 6773153 6794558 6820205 6848984 
2095.415 6880256 6912708 6944490 6972873 6994490 7007959 7012875 7011797 
2099.272 7008262 7006376 7008161 7014424 7024055 7035672 7048335 7062311 
2103.130 7079082 7099963 7125662 7155876 7189595 7225575 7263174 7302867 
2106.987 7344550 7387889 7431267 7471648 7505730 7531857 7549961 7562268 
2110.844 7572012 7582093 7593895 7606472 7617599 7624950 7627479 7626738 
2114.702 7625557 7628019 7637191 7654693 7679649 7709766 7741775 7772403 
2118.559 7798850 7818720 7830697 7833800 7828740 7817809 7805024 7795105 
2122.417 7793115 7802494 7824759 7858834 7902022 7951221 8003936 8058446 
2126.274 8114213 8170121 8224956 8276556 8322622 8361736 8393354 8418319 
2130.132 8438690 8456495 8473793 8491869 8512650 8538128 8570671 8611868 
2133.989 8661858 8718141 8776257 8830222 8875502 8910843 8937867 8961510 
2137.846 8987184 9016885 9049769 9081199 9105527 9118756 9120144 9112327 
2141.704 9100654 9089963 9082519 9077241 9071286 9061238 9045573 9025647 
2145.561 9003726 8982787 8963236 8943313 8919130 8888015 8848583 8803577 
2149.419 8756445 8711177 8668956 8627449 8582127 8526470 8456731 8370958 
2153.276 8270578 8158507 8038700 7914676 7791192 7674422 7574237 7503707 
2157.134 7475761 7498684 7573057 7686731 7819732 7948791 8054497 8126332 
2160.991 8162659 8169648 8156514 8131295 8100136 8064725 8024862 7979502 
2164.848 7926858 7866897 7799255 7725045 7646229 7565538 7486009 7411313 
2168.706 7343539 7283559 7229887 7179894 7130984 7081676 7033080 6988429 
2172.563 6951257 6924963 6910621 6907120 6911968 6921495 6931965 6940584 
2176.421 6944490 6939507 6922101 6889479 6840165 6777225 6706589 6636603 
2180.278 6575105 6527407 6494681 6473459 6457955 6443023 6426848 6410505 
2184.135 6396315 6387909 6386160 6389859 6395709 6400619 6402502 6402166 
2187.993 6402334 6406201 6416592 6434515 6459267 6489266 6521622 6554081 
2191.850 6583381 6606459 6619377 6619849 6606324 6580455 6546984 6511431 
2195.708 6480017 6458056 6447866 6449211 6459569 6476217 6495690 6515265 
2199.565 6532991 6545941 6552399 6551121 6542510 6528854 6514223 6502787 
2203.423 6497674 6500062 6508236 6519671 6531242 6542039 6552770 6564947 
2207.280 6580017 6597308 6614499 6628326 6635661 6636334 6632498 6627721 
2211.137 6626644 6631052 6640001 6650196 6657396 6658708 6653425 6643837 
2214.995 6633104 6624491 6619680 6618335 6618671 6618368 6615811 6609588 
2218.852 6599226 6584289 6565115 6542678 6519402 6499390 6487854 6488594 
2222.710 6502787 6528282 6558622 6585433 6602287 6605618 6596669 6580387 
2226.567 6563567 6551054 6544831 6542544 6540290 6534336 6522934 6507496 
2230.425 6491419 6478806 6472719 6473526 6479714 6488123 6496396 6503123 
2234.282 6508168 6512339 6516980 6523001 6531107 6542073 6556604 6575005 
2238.139 6597241 6621968 6646696 6668465 6684751 6693937 6696393 6693701 
2241.997 6688889 6684448 6682799 6684885 6692086 6704065 6721227 6743470 
2245.854 6770124 6799909 6830976 6861573 6890658 6918229 6944692 6970583 
2249.712 6995534 7017589 7033955 7042509 7042340 7035471 7025469 7017589 
2253.569 7016108 7022371 7034595 7048032 7057124 7057124 7045910 7024829 
2257.427 6997453 6968260 6941594 6919913 6903551 6891702 6881939 6872412 
2261.284 6861237 6847435 6831110 6813641 6797116 6784057 6776249 6774499 
2265.141 6778033 6784057 6789644 6791865 6789509 6783721 6777191 6773254 
2268.999 6774230 6780927 6791158 6802232 6810545 6813810 6811387 6804251 
2272.856 6794491 6783922 6774364 6766759 6762114 6761710 6765951 6775778 
2276.714 6790620 6808896 6828115 6845382 6858779 6867497 6872917 6876216 
2280.571 6879683 6884093 6889345 6894327 6897996 6899478 6899107 6897694 
2284.428 6895741 6893620 6890793 6886046 6878741 6868541 6856120 6842521 
2288.286 6828923 6816065 6803915 6792808 6782442 6774028 6769047 6769181 
2292.143 6775542 6787557 6803174 6818926 6831615 6838583 6838886 6833365 
2296.001 6823739 6812598 6801794 6792606 6785673 6780658 6777461 6776047 
2299.858 6776215 6777932 6780961 6784629 6788500 6792134 6795332 6797991 
2303.716 6799943 6801020 6800784 6798866 6795500 6791024 6786346 6782442 
2307.573 6780086 6779379 6779985 6781196 6782206 6782274 6781297 6779312 
2311.430 6776417 6773018 6769417 6765951 6763763 6763763 6766759 6773254 
2315.288 6782307 6792235 6800549 6804453 6802400 6793851 6779749 6762283 
2319.145 6743639 6726240 6711266 6699253 6689966 6681789 6673176 6661501 
2323.003 6643938 6618099 6582305 6536287 6482170 6423620 6365145 6311418 
2326.860 6265733 6229295 6201397 6179820 6162377 6147456 6135122 6126317 
2330.718 6122655 6125142 6133711 6147254 6163923 6181937 6200221 6218068 
2334.575 6235311 6251312 6265565 6276826 6284255 6287819 6288087 6286911 
2338.432 6286171 6287819 6292828 6301501 6313503 6328228 6344602 6361850 
2342.290 6379065 6395239 6409799 6423384 6437239 6454760 6480320 6518057 
2346.147 6571035 6639564 6721529 6812194 6905840 6996510 7078543 7147859 
2350.005 7201420 7237804 7256840 7260075 7249664 7228809 7200578 7167666 
2353.862 7132197 7095484 7058640 7023078 6990315 6962334 6941089 6927690 
2357.719 6922673 6924727 6932067 6942604 6954792 6967452 6980785 6995500 
2361.577 7011899 7030621 7051601 7074536 7099391 7126066 7154764 7185654 
2365.434 7218332 7252022 7286086 7319816 7352975 7386171 7420346 7456412 
2369.292 7495077 7536408 7579632 7624242 7669464 7715062 7761069 7808060 
2373.149 7855831 7904789 7954798 8005455 8056860 8108980 8161579 8214758 
2377.007 8267978 8320697 8372613 8422947 8471969 8519948 8567190 8613964 
2380.864 8659796 8704517 8747147 8787449 8825522 8861840 8897349 8932895 
2384.721 8968986 9005620 9042562 9079440 9115847 9151816 9187485 9223022 
2388.579 9258458 9293594 9327988 9361301 9393093 9423363 9452078 9479474 
2392.436 9505958 9532071 9558794 9587247 9618852 9654288 9693522 9735809 
2396.294 9778980 9820800 9859337 9893674 9924048 9951914 9978935 10006499 
2400.151 10035220 10065027 10095445 10125765 10156188 10187021 10219213 
2403.526 10253374 10289676 10328017 10368465 10411089 10456637 10506024 
2406.902 10559627 10616971 10676735 10736574 10794010 10847886 10897930 
2410.277 10946009 10994297 11044833 11098945 11156225 11215212 11273867 
2413.652 11330354 11383753 11433825 11481078 11526159 11569203 11610346 
2417.027 11649926 11687877 11724809 11760962 11796505 11831097 11863991 
2420.403 11894911 11923789 11951818 11980804 12012754 12049680 12091788 
2423.778 12138670 12188999 12241106 12294651 12349702 12407864 12470908 
2427.153 12540544 12617322 12700764 12789888 12883194 12979354 13077276 
2430.528 13176177 13275237 13374217 13472604 13570535 13668522 13767421 
2433.904 13867882 13970556 14075273 14181454 14288311 14395023 14501898 
2437.279 14609245 14718230 14829641 14943620 15059446 15175886 15291844 
2440.654 15405634 15516845 15625199 15730763 15833877 15934817 16033478 
2444.029 16130269 16225189 16318375 16409416 16497996 16583288 16664675 
2447.405 16741769 16815194 16885980 16955328 17024240 17092956 17160200 
2450.780 17224386 17283792 17337204 17385172 17429456 17472744 17518210 
2454.155 17568234 17624096 17686350 17754204 17827284 17904932 17986876 
2457.530 18072910 18163004 18257162 18354864 18456048 18560676 18668892 
2460.906 18780872 18896550 19015686 19137624 19261780 19387424 19514528 
2464.281 19643608 19775294 19910766 20051070 20197248 20350770 20512924 
2467.656 20685008 20868564 21064580 21272652 21492036 21720658 21956158 
2471.031 22196532 22439898 22685740 22933748 23184030 23436204 23689470 
2474.406 23942182 24192520 24438374 24678090 24910010 25133346 25347698 
2477.782 25552318 25746556 25929098 26098098 26251010 26385102 26497612 
2481.157 26586582 26651086 26691462 26709468 26707318 26688326 26654786 
2484.532 26609620 26555056 26493208 26426194 26355880 26283606 26210394 
2487.907 26135856 26058974 25977674 25889390 25792192 25684366 25564862 
2491.283 25434290 25293292 25143140 24984968 24819732 24647546 24468100 
2494.658 24280390 24082778 23873738 23651960 23416900 23168686 22908634 
2498.033 22638788 22361680 22080006 21796182 21512438 21230516 20951904 
2501.408 20677504 20408310 20144768 19886624 19633208 19383544 19136620 
2504.784 18891774 18649418 18410966 18179140 17956658 17746370 17550054 
2508.159 17368238 17200014 17043674 16897518 16759919 16630108 16508320 
2511.534 16394826 16290545 16195817 16110806 16035849 15970498 15914779 
2514.909 15868519 15831644 15803535 15784087 15772782 15769174 15773125 
2518.285 15784156 15801886 15825802 15854806 15887868 15924059 15962901 
2521.660 16004186 16048193 16094953 16144609 16196538 16249334 16301518 
2525.035 16350854 16395755 16434776 16467365 16493797 16514413 16530417 
2528.410 16542740 16552033 16558230 16560500 16557196 16546458 16526563 
2531.786 16496239 16455665 16405733 16348617 16286658 16222471 16157780 
2535.161 16093887 16031690 15971564 15914125 15859548 15808277 15760208 
2538.536 15715165 15672017 15629938 15588551 15547717 15508123 15470214 
2541.911 15434953 15402098 15371305 15341166 15310411 15277909 15242801 
2545.287 15205362 15165971 15125382 15084694 15044319 15005285 14967866 
2548.662 14932337 14898491 14866020 14834133 14801974 14769167 14735951 
2552.037 14703491 14673707 14648620 14630011 14618326 14612637 14610787 
2555.412 14610410 14608765 14604139 14596086 14584710 14571346 14557059 
2558.788 14542668 14528484 14514402 14499808 14483946 14466304 14446196 
2562.163 14423725 14398927 14372657 14345773 14319438 14294714 14272627 
2565.538 14254001 14239107 14227911 14220379 14216750 14216545 14219763 
2568.913 14225584 14233252 14241195 14248591 14254378 14258418 14260951 
2572.289 14262938 14265540 14269546 14275676 14284099 14294988 14308069 
2575.664 14323444 14340704 14359540 14379131 14398927 14418005 14435988 
2579.039 14452876 14469250 14486276 14505118 14526874 14552227 14581386 
2582.414 14613939 14649409 14687073 14725976 14765224 14803997 14841710 
2585.790 14878158 14913579 14948729 14984397 15021851 15061710 15104248 
2589.165 15149192 15195994 15243967 15292632 15342059 15392039 15442712 
2592.540 15494009 15545313 15596176 15645636 15692869 15737634 15779551 
2595.915 15818896 15855907 15891097 15924953 15957952 15990401 16022511 
2599.291 16054107 16084982 16114794 16143542 16171502 16199600 16229076 
2602.666 16261203 16297046 16336748 16380340 16426723 16474972 16524084 
2606.041 16574064 16624944 16677689 16733196 16792188 16855184 16922150 
2609.416 16992952 17067072 17144070 17223388 17304444 17386724 17469744 
2612.792 17553158 17636794 17720726 17804878 17889220 17973268 18056502 
2616.167 18138406 18218600 18297250 18375016 18452728 18531074 18610024 
2619.542 18688990 18766790 18842048 18913578 18981036 19044488 19105146 
2622.917 19163768 19221464 19278438 19334384 19388846 19441270 19490996 
2626.292 19538406 19583812 19627836 19671274 19714162 19756326 19797454 
2629.668 19837024 19874448 19909378 19942090 19972898 20002284 20030908 
2633.043 20059294 20087366 20115408 20142858 20169584 20194748 20218180 
2636.418 20239564 20258830 20276224 20292264 20307402 20322782 20339414 
2639.793 20358096 20379730 20404594 20432586 20463080 20495416 20528626 
2643.169 20562288 20596266 20630768 20666348 20703878 20744018 20787118 
2646.544 20833418 20882748 20934762 20989146 21045276 21102456 21159958 
2649.919 21217190 21273418 21328400 21381930 21434560 21486814 21539178 
2653.294 21592348 21646364 21701498 21757860 21815482 21873984 21933576 
2656.670 21993940 22054452 22114488 22173344 22230532 22285742 22339144 
2660.045 22391368 22443040 22494506 22546120 22597844 22649608 22701206 
2663.420 22752844 22804594 22856628 22909124 22961904 23014412 23066052 
2666.795 23116090 23163968 23209614 23253134 23295118 23336092 23376966 
2670.171 23418262 23460754 23504996 23551238 23599864 23650736 23703676 
2673.546 23758128 23813880 23870554 23928352 23987630 24049158 24113460 
2676.921 24181064 24252184 24326432 24403150 24481490 24560268 24639094 
2680.296 24717128 24794438 24871166 24947732 25024910 25103294 25183342 
2683.672 25265548 25349946 25436434 25524838 25614910 25706232 25798768 
2687.047 25892132 25986786 26082794 26180620 26281176 26384750 26492010 
2690.422 26603034 26717010 26833338 26950618 27067470 27183294 27298022 
2693.797 27412110 27526754 27643338 27762990 27886492 28014234 28145902 
2697.173 28281040 28418944 28558946 28700688 28843648 28987716 29132508 
2700.548 29278232 29424752 29571992 29720206 29869250 30018988 30169270 
2703.923 30319822 30470530 30621470 30772708 30924284 31076344 31228738 
2707.298 31381224 31533618 31686068 31838890 31992876 32148480 32306466 
2710.674 32466970 32629822 32794840 32961886 33130966 33302438 33476836 
2714.049 33654424 33835164 34018236 34202064 34384792 34564616 34739844 
2717.424 34909476 35073388 35231468 35384680 35533956 35680124 35824604 
2720.799 35968528 36112928 36259032 36407996 36561084 36719420 36884304 
2724.175 37057300 37238704 37429032 37627752 37833864 38045756 38262060 
2727.550 38481760 38704108 38929252 39156692 39386280 39617112 39847892 
2730.925 40077152 40303452 40525716 40743180 40955184 41161316 41360444 
2734.300 41551420 41732776 41903152 42061804 42208356 42343196 42466820 
2737.676 42580100 42684056 42779876 42869396 42954320 43037072 43119508 
2741.051 43203640 43290760 43381848 43477676 43579248 43687980 43805616 
2744.426 43933948 44074272 44227300 44392456 44567952 44751456 44939516 
2747.801 45128840 45315780 45496472 45667340 45825052 45966836 46090544 
2751.177 46195412 46281252 46348416 46397892 46429748 46444204 46440516 
2754.552 46417652 46374332 46309412 46221320 46109332 45972068 45808928 
2757.927 45619600 45403840 45161856 44894324 44602172 44286440 43949088 
2761.302 43591996 43218432 42831840 42436676 42037604 41638424 41243324 
2764.677 40855576 40478140 40114184 39766876 39439868 39136676 38860292 
2768.053 38612984 38395784 38208684 38050676 37920236 37815828 37735732 
2771.428 37678452 37641988 37624428 37623344 37636136 37659876 37692072 
2774.803 37730128 37771512 37813732 37854256 37890300 37919368 37939184 
2778.178 37948404 37945944 37931988 37906896 37871572 37827140 37775380 
2781.554 37717912 37657020 37595268 37535044 37478440 37426972 37381688 
2784.929 37342648 37309284 37280652 37255024 37230472 37204628 37174376 
2788.304 37136768 37088948 37028576 36954000 36864936 36761900 36646336 
2791.679 36520500 36387028 36248548 36108244 35968992 35833996 35705984 
2795.055 35587972 35482108 35390688 35315672 35258636 35221300 35204912 
2798.430 35210844 35239340 35290656 35363944 35457768 35570672 35700952 
2801.805 35847200 36008124 36182316 36368400 36565084 36770368 36982396 
2805.180 37198996 37418700 37640040 37862028 38083736 38303712 38520208 
2808.556 38730664 38931100 39117420 39284600 39428584 39546012 39634792 
2811.931 39694656 39726424 39732160 39713716 39673020 39611380 39529828 
2815.306 39429780 39313364 39183380 39043828 38899900 38756636 38619612 
2818.681 38494176 38384708 38295460 38229816 38189912 38177028 38191104 
2822.057 38230396 38292744 38374680 38472744 38583216 38702732 38827680 
2825.432 38954224 39078376 39195964 39302844 39395568 39471836 39530224 
2828.807 39570656 39594028 39601940 39596024 39579004 39553376 39521732 
2832.182 39486460 39449844 39413236 39377320 39341988 39307308 39273576 
2835.558 39240824 39210000 39181928 39156692 39134356 39114448 39096576 
2838.933 39081096 39069528 39064380 39069240 39087876 39123768 39179792 
2842.308 39258668 39362552 39494552 39658968 39860528 40104920 40397332 
2845.683 40741288 41137460 41582960 42069944 42585328 43111276 43625768 
2849.059 44102696 44516740 44844760 45068004 45176304 45167920 45049848 
2852.434 44835648 44544236 44197180 43814812 43417072 43021088 42639640 
2855.809 42282964 41957344 41665596 41407752 41181028 40981620 40804544 
2859.184 40645076 40498796 40361768 40230560 40102556 39974844 39845096 
2862.560 39711392 39572144 39426808 39275496 39118800 38958540 38797320 
2865.935 38639056 38488092 38349996 38230684 38135536 38069120 38034548 
2869.310 38032736 38062576 38121136 38203840 38303964 38414212 38527016 
2872.685 38634568 38730664 38810688 38872180 38915048 38941468 38954080 
2876.061 38955856 38949512 38936576 38917696 38893304 38864060 38830544 
2879.436 38794420 38757288 38720772 38686400 38655356 38628196 38605632 
2882.811 38587888 38574992 38566524 38561344 38557792 38553236 38545412 
2886.186 38532124 38512460 38487116 38458156 38429412 38405304 38391044 
2889.562 38391220 38409684 38449612 38513840 38605308 38728088 38888268 
2892.937 39093824 39355876 39686960 40099900 40606944 41216548 41930412 
2896.312 42741012 43630164 44566812 45506628 46398848 47186220 47812940 
2899.687 48235204 48423448 48368668 48082684 47596712 46955760 46208272 
2903.063 45405048 44590680 43799200 43057196 42382168 41783992 41267844 
2906.438 40835192 40484648 40213004 40016148 39889368 39828712 39831436 
2909.813 39896196 40022288 40209624 40456828 40760396 41114840 41511280 
2913.188 41937896 42381112 42825184 43253348 43650828 44003352 44300676 
2916.563 44537040 44711236 44826248 44888040 44904576 44883484 44831024 
2919.939 44751456 44646820 44517104 44361224 44178364 43968776 43735032 
2923.314 43482036 43217844 42953264 42699332 42468136 42269888 42111816 
2926.689 41997928 41928188 41899396 41905200 41937564 41987708 42046144 
2930.064 42104080 42153876 42188712 42203716 42195320 42161616 42101452 
2933.440 42014644 41901256 41761560 41596124 41406436 41194688 40964688 
2936.815 40721092 40469444 40215840 39966376 39726312 39500828 39294140 
2940.190 39109556 38949948 38817352 38712912 38636488 38586328 38558736 
2943.565 38547584 38544688 38539796 38521476 38478684 38402192 38285180 
2946.941 38125660 37925696 37691748 37433040 37161092 36887480 36622436 
2950.316 36374632 36150264 35952976 35784164 35643504 35528888 35437744 
2953.691 35366744 35313228 35274772 35249796 35237396 35237252 35249184 
2957.066 35272760 35307440 35352404 35406792 35469884 35541152 35620160 
2960.442 35706236 35798736 35896648 35999268 36105940 36215992 36329272 
2963.817 36445720 36564728 36685528 36807336 36928856 37049328 37168528 
2967.192 37286792 37405052 37524604 37647084 37773932 37907328 38049556 
2970.567 38203656 38372440 38558552 38763268 38986048 39224140 39472960 
2973.943 39725988 39975568 40213988 40432788 40624448 40782196 40900612 
2977.318 40976740 41010280 41004380 40965088 40901228 40822632 40739032 
2980.693 40658720 40588284 40531168 40489052 40461372 40445840 40438388 
2984.068 40433584 40425148 40405368 40366788 40302756 40208168 40080316 
2987.444 39919336 39728240 39512116 39277200 39030560 38778408 38525424 
2990.819 38274976 38028612 37786728 37548920 37314916 37084764 36859488 
2994.194 36639884 36426804 36220312 36018924 35819820 35619224 35413192 
2997.569 35197980 34971528 34733100 34484180 34226876 33964632 33700576 
3000.945 33437614 33177852 32923102 32674436 32432764 32198616 31972546 
3004.320 31755004 31546124 31346000 31154474 30971182 30795898 30628082 
3007.695 30467438 30313924 30167282 30027294 29893708 29765802 29642616 
3011.070 29523154 29406242 29291064 29177262 29064872 28954424 28846412 
3014.446 28741258 28638888 28538988 28441088 28344876 28250662 28158946 
3017.821 28070712 27987020 27908398 27835298 27767230 27703654 27644008 
3021.196 27588008 27535722 27487500 27444120 27406180 27374664 27350352 
3024.571 27334718 27329144 27335460 27355150 27388886 27436142 27494806 
3027.947 27561246 27630590 27697616 27757056 27804354 27836254 27850986 
3031.322 27848088 27828198 27793086 27744730 27685502 27617738 27543734 
3034.697 27465370 27384828 27303878 27224074 27146364 27071350 26998884 
3038.072 26928372 26859598 26792068 26726312 26662888 26602786 26546780 
3041.448 26495110 26447604 26403516 26362358 26323632 26287548 26254742 
3044.823 26226126 26202228 26183188 26168338 26156934 26148350 26142190 
3048.198 26138952 26139374 26144230 26153732 26167562 26184596 26203388 
3051.573 26222852 26242246 26261324 26280332 26299974 26320286 26341480 
3054.948 26363520 26386300 26410102 26435630 26463450 26494196 26528324 
3058.324 26565660 26605710 26648126 26692626 26739138 26788014 26839224 
3061.699 26892872 26948714 27006324 27065388 27126048 27188692 27254060 
3065.074 27323426 27397286 27475640 27557504 27641396 27724846 27805520 
3068.449 27881262 27950410 28012148 28066542 28114156 28155976 28192958 
3071.825 28225948 28255402 28281676 28305194 28326626 28347316 28368468 
3075.200 28391494 28417600 28446678 28478308 28511246 28544118 28575754 
3078.575 28605834 28634606 28662852 28691414 28720760 28750956 28781934 
3081.950 28813446 28845736 28879626 28915996 28955804 28999478 29046698 
3085.326 29096404 29147708 29199764 29252288 29305774 29361040 29418760 
3088.701 29479108 29541668 29605512 29669718 29733546 29797276 29861336 
3092.076 29926860 29994772 30065430 30138550 30213422 30288910 30363810 
3095.451 30437406 30509520 30580406 30650696 30721530 30793836 30868644 
3098.827 30946914 31028972 31114856 31204314 31296320 31389948 31483884 
3102.202 31577304 31669390 31759818 31848554 31935882 32022122 32107524 
3105.577 32192406 32276806 32360758 32444190 32526854 32609210 32691370 
3108.952 32774292 32858662 32945052 33033710 33124458 33216302 33308018 
3112.328 33398468 33487074 33573624 33658792 33743264 33828180 33913968 
3115.703 34000892 34088548 34176364 34263876 34350540 34436292 34521168 
3119.078 34605408 34689240 34772940 34856660 34941004 35026404 35113188 
3122.453 35201680 35291984 35383424 35475204 35566288 35655696 35742752 
3125.829 35827412 35909928 35991272 36072780 36155596 36240912 36329528 
3129.204 36421400 36515600 36611264 36706728 36800808 36892784 36982788 
3132.579 37071772 37160952 37251700 37344816 37440264 37537140 37634256 
3135.954 37730312 37824432 37916692 38007672 38098744 38190888 38285072 
3139.330 38381488 38479876 38579632 38679912 38779676 38878664 38976732 
3142.705 39073880 39170796 39267840 39365492 39464036 39563724 39664304 
3146.080 39765712 39867576 39969608 40071888 40174404 40277236 40380856 
3149.455 40485340 40590940 40697476 40804832 40912696 41020512 41127444 
3152.831 41232616 41335296 41434832 41531036 41624276 41715304 41805480 
3156.206 41896076 41988328 42083088 42180824 42281064 42383520 42487172 
3159.581 42591140 42694548 42796660 42896972 42995476 43092468 43188380 
3162.956 43284392 43380968 43478520 43577012 43675596 43773324 43868876 
3166.332 43961444 44050652 44136948 44221320 44305192 44390252 44477532 
3169.707 44567768 44661032 44756600 44853392 44949992 45045544 45139208 
3173.082 45231052 45321552 45411228 45500888 45590452 45679156 45766364 
3176.457 45850792 45932032 46010268 46086528 46162432 46239380 46318332 
3179.833 46399440 46482144 46565352 46648496 46731436 46814464 46898468 
3183.208 46983964 47070920 47158596 47246064 47332000 47415808 47497564 
3186.583 47578004 47657648 47737412 47817452 47897396 47976912 48055552 
3189.958 48132948 48209544 48285636 48361960 48439120 48517580 48597432 
3193.333 48678780 48761144 48844228 48926588 49006960 49083972 49156800 
3196.709 49225412 49290476 49353612 49416352 49479400 49543048 49606556 
3200.084 49669112 49729964 49789680 49849356 49911132 49976552 50046672 
3203.459 50121152 50198692 50277292 50355160 50431032 50504608 50576004 
3206.834 50645588 50713500 50779568 50843672 50905580 50965716 51024852 
3210.210 51083920 51143108 51202788 51262256 51320760 51377892 51433728 
3213.585 51489196 51545792 51605080 51667920 51734580 51804312 51875660 
3216.960 51946568 52015248 52080096 52140500 52196772 52249908 52301744 
3220.335 52354816 52411188 52472612 52539396 52610716 52684740 52759224 
3223.711 52831812 52901348 52967148 53029888 53090688 53150900 53211308 
3227.086 53272808 53335672 53400224 53466360 53534236 53603428 53673196 
3230.461 53742900 53811868 53879832 53947132 54014368 54082100 54150628 
3233.836 54219548 54287648 54354224 54418408 54480420 54541424 54603376 
3237.212 54667708 54735392 54806472 54880152 54955240 55031020 55107564 
3240.587 55185436 55265356 55347588 55431488 55515520 55597876 55676664 
3243.962 55751400 55822344 55891036 55959892 56030984 56105932 56185792 
3247.337 56270576 56359676 56452184 56546492 56640892 56733540 56823264 
3250.713 56909004 56990904 57069904 57147676 57225844 57305800 57388572 
3254.088 57473928 57561532 57650328 57739444 57828124 57915348 58000620 
3257.463 58083216 58162800 58239556 58314168 58387464 58461036 58535724 
3260.838 58611864 58689040 58765928 58841388 58914508 58985060 59053496 
3264.214 59120840 59188160 59255680 59323400 59390636 59456708 59520844 
3267.589 59582984 59643376 59702984 59762560 59822796 59883980 59946248 
3270.964 60009056 60072172 60135112 60197640 60259832 60322112 60385200 
3274.339 60450052 60517312 60587324 60660204 60735652 60812632 60890696 
3277.715 60969500 61048892 61128908 61209696 61291040 61372396 61453540 
3281.090 61534164 61614724 61696104 61779944 61867544 61960204 62058048 
3284.465 62160844 62267600 62377640 62490152 62604912 62722192 62841916 
3287.840 62963976 63088560 63215436 63344532 63476584 63612096 63752168 
3291.216 63897512 64048820 64206132 64369528 64538604 64713060 64892464 
3294.591 65076328 65264008 65455160 65649672 65847664 66049880 66257080 
3297.966 66469832 66688368 66911920 67139144 67368728 67599952 67832840 
3301.341 68068608 68308856 68555232 68808712 69069408 69336592 69609616 
3304.717 69887960 70171848 70461776 70758360 71061552 71370848 71685376 
3308.092 72004192 72327040 72654480 72987368 73326488 73672032 74022960 
3311.467 74377904 74735544 75095288 75457496 75823288 76193888 76569656 
3314.842 76949672 77332080 77714632 78096120 78475896 78855072 79235352 
3318.218 79618064 80003744 80392208 80782168 81172280 81561792 81950040 
3321.593 82336632 82721176 83102000 83477864 83847376 84210000 84565808 
3324.968 84915776 85260872 85601040 85935248 86261272 86576496 86879000 
3328.343 87168104 87444072 87707920 87960128 88200312 88427136 88638512 
3331.719 88832352 89007120 89161696 89295608 89407984 89497920 89564136 
3335.094 89606320 89624936 89621840 89599848 89561608 89508712 89441080 
3338.469 89356904 89253568 89128048 88978240 88802960 88602064 88375672 
3341.844 88124200 87847960 87547376 87223224 86876408 86507504 86116528 
3345.219 85702944 85265024 84801496 84312264 83798544 83263848 82713120 
3348.595 82151040 81581296 81005944 80425096 79838176 79244496 78644192 
3351.970 78038816 77429800 76818960 76207584 75596008 74984064 74372512 
3355.345 73762296 73155608 72555272 71963520 71382216 70812376 70254344 
3358.720 69707792 69173368 68651392 68143024 67648504 67168072 66701040 
3362.096 66246436 65803172 65370456 64947828 64535072 64132036 63738472 
3365.471 63354304 62979332 62614440 62260796 61920116 61593532 61281656 
3368.846 60983608 60697392 60419968 60147592 59877404 59606888 59334716 
3372.221 59060100 58782844 58503116 58221032 57936968 57651120 57363764 
3375.597 57074364 56782364 56486452 56185380 55878036 55563756 55242176 
3378.972 54913616 54578204 54236140 53886624 53529060 53162848 52787212 
3382.347 52402144 52008004 51604932 51193544 50774204 50347532 49914476 
3385.722 49476688 49036080 48595100 48155788 47719400 47286700 46857532 
3389.098 46431372 46007760 45586736 45168436 44753364 44342580 43937024 
3392.473 43537340 43144244 42757864 42378116 42003916 41634120 41266792 
3395.848 40900612 40534480 40168552 39804056 39442916 39087004 38738016 
3399.223 38396472 38061492 37731464 37404616 37079240 36754364 36429504 
3402.599 36105076 35781140 35458200 35136328 34815872 34497488 34181492 
3405.974 33869052 33560344 33255648 32954272 32655466 32357972 32061112 
3409.349 31764702 31469062 31175192 30884366 30597718 30316268 30040894 
3412.724 29771656 29508756 29251614 28999548 28751734 28507460 28266082 
3416.100 28027344 27791778 27559834 27332284 27109330 26890968 26676418 
3419.475 26464824 26255446 26047892 25842652 25640252 25441776 25247848 
3422.850 25058782 24874534 24694540 24518124 24344726 24173918 24005558 
3426.225 23839084 23674212 23510558 23347386 23183958 23019790 22854534 
3429.601 22687904 22519982 22351528 22183700 22018200 21857016 21702194 
3432.976 21554812 21414858 21281248 21151748 21023540 20894082 20761606 
3436.351 20625798 20487324 20347784 20209086 20072826 19939800 19809904 
3439.726 19682680 19557296 19433090 19309788 19187594 19067060 18948672 
3443.102 18832772 18718600 18605114 18490308 18371836 18247798 18117714 
3446.477 17982592 17844648 17707782 17575756 17451358 17335720 17228490 
3449.852 17127662 17030648 16935518 16840752 16746212 16652107 16558642 
3453.227 16465610 16372116 16276991 16179377 16079137 15976926 15874429 
3456.603 15772989 15673839 15576943 15481957 15387474 15292461 15197024 
3459.978 15100989 15005353 14910905 14818122 14726662 14636352 14546574 
3463.353 14456747 14367109 14278620 14191758 14107481 14026197 13947973 
3466.728 13872877 13800017 13729049 13659290 13590227 13520798 13450902 
3470.104 13380060 13307828 13234586 13160329 13085130 13008988 12932244 
3473.479 12854626 12776648 12699263 12623359 12550231 12480968 12416387 
3476.854 12356145 12300173 12247548 12197109 12147870 12098670 12047840 
3480.229 11994394 11937719 11878088 11816967 11757081 11701968 11654316 
3483.604 11615961 11586286 11563044 11542525 11520511 11494279 11462434 
3486.980 11425966 11386848 11347836 11311071 11277914 11247990 11220822 
3490.355 11195628 11171659 11149085 11128620 11110740 11095920 11084023 
3493.730 11074947 11068217 11063425 11060264 11058531 11058463 11060672 
3497.105 11065804 11075015 11089631 11110604 11138377 11172373 11211098 
3500.481 11252207 11293183 11332259 11368515 11402767 11437090 11474376 
3503.856 11517789 11569849 11632228 11705372 11788504 11879995 11977261 
3507.231 12077615 12177822 12275428 12369679 12460986 12551799 12645123 
3510.606 12743789 12849849 12963274 13082501 13205346 13328841 13451414 
3513.982 13572176 13691125 13808156 13923202 14034923 14141744 14242086 
3517.357 14335122 14421328 14501761 14577892 14650060 14717578 14778252 
3520.732 14828750 14866191 14887999 14893382 14882786 14857859 14820316 
3524.107 14771361 14711134 14639094 14553427 14452945 14336663 14204972 
3527.483 14059290 13902332 13737189 13566433 13391849 13214227 13032990 
3530.858 12847938 12658666 12466202 12271746 12077104 11883604 11691655 
3534.233 11500879 11310017 11118185 10925044 10731854 10540514 10353704 
3537.608 10173419 10001414 9837341 9680884 9530614 9384866 9242584 9102887 
3541.466 8964689 8827483 8690421 8553131 8415346 8277164 8139026 8001776 
3545.323 7865886 7732533 7602594 7477446 7358266 7246463 7142167 7044799 
3549.181 6952132 6861472 6769215 6672637 6570631 6463605 6354016 6245429 
3553.038 6140902 6042851 5952246 5869082 5792012 5720461 5653756 5591156 
3556.896 5532256 5475847 5420452 5364561 5306699 5245993 5182982 5118774 
3560.753 5055513 4995378 4940447 4891990 4850373 4814456 4782059 4748828 
3564.610 4709603 4658727 4591347 4505798 4403798 4292050 4180465 4078909 
3568.468 3994464 3929862 3882922 3848322 3819340 3790293 3757104 3718436 
3572.325 3674493 3627546 3579569 3532500 3487673 3445389 3406015 3369348 
3576.183 3335290 3303771 3273858 3244413 3214337 3181825 3146347 3107433 
3580.040 3065553 3022476 2980004 2940605 2906480 2879496 2860584 2849211 
3583.897 2842974 2838171 2829900 2812258 2780011 2729960 2662579 2581909 
3587.755 2495622 2413184 2342454 2288856 2253917 2235398 2229204 2229903 
3591.612 2232334 2231469 2224108 2207890 2182447 2149014 2110489 2070437 
3595.470 2033151 2001494 1977694 1961817 1952032 1945242 1937687 1925939 
3599.327 1907368 1882276 1852626 1822180 1795296 1776232 1767349 1769112 
3603.185 1780557 1799122 1821814 1845039 1865437 1879447 1883773 1875653 
3607.042 1854057 1820084 1777463 1732551 1691768 1659903 1638350 1624515 
3610.899 1612908 1597709 1574530 1542341 1504868 1468728 1441101 1427504 
3614.757 1429565 1444425 1465802 1485351 1496024 1491469 1468495 1426906 
3618.614 1370961 1307148 1243476 1188386 1148119 1125463 1119981 1128452 
3622.472 1146458 1169481 1194832 1221645 1250753 1283718 1320541 1357932 
3626.329 1389177 1403271 1388412 1335996 1246666 1133303 1018275 926055 
3630.187 871039 854571 867287 895342 925258 947141 956804 955310 947075 
3634.526 937445 930604 927815 927782 927981 925989 920875 913504 905535 
3638.866 898828 894047 890760 888038 884883 881298 878974 880434 888602 
3643.205 905336 931036 964143 1001370 1037605 1068261 1088092 1093274 
3647.063 1080983 1050392 1002466 939968 867984 793854 726441 674967 647524 
3651.402 647557 674303 721761 780975 840296 888303 915696 916692 891491 
3655.742 847068 796410 752794 726707 721761 734606 758138 783597 804543 
3660.082 816991 820112 815796 806833 796676 787647 781406 779182 781539 
3664.421 789472 803547 824262 850920 881796 913239 939537 954048 949997 
3668.761 922602 872201 806568 740746 691029 670952 684790 726839 783564 
3673.100 836777 868283 862407 812543 725246 622305 531463 474274 458021 
3677.440 475534 512388 553425 588129 611986 625689 633122 639161 646760 
3681.780 657379 669989 684326 701019 722160 750106 785589 826386 866557 
3686.119 897832 911014 899160 859950 798004 723985 650643 589324 545961 
3690.459 521080 511559 513881 525326 543937 568454 596988 626386 653629 
3694.798 675332 690034 698198 702578 707324 716517 732216 753923 778452 
3699.138 799962 812709 811879 795447 765042 725943 685653 651539 629240 
3703.478 621210 627448 645566 672478 705233 741244 778485 815531 850587 
3707.817 881862 907229 923698 928347 918584 893217 852911 800891 743368 
3712.157 687976 642612 613545 603425 611620 634317 666173 701384 734373 
3716.496 761889 782137 795116 802750 806667 808161 807398 803381 795149 
3720.836 782469 766635 750305 736929 729262 727968 731652 736498 738522 
3725.176 734539 724184 710046 697899 694182 703939 728897 766768 811780 
3729.515 856497 893317 917223 926387 923465 914235 905569 901518 901451 
3733.855 899791 888834 862440 819747 766436 713398 672644 651804 652335 
3738.194 670885 701649 740281 784460 834420 890694 951159 1009972 1055640 
3742.534 1073510 1049894 979352 872566 757010 668961 633753 655786 720533 
3746.874 805008 886842 946776 973375 963479 922336 860415 790734 724051 
3751.213 667733 625457 601036 597519 616498 656251 711373 773174 831797 
3755.553 879106 909653 922370 919381 905535 885448 862639 838835 815464 
3759.892 794817 780975 778419 789838 814336 847301 880833 906033 916791 
3764.232 910848 891789 867021 845906 834785 835117 842786 850720 851550 
3768.572 840628 817357 785987 754222 729627 717945 721330 738157 764810 
3772.911 796543 829241 860083 887407 911313 932730 952587 971083 986924 
3777.251 997252 998946 989680 969788 942691 915198 894612 885415 888834 
3781.590 901219 916293 926786 927649 917190 897500 873296 850289 832860 
3785.930 822369 818220 818220 820676 824461 829839 837275 847234 859319 
3790.270 872898 887440 903211 921042 941629 964608 987854 1007182 1017511 
3794.609 1015020 999012 973010 945215 926089 923831 941596 975633 1016847 
3798.949 1051986 1067033 1052119 1003429 928778 844379 773606 735701 738489 
3803.288 777689 838802 904307 955675 978954 967165 922934 858721 793755 
3807.628 747517 731353 745857 783298 832893 884684 932696 975766 1016083 
3811.968 1056503 1097957 1137688 1169116 1184000 1175063 1140246 1085733 
3815.825 1026545 980747 962483 976231 1015419 1065571 1108488 1127888 
3819.682 1111444 1055839 968958 869976 783929 730656 718675 744430 795912 
3824.022 858124 917289 964541 995559 1011832 1018474 1022725 1030563 1044446 
3828.362 1063047 1082445 1098190 1106428 1106262 1099419 1090251 1083475 
3832.219 1083607 1092941 1111311 1136027 1162837 1186691 1201576 1202374 
3836.076 1185396 1149814 1098290 1037704 977791 928513 896504 884352 889299 
3840.416 905469 925690 943189 953782 955343 948735 936847 924130 915364 
3844.756 914301 923797 944318 974703 1012529 1055042 1100050 1146425 1194067 
3849.095 1243277 1293123 1340549 1378374 1395526 1378606 1315024 1200114 
3852.953 1043716 873263 723852 623831 583716 596159 644769 711639 783863 
3857.292 852911 914932 968991 1015385 1054378 1086099 1110315 1127190 
3861.150 1137455 1142339 1142771 1138983 1130213 1116327 1098190 1080020 
3865.007 1068095 1068660 1085335 1116228 1153667 1185695 1199716 1186127 
3868.865 1142339 1075868 1004193 947871 920975 926653 956306 995559 1029135 
3873.204 1046639 1045310 1030331 1012861 1004691 1014422 1044114 1089520 
3877.062 1141475 1189682 1224835 1240253 1233807 1209019 1174332 1141375 
3880.919 1121742 1122805 1146026 1185894 1231946 1271855 1293156 1287440 
3884.776 1253545 1199051 1139449 1092443 1072148 1083342 1121011 1173103 
3888.634 1225932 1266405 1285081 1278534 1249457 1206726 1161541 1124931 
3892.491 1104169 1101379 1115397 1142571 1179116 1220815 1263946 1305120 
3896.349 1340715 1367438 1382761 1385786 1377177 1360159 1338721 1317484 
3900.206 1299305 1284815 1272586 1258895 1240486 1215100 1182738 1146226 
3904.063 1110016 1079322 1058297 1049263 1051720 1063844 1082843 1105863 
3907.921 1130446 1154730 1177090 1196460 1211843 1222941 1230118 1234471 
3911.778 1237993 1242945 1250720 1261819 1275111 1288537 1298839 1303359 
3915.636 1300734 1290930 1276042 1258762 1242114 1228258 1218389 1212807 
3919.493 1211511 1214269 1221413 1232345 1246234 1260822 1273516 1281525 
3923.351 1282987 1277969 1268698 1258928 1252747 1253378 1261919 1277338 
3927.208 1296746 1317085 1335763 1351085 1362718 1370696 1375050 1375515 
3931.065 1371194 1361754 1347562 1330512 1313329 1299205 1290797 1289235 
3934.923 1293456 1301531 1311069 1319943 1327321 1333702 1340350 1348792 
3938.780 1359494 1371892 1384058 1393465 1397620 1395260 1386451 1373554 
3942.638 1359926 1349490 1345136 1348127 1358165 1372291 1386950 1398484 
3946.495 1403969 1402274 1394030 1381831 1368668 1357899 1351584 1350587 
3950.353 1353811 1359727 1366474 1372756 1378274 1382761 1386850 1390839 
3954.210 1394994 1399149 1403038 1406794 1410850 1416002 1422950 1431494 
3958.067 1441400 1451241 1459519 1464805 1466135 1463475 1457457 1449911 
3961.925 1442597 1437145 1435250 1437477 1444126 1454632 1467664 1481694 
3965.782 1494993 1506298 1514810 1520595 1524818 1529240 1535225 1544237 
3969.640 1556208 1570241 1584640 1597177 1606123 1610580 1610347 1606788 
3973.497 1601500 1596246 1592555 1591490 1592987 1596978 1602665 1609449 
3977.354 1616333 1622985 1628705 1632995 1635822 1636654 1635756 1632863 
3981.212 1628273 1622419 1615734 1608717 1601900 1595415 1589894 1585272 
3985.069 1582112 1581015 1582179 1586037 1592721 1601966 1612874 1624515 
3988.927 1635822 1645734 1653616 1658872 1661466 1661599 1659038 1653982 
3992.784 1646698 1637386 1627142 1616865 1608019 1601866 1599139 1599838 
3996.642 1603496 1609050 1614903 1620025 1623251 1624415 1623617 1621289 
4000.499 1618063 
##END=
