
##TITLE=mdmaHCL00399_9
##JCAMP-DX=5.01  $$ Nicolet v. 1
##DATATYPE=INFRARED SPECTRUM
##ORIGIN=UniL
##OWNER=Nicolet
##LONGDATE=2011/08/24
##TIME=10:54:37
##SPECTROMETER/DATA SYSTEM=Nicolet iS5
##DATA PROCESSING=
Ratio against background
%Transmittance->Absorbance
Truncated
ElementMultiply or ElementDivide
##COMMENTS=
Number of sample scans: 32
Collection length: 51.18 sec
Sample gain: 2.0
Background collected on: Mer Aout 24 10:52:46 2011 (GMT+02:00);
Number of background scans: 32
Background gain: 2.0
Sample spacing:  1.000
Number of scan points: 12415
Resolution points: 8192
Number of FFT points: 65536
Apodization: N-B fort;
Phase correction: Mertz;
Laser frequency: 15798.0 cm-1
Number of rejected sample scans: 0
Number of rejected background scans: 0
Bench serial number: ASB1000141;
##RESOLUTION=4.000
##XUNITS=1/CM
##YUNITS=ABSORBANCE
##FIRSTX=649.893372
##LASTX=4000.122314
##FIRSTY=0.120847
##MAXX=4000.122314
##MINX=649.893372
##MAXY=0.288357
##MINY=0.002189
##XFACTOR=1.000000
##YFACTOR=1.000000E-009
##NPOINTS=6950
##DELTAX=0.482117
##ZPD=6100
##XYDATA=(X++(Y..Y))
649.893 120846976 119779872 118824960 117992696 117278816 116676488 
652.786 116180160 115788200 115499456 115310288 115211528 115191736 
655.679 115241288 115356656 115541528 115803248 116145736 116563544 
658.571 117039624 117548104 118060568 118555440 119024432 119471848 
661.464 119910512 120354384 120816952 121309336 121843144 122433400 
664.357 123097480 123849552 124692248 125607672 126545608 127416712 
667.250 128117560 128570888 128780720 128833352 128850344 128924576 
670.142 129086272 129318896 129580752 129829808 130033952 130181176 
673.035 130275800 130327952 130342368 130313592 130228536 130076200 
675.928 129855592 129578424 129262448 128922168 128560904 128169536 
678.820 127733264 127241688 126696720 126113488 125512960 124910552 
681.713 124310304 123702744 123073896 122414120 121726136 121025000 
684.606 120333712 119671784 119049016 118463688 117907880 117373576 
687.498 116858496 116367448 115909080 115490728 115116928 114788416 
690.391 114507544 114280912 114120368 114040688 114052792 114160088 
693.284 114357736 114637040 114992256 115426848 115955376 116599728 
696.177 117379304 118300192 119348624 120489304 121675704 122854624 
699.069 123982664 125034792 126003552 126898320 127738032 128547224 
701.962 129348624 130164000 131011488 131901144 132835168 133802872 
704.855 134784464 135752832 136681952 137554720 138365024 139118480 
707.747 139824960 140493104 141126000 141720624 142274400 142790992 
710.640 143283136 143774016 144288288 144845024 145452128 146104736 
713.533 146787968 147481312 148165120 148819776 149426064 149965840 
716.425 150422224 150787568 151069504 151297168 151519776 151793296 
719.318 152171376 152687248 153345984 154125296 154983392 155872016 
722.211 156740096 157541232 158234896 158781328 159150720 159330336 
725.104 159334992 159209840 159028080 158875824 158823616 158916944 
727.996 159165728 159553328 160050768 160636208 161304608 162067536 
730.889 162942240 163939440 165057936 166287552 167620416 169063856 
733.782 170645328 172405520 174387104 176615680 179091824 181792256 
736.674 184683904 187733760 190916848 194214368 197601808 201041264 
739.567 204491104 207922240 211348144 214835216 218490576 222400624 
742.460 226550208 230734160 234518896 237312000 238415792 237264944 
745.352 233598864 227542736 219593168 210470848 200994256 191854656 
748.245 183561712 176426544 170550064 165895840 162337760 159718576 
751.138 157872208 156647216 155928912 155636640 155737024 156242080 
754.031 157197856 158656336 160637824 163093840 165882400 168778208 
756.923 171475648 173663120 175080128 175550416 175028432 173591664 
759.816 171426128 168770240 165883312 163012656 160344592 158012608 
762.709 156091776 154600912 153519216 152794400 152360496 152141776 
765.601 152067616 152084656 152154256 152258304 152394816 152570336 
768.494 152793888 153072416 153411264 153820016 154319760 154951136 
771.387 155767488 156823104 158148896 159722832 161447872 163140432 
774.279 164569648 165478672 165651168 164976880 163469552 161269248 
777.172 158584320 155652048 152664192 149726048 146858256 144007392 
780.065 141086256 138005712 134712512 131201568 127514240 123723624 
782.958 119916272 116180456 112586552 109187832 106022464 103112304 
785.850 100470824 98103816 96010032 94181112 92603632 91263152 90146816 
789.225 89247344 88564160 88101352 87863744 87854456 88074200 88522224 
792.600 89198928 90104984 91237192 92581976 94101808 95732744 97378704 
795.975 98910864 100190424 101071432 101416592 101123960 100127416 98412544 
799.350 96017264 93032672 89594960 85861272 82013952 78230920 74661600 
802.724 71430368 68612776 66237396 64296104 62755384 61570204 60692248 
806.099 60079212 59692608 59495384 59453020 59530116 59690708 59901516 
809.474 60128032 60334600 60486460 60547480 60485164 60277728 59916044 
812.849 59408340 58777460 58058368 57289920 56506636 55738252 55005220 
816.224 54321896 53699520 53145992 52666672 52262764 51929952 51659824 
819.598 51442008 51268704 51136772 51048924 51011400 51032268 51118284 
822.973 51273704 51502364 51808304 52196512 52670708 53229660 53861528 
826.348 54538980 55219488 55849960 56368276 56717232 56851288 56742680 
829.723 56387968 55807120 55043428 54153032 53201496 52255964 51371700 
833.098 50591864 49941460 49426636 49039452 48762776 48578496 48468828 
836.473 48418928 48417520 48452564 48511728 48583312 48657064 48726300 
839.847 48789324 48847752 48904672 48962416 49021316 49080112 49138436 
843.222 49198472 49265792 49348748 49456452 49595304 49768868 49977592 
846.597 50220564 50497948 50811636 51165024 51561348 52001952 52484804 
849.972 53005216 53557320 54135728 54735692 55353908 55986692 56629948 
853.347 57279336 57931592 58586264 59246716 59919660 60613608 61336068 
856.721 62090808 62877916 63694536 64536996 65403700 66297224 67224080 
860.096 68194664 69219496 70308880 71468688 72699128 73990512 75322344 
863.471 76662224 77963400 79172808 80235936 81103784 81746488 82157888 
866.846 82362672 82411736 82382576 82371480 82474072 82788328 83401168 
870.221 84378216 85767816 87590512 89835600 92452664 95347160 98383080 
873.596 101369104 104081960 106286888 107745368 108271304 107752328 
876.488 106168152 103597240 100201896 96210328 91863888 87406016 83054944 
879.863 78971032 75269896 72018072 69239000 66929660 65067440 63619844 
883.238 62544024 61791556 61312140 61051636 60960616 60999204 61136152 
886.613 61354116 61647336 62020092 62482920 63050432 63738780 64561828 
889.987 65529516 66646836 67912760 69321472 70865968 72541456 74349160 
893.362 76297824 78402376 80681256 83147424 85798976 88605432 91496656 
896.737 94358824 97018832 99267632 100882136 101643016 101393832 100065248 
900.112 97695256 94423432 90474184 86128688 81660392 77323608 73322408 
903.487 69784640 66781216 64329340 62409388 60979872 59989080 59386192 
906.862 59120460 59147912 59435388 59958152 60703528 61667844 62853328 
910.236 64262912 65895328 67739344 69770128 71942288 74183216 76399144 
913.611 78471248 80264752 81658552 82553480 82898392 82701656 82034080 
916.986 81019960 79807248 78561488 77432416 76532432 75940088 75688336 
920.361 75769512 76139904 76729832 77454080 78218816 78944760 79577472 
923.736 80097736 80527232 80924984 81379920 81987288 82841568 84019136 
927.110 85562544 87474752 89706160 92154976 94649664 96959424 98826856 
930.485 99969264 100143896 99195008 97076624 93880512 89816688 85197824 
933.860 80362496 75631264 71281120 67494624 64374568 61953556 60209820 
937.235 59091228 58530908 58464108 58825604 59548284 60561040 61772380 
940.610 63069856 64331220 65421224 66219956 66644288 66656032 66275104 
943.985 65570176 64650612 63636572 62638060 61745296 61011560 60459304 
947.359 60087316 59879988 59815224 59868920 60018908 60242628 60517768 
950.734 60824180 61143404 61461288 61769668 62064660 62346960 62619916 
954.109 62889636 63164116 63453152 63768668 64122280 64523964 64980232 
957.484 65493188 66061416 66681756 67351624 68070624 68840936 69666336 
960.859 70550904 71497824 72508952 73585784 74730704 75947944 77244312 
964.233 78628784 80110280 81697696 83397880 85214712 87148544 89196200 
967.608 91349712 93594264 95908904 98265400 100625984 102948944 105187832 
970.983 107294288 109225368 110944112 112422120 113643208 114601360 
973.876 115301952 115760640 116004192 116069112 115996792 115834528 
976.768 115629120 115422048 115253128 115157872 115169488 115324808 
979.661 115662168 116221464 117045656 118173904 119641192 121477120 
982.554 123700936 126320944 129327640 132690488 136346016 140186288 
985.447 144065664 147783504 151098880 153769312 155553056 156260016 
988.339 155786112 154121792 151365520 147702352 143399744 138756704 
991.232 134065512 129605400 125590864 122171208 119438432 117423592 
994.125 116116904 115479616 115460344 116001376 117045784 118545776 
997.017 120458608 122747576 125383840 128338440 131581280 135077888 
999.910 138777600 142608368 146476384 150251072 153778656 156898032 
1002.803 159443824 161284864 162340080 162592512 162097120 160976864 
1005.695 159418000 157629856 155836736 154253584 153049184 152353728 
1008.588 152250352 152776176 153939680 155728592 158124000 161105632 
1011.481 164657936 168773520 173449568 178689296 184499920 190887184 
1014.374 197849024 205363264 213359488 221705360 230181872 238456496 
1017.266 246130016 252752928 257887424 261217888 262596848 262103104 
1020.159 260020432 256823184 253097648 249411168 246301104 244178496 
1023.052 243286448 243728656 245465824 248361584 252198784 256728384 
1025.945 261697680 266836800 271892352 276621152 280779776 284161472 
1028.838 286602528 288004864 288356928 287732352 286282560 284196224 
1031.731 281690112 278977600 276232352 273591264 271128160 268844768 
1034.624 266667392 264452272 262016000 259144096 255643728 251377648 
1037.517 246271632 240332928 233635008 226304880 218495376 210372272 
1040.410 202108160 193857888 185761520 177940016 170481584 163456432 
1043.303 156920544 150917600 145492512 140689872 136546528 133092656 
1046.196 130342808 128293824 126926896 126211224 126109984 126580688 
1049.089 127580688 129067984 130996928 133323384 136003488 138992832 
1051.982 142252608 145746928 149439248 153291984 157254208 161253264 
1054.875 165197168 168963808 172407648 175382768 177740864 179357008 
1057.768 180148624 180080656 179181360 177540176 175315984 172716496 
1060.661 169973136 167339328 165044032 163278848 162199936 161907312 
1063.554 162453632 163845904 166049568 168988800 172545248 176576880 
1066.448 180907872 185341856 189692192 193773232 197422560 200514688 
1069.341 202947248 204645760 205560096 205657552 204926752 203379312 
1072.234 201051824 198004880 194322144 190116512 185522672 180700320 
1075.127 175841008 171140208 166797232 163002624 159906128 157624720 
1078.020 156234048 155763360 156199632 157482320 159507408 162109776 
1080.913 165067968 168128752 170996016 173384608 175067200 175893360 
1083.806 175835680 174988464 173565760 171852800 170165872 168832160 
1086.699 168120736 168233632 169289008 171303920 174199248 177798928 
1089.592 181866192 186099552 190165536 193757808 196591936 198450096 
1092.485 199204256 198806720 197295584 194775248 191408464 187385120 
1095.378 182893328 178115296 173195488 168238608 163319536 158481888 
1098.271 153752224 149148352 144681424 140359872 136190288 132178816 
1101.164 128335640 124678608 121233240 118035344 115127856 112551944 
1104.057 110349696 108557944 107205216 106316720 105911072 106000216 
1106.950 106590312 107680488 109262912 111321880 113835528 116774336 
1109.844 120096800 123752256 127673376 131769496 135933888 140033536 
1112.737 143911936 147412304 150374064 152654864 154152640 154804368 
1115.630 154597648 153566256 151787952 149374000 146450528 143158208 
1118.523 139626704 135962704 132252752 128553776 124902112 121324448 
1121.416 117842424 114480072 111266648 108232144 105408672 102828976 
1124.309 100522440 98519952 96852616 95548272 94634248 94133448 94060984 
1127.684 94425456 95225808 96451016 98077240 100066576 102368216 104910744 
1131.059 107607680 110360288 113053512 115577408 117834680 119753808 
1133.952 121307536 122517128 123455144 124226584 124959768 125783904 
1136.845 126796976 128058152 129569768 131278576 133074968 134809088 
1139.739 136320928 137442224 138030240 137985360 137248608 135809712 
1142.632 133699448 130983488 127750960 124107520 120174888 116072800 
1145.525 111916648 107814840 103852656 100099128 96606528 93407000 90520264 
1148.900 87952632 85699712 83748272 82079272 80672872 79508352 78568112 
1152.275 77837608 77303656 76954584 76779968 76770168 76918112 77219848 
1155.650 77674296 78282456 79046504 79968496 81049952 82292424 83697576 
1159.026 85268336 87008048 88919120 91000976 93247216 95642256 98161760 
1162.401 100766992 103406448 106019712 108531656 110861216 112927792 
1165.294 114647736 115947808 116769648 117072160 116839584 116082664 
1168.187 114837824 113159440 111115344 108781832 106230816 103533144 
1171.080 100756168 97956696 95186368 92489152 89897256 87437544 85130336 
1174.455 82990272 81030224 79259288 77681896 76298696 75105128 74094200 
1177.831 73257216 72587112 72078464 71726992 71528960 71478920 71568576 
1181.206 71787616 72123576 72562056 73089456 73691192 74352344 75059800 
1184.581 75801184 76567720 77355400 78164904 79000552 79867048 80766128 
1187.956 81692136 82630552 83556096 84435960 85234832 85916472 86453040 
1191.332 86827888 87037640 87093920 87021720 86858360 86645704 86428904 
1194.707 86250560 86142672 86127800 86216296 86406992 86689344 87044720 
1198.082 87447920 87864352 88250160 88554936 88718696 88682400 88395984 
1201.457 87823792 86955904 85809432 84430248 82882792 81243624 79595856 
1204.833 78012648 76558072 75282376 74215760 73372312 72749864 72334400 
1208.208 72103112 72029304 72086952 72249744 72493368 72796128 73136584 
1211.583 73496224 73860520 74219888 74571424 74919648 75274784 75650472 
1214.958 76061496 76522272 77043440 77632808 78293760 79025712 79823888 
1218.333 80679144 81579816 82511536 83459344 84410408 85354312 86284512 
1221.709 87198600 88098960 88990928 89882864 90785904 91713056 92676960 
1225.084 93690048 94760176 95888536 97067176 98279784 99501776 100702352 
1228.459 101852008 102922816 103892768 104748432 105483432 106099192 
1231.352 106604080 107015176 107358856 107669016 107989680 108368800 
1234.245 108851976 109481528 110289208 111293368 112500032 113901768 
1237.138 115478968 117198040 119014624 120872488 122702480 124431864 
1240.031 125984776 127287208 128278288 128907192 129135656 128939552 
1242.925 128305136 127231912 125732960 123839368 121599456 119073160 
1245.818 116334240 113461424 110531936 107628856 104831352 102211504 
1248.711 99835472 97748368 95969904 94488840 93263928 92227008 91290096 
1252.086 90367232 89379944 88271808 87019656 85632432 84149832 82630352 
1255.461 81145520 79764320 78538896 77501848 76658112 75987608 75447248 
1258.836 74979032 74519648 74001424 73365912 72568672 71581120 70396968 
1262.212 69031376 67520320 65911836 64262948 62631816 61065516 59601756 
1265.587 58265400 57068772 56016996 55109216 54340592 53702704 53184044 
1268.962 52771796 52452204 52213736 52048156 51950300 51917068 51945672 
1272.337 52032316 52172108 52360312 52593512 52870992 53194532 53567480 
1275.713 53992904 54472640 55007100 55595764 56238252 56934612 57684876 
1279.088 58487384 59336504 60222300 61128756 62035112 62918820 63754396 
1282.463 64516888 65183616 65733092 66148104 66416664 66532472 66496284 
1285.838 66315560 66004248 65578840 65058432 64462460 63808924 63117296 
1289.214 62409580 61709704 61046336 60448872 59942332 59544940 59261756 
1292.589 59082992 58981604 58916784 58839568 58694652 58433592 58022052 
1295.964 57444692 56710776 55852036 54920160 53972532 53066276 52249236 
1299.339 51551424 50986916 50555308 50246600 50044516 49929456 49881952 
1302.715 49879572 49899904 49922952 49930496 49909568 49853784 49761252 
1306.090 49633748 49475240 49290512 49085304 48867480 48647648 48438672 
1309.465 48254052 48106336 48004552 47954264 47958964 48021352 48146092 
1312.840 48339556 48608404 48958260 49391292 49905888 50498172 51164428 
1316.216 51903104 52716124 53607928 54583764 55647740 56801284 58042424 
1319.591 59366208 60764688 62225768 63729800 65248960 66743232 68159504 
1322.966 69440736 70526816 71367216 71933760 72225992 72277096 72145672 
1326.341 71913864 71669552 71488720 71432360 71531664 71787704 72173880 
1329.717 72645584 73152384 73646160 74095496 74489560 74839416 75173008 
1333.092 75530432 75956344 76489744 77161872 77991784 78984224 80129288 
1336.467 81402256 82768040 84178912 85579856 86915592 88129440 89173488 
1339.842 90013456 90630544 91023072 91201592 91184872 90992800 90644472 
1343.218 90157712 89548696 88833288 88026632 87140888 86184848 85164760 
1346.593 84086816 82962320 81812528 80668880 79575680 78586064 77753424 
1349.968 77134480 76781944 76740744 77051112 77741928 78828776 80311792 
1353.343 82173776 84380384 86875112 89584784 92417248 95257864 97985592 
1356.719 100471488 102585608 104218536 105279072 105708104 105484616 
1359.612 104628304 103198568 101282320 99000992 96497856 93923912 91442624 
1362.987 89199080 87297272 85791104 84673192 83887040 83340712 82931960 
1366.362 82563184 82149320 81634160 80989216 80214496 79331792 78377416 
1369.737 77394560 76422464 75497984 74652944 73912800 73302400 72845664 
1373.113 72565848 72485064 72618280 72967184 73515968 74232944 75077240 
1376.488 76003944 76974280 77960224 78944008 79920536 80895000 81879016 
1379.863 82886088 83925872 84998584 86090432 87168872 88181112 89062720 
1383.238 89737080 90127536 90170024 89815104 89043440 87875672 86390008 
1386.614 84719896 83030592 81496104 80244304 79335768 78767720 78492328 
1389.989 78441992 78544688 78738288 78966656 79175824 79317640 79346552 
1393.364 79228072 78950120 78528496 78005392 77431352 76850160 76282736 
1396.739 75726592 75166152 74588888 73997968 73419272 72894760 72467688 
1400.115 72168752 72004264 71959216 72004856 72110736 72250376 72403992 
1403.490 72561072 72719184 72882496 73059272 73260400 73495480 73770392 
1406.865 74086456 74440784 74828472 75246048 75693696 76176944 76705160 
1410.240 77288016 77931240 78633200 79384936 80172488 80980352 81797168 
1413.615 82617128 83439920 84268648 85106432 85952816 86804336 87653920 
1416.991 88495864 89330896 90171496 91044896 91983000 93016704 94159920 
1420.366 95403080 96722024 98086128 99468816 100848568 102214856 103567120 
1423.741 104913016 106265136 107636032 109033032 110452576 111878960 
1426.634 113283032 114628584 115870656 116961152 117859152 118532680 
1429.527 118965472 119157112 119123152 118894752 118514136 118037440 
1432.420 117522952 117018056 116553832 116134352 115741696 115347536 
1435.313 114935952 114525440 114184400 114009592 114085328 114442336 
1438.207 115042512 115796976 116589160 117308072 117848504 118124760 
1441.100 118083664 117698800 116973776 115932656 114615424 113070280 
1443.993 111347264 109500288 107576560 105611752 103634968 101673256 
1446.886 99766424 97982312 96411136 95149568 94276568 93827952 93799296 
1450.261 94157856 94863512 95877664 97162984 98680984 100376248 102173272 
1453.636 103986176 105706672 107211792 108374376 109065704 109205384 
1456.529 108808392 108022104 107065376 106125208 105296216 104577760 
1459.422 103927408 103303544 102688048 102083312 101500680 100944456 
1462.315 100408272 99878136 99345056 98819864 98341152 97961968 97730736 
1465.691 97663144 97734592 97887952 98054024 98172016 98189544 98067024 
1469.066 97769280 97253952 96471544 95372624 93932752 92183376 90237520 
1472.441 88284432 86520728 85087128 84027664 83305384 82847152 82585304 
1475.816 82482368 82527160 82723416 83072192 83563488 84175536 84885448 
1479.192 85674568 86535776 87471912 88489728 89593824 90781824 92043648 
1482.567 93365016 94731168 96126976 97538192 98946648 100325984 101644232 
1485.942 102859288 103918360 104761040 105310448 105472920 105149384 
1488.835 104245192 102706688 100556392 97909408 94954048 91891976 88891056 
1492.210 86038400 83340224 80750648 78198384 75619464 72982200 70298280 
1495.586 67623992 65044924 62643452 60475112 58557372 56882636 55432920 
1498.961 54192448 53151312 52301296 51631352 51127340 50774580 50560556 
1502.336 50474572 50502192 50618408 50781136 50919180 50938180 50732604 
1505.711 50214316 49364712 48261084 47048616 45858856 44753804 43726200 
1509.087 42740100 41762868 40785032 39818256 38890584 38033532 37267728 
1512.462 36602572 36035264 35557080 35158744 34830668 34562892 34341400 
1515.837 34151628 33984660 33843292 33743084 33705340 33745232 33861276 
1519.212 34032964 34224256 34400716 34543448 34665912 34807548 35013976 
1522.588 35306288 35669616 36063024 36440172 36770300 37045864 37287476 
1525.963 37532156 37819552 38172000 38588900 39055100 39554612 40081952 
1529.338 40643368 41251632 41915888 42634888 43399388 44197252 45025956 
1532.713 45900136 46852256 47918484 49113464 50425040 51817976 53255240 
1536.089 54705812 56154684 57605832 59069476 60559744 62084612 63635416 
1539.464 65183000 66685044 68111400 69451976 70719760 71942288 73141016 
1542.839 74327024 75497712 76642544 77746760 78798624 79792472 80726184 
1546.214 81593048 82375408 83035368 83517096 83761216 83715128 83359656 
1549.590 82719688 81856856 80835648 79687088 78393688 76898448 75138384 
1552.965 73086672 70786200 68354416 65955028 63722664 61722188 59927952 
1556.340 58239860 56508372 54571328 52314264 49738624 47031188 44512076 
1559.715 42463092 40980492 39989700 39342532 38898992 38557032 38246064 
1563.091 37925736 37580600 37219100 36867244 36557844 36316412 36147100 
1566.466 36031520 35934188 35816616 35646344 35407832 35107804 34773444 
1569.841 34442212 34145608 33901864 33713576 33573120 33467606 33380612 
1573.216 33292312 33176850 33006750 32759786 32432444 32051730 31673058 
1576.592 31362738 31164976 31087876 31110370 31201324 31334280 31495676 
1579.967 31684716 31908422 32175350 32489750 32849942 33250138 33683964 
1583.342 34145716 34629812 35128352 35628364 36113428 36568512 36985028 
1586.717 37366232 37727888 38096792 38503268 38977092 39544704 40225580 
1590.093 41034460 41980080 43062136 44266224 45558068 46887580 48188184 
1593.468 49389288 50432560 51273816 51892348 52288624 52480880 52499240 
1596.843 52377732 52153652 51860048 51523480 51163648 50788952 50397280 
1600.218 49977480 49514900 48997132 48421376 47797404 47148436 46507112 
1603.594 45905808 45373784 44931804 44591820 44360524 44240724 44231520 
1606.969 44323904 44497612 44722292 44958884 45172220 45341084 45463544 
1610.344 45556636 45649452 45773912 45953060 46197256 46504604 46866024 
1613.719 47269928 47704644 48161600 48632896 49114464 49609160 50132384 
1617.094 50711420 51371216 52129184 52982340 53910256 54878728 55850380 
1620.470 56795736 57694600 58545736 59364424 60176972 61006980 61865328 
1623.845 62748416 63642436 64534224 65418416 66297808 67179136 68067712 
1627.220 68966240 69877056 70808200 71776128 72807256 73929136 75159024 
1630.595 76498800 77932160 79434224 80974488 82533208 84109088 85718320 
1633.971 87395080 89181952 91120496 93230576 95508800 97940960 100503272 
1637.346 103182552 105971584 108861600 111834720 114862952 117919528 
1640.239 120976584 124017168 127035376 130024480 132966232 135827024 
1643.132 138547104 141057200 143295072 145214912 146806560 148094848 
1646.025 149142432 150023488 150814624 151590416 152408832 153314464 
1648.918 154332064 155459216 156656160 157835584 158874480 159604528 
1651.811 159870080 159624048 159049968 158537072 158431264 158837648 
1654.704 159602768 160486192 161274288 161841664 162143184 162184816 
1657.597 162002000 161630992 161090560 160373200 159453936 158303152 
1660.490 156901024 155242992 153341088 151220144 148921216 146503008 
1663.384 144038560 141604000 139256256 137011552 134836880 132647992 
1666.277 130325496 127730416 124738736 121274328 117338456 113021576 
1669.170 108485464 103925856 99517560 95382080 91576464 88099440 84903856 
1672.545 81906304 79000960 76079656 73069032 69976472 66918412 64097324 
1675.920 61709396 59866412 58556048 57682000 57118844 56768204 56582800 
1679.295 56561476 56729576 57108524 57693352 58454896 59359408 60398108 
1682.671 61616136 63119128 65043232 67464080 70343944 73544536 76914704 
1686.046 80376456 83934232 87637296 91531344 95621112 99861576 104145080 
1689.421 108338520 112324816 116022632 119406712 122493712 125318048 
1692.314 127909688 130280720 132419664 134301728 135898656 137201520 
1695.207 138234464 139064256 139769136 140379472 140848112 141037104 
1698.100 140749776 139743888 137814352 134916400 131296592 127471984 
1700.993 123965600 121050704 118668472 116579192 114501632 112220464 
1703.886 109613584 106660032 103429664 100054648 96685256 93431776 90347008 
1707.262 87428992 84644440 81944400 79274720 76586096 73839472 71019248 
1710.637 68136472 65231092 62357136 59559988 56870964 54294820 51817488 
1714.012 49423108 47109436 44894140 42809896 40886920 39137220 37546100 
1717.387 36092044 34764544 33580856 32578566 31791688 31226318 30853524 
1720.763 30618160 30455532 30315272 30173214 30039686 29948728 29940244 
1724.138 30034824 30222906 30469108 30731346 30981216 31211008 31432870 
1727.513 31664648 31915162 32175564 32422804 32632430 32794554 32919210 
1730.888 33032958 33160758 33315208 33487968 33656788 33803392 33937544 
1734.264 34101704 34355672 34736508 35238944 35827664 36458120 37097896 
1737.639 37731756 38367404 39025524 39726496 40472576 41240192 41987380 
1741.014 42673820 43275312 43789744 44230600 44613664 44943964 45209724 
1744.389 45385148 45441104 45359144 45136672 44786460 44326620 43771236 
1747.765 43120312 42359340 41466584 40425696 39237956 37927468 36537836 
1751.140 35120052 33719452 32364364 31065844 29821764 28623282 27458134 
1754.515 26312050 25168244 24011896 22837874 21657716 20502052 19412994 
1757.890 18425658 17557676 16800178 16124079 15489409 14862282 14228254 
1761.266 13597440 13000077 12470159 12028185 11671301 11378719 11122773 
1764.641 10883253 10651437 10429653 10223554 10036881 9865846 9701823 
1768.016 9535931 9366582 9200143 9047806 8916086 8801920 8689982 8559215 
1771.874 8395482 8200374 7994352 7804923 7652400 7538735 7450547 7366691 
1775.731 7270317 7155809 7030487 6908029 6800448 6709684 6626409 6534606 
1779.588 6420862 6283986 6136265 5998504 5886849 5806283 5746683 5690112 
1783.446 5619551 5528296 5423170 5320820 5237274 5178891 5140332 5107944 
1787.303 5069123 5018640 4961292 4908108 4869338 4847123 4834089 4815427 
1791.161 4778977 4721628 4654071 4593926 4556155 4542761 4543833 4542359 
1795.018 4525518 4490063 4443698 4399145 4367583 4351853 4344925 4334049 
1798.875 4307678 4263474 4209505 4161162 4131022 4123094 4129918 4139017 
1802.733 4138916 4126841 4109112 4096703 4098141 4113695 4135036 4149755 
1806.590 4147982 4128246 4098074 4069210 4051818 4048005 4050447 4046835 
1810.448 4028541 3994531 3953402 3918260 3898735 3895526 3901009 3902915 
1814.305 3892818 3870586 3845313 3830337 3835418 3861526 3898735 3933607 
1818.163 3954104 3957782 3951796 3948720 3957916 3980888 4009546 4031183 
1822.020 4036032 4021418 3993360 3962798 3939592 3926084 3917024 3903617 
1825.877 3880047 3847954 3815429 3791095 3779129 3775185 3767832 3744637 
1829.735 3700658 3642883 3588356 3554581 3549971 3569948 3599949 3623269 
1833.592 3628381 3614950 3592966 3577398 3579035 3599581 3630687 3660425 
1837.450 3679572 3688594 3695812 3713992 3750987 3805802 3868179 3924011 
1841.307 3963332 3983629 3991889 3999915 4018174 4049343 4087337 4122225 
1845.165 4148651 4169960 4196691 4239315 4302424 4380770 4462277 4532214 
1849.022 4580833 4607622 4620682 4630528 4643455 4657856 4665056 4655277 
1852.879 4623897 4574872 4519358 4470178 4434292 4409020 4383883 4347000 
1856.737 4291984 4221650 4146476 4078775 4025698 3985235 3948352 3904419 
1860.594 3849358 3787686 3731202 3691568 3673891 3672621 3675896 3669413 
1864.452 3646090 3608802 3569246 3540249 3529159 3533101 3540316 3537610 
1868.309 3517434 3483765 3449564 3429659 3430293 3446591 3464827 3471307 
1872.167 3458882 3430394 3396163 3368313 3353621 3349347 3345607 3331383 
1876.024 3301902 3261539 3222448 3196579 3189936 3198114 3208829 3208128 
1879.881 3188868 3153522 3113106 3080236 3061849 3055443 3051672 3039660 
1883.739 3014035 2979103 2945943 2926528 2926394 2941372 2959253 2967961 
1887.596 2960288 2938771 2913652 2897174 2896073 2907815 2922492 2929664 
1891.454 2925127 2912818 2902110 2902811 2918055 2943040 2966993 2980371 
1895.311 2980772 2974900 2975967 2994183 3032553 3083840 3134532 3171512 
1899.168 3190270 3195644 3200184 3216339 3248486 3291385 3332552 3360166 
1903.026 3368848 3363238 3354656 3354790 3368380 3390486 3409755 3415833 
1906.883 3404946 3382605 3360767 3350549 3355691 3370751 3383073 3381603 
1910.741 3362804 3333086 3304506 3288180 3287545 3296360 3303137 3296560 
1914.598 3273023 3237904 3202587 3176886 3163268 3154790 3139438 3107366 
1918.456 3058245 3002224 2954983 2929497 2927595 2941873 2957652 2962990 
1922.313 2953315 2935468 2920557 2919723 2934501 2956651 2972631 2972298 
1926.170 2954149 2927896 2908015 2907314 2928563 2964458 3000622 3024545 
1930.028 3032686 3030884 3030918 3041729 3063718 3087043 3098289 3087177 
1933.885 3053674 3008630 2968061 2943874 2937469 2938537 2932165 2908081 
1937.743 2866855 2821063 2788481 2782278 2802821 2837938 2867621 2876194 
1941.600 2860251 2830801 2806589 2803721 2826766 2865420 2902811 2924627 
1945.458 2928129 2922358 2923759 2944208 2985609 3038025 3086443 3119147 
1949.315 3136267 3148950 3173181 3218876 3282337 3346342 3390286 3398300 
1953.172 3369816 3319030 3268049 3234165 3221714 3219210 3207961 3173381 
1957.030 3114041 3042930 2981472 2946910 2942373 2955484 2965258 2955784 
1960.887 2925560 2888601 2866021 2873459 2911484 2965125 3011966 3033587 
1964.745 3025613 2999755 2975934 2968928 2981172 3000622 3008730 2993082 
1968.602 2956518 2914519 2890069 2897908 2936469 2989179 3032920 3050504 
1972.459 3040094 3014736 2995585 2999255 3030217 3080670 3138570 3198681 
1976.317 3267481 3358997 3483965 3638004 3797513 3929729 4003694 4006971 
1980.174 3951395 3866407 3786115 3732639 3709914 3705403 3700758 3683615 
1984.032 3655346 3630119 3624973 3647828 3692470 3740259 3770005 3769804 
1987.889 3743735 3707542 3682178 3681042 3702863 3734812 3760479 3771676 
1991.747 3773581 3782739 3814727 3876871 3959520 4041885 4100516 4123094 
1995.604 4112925 4088107 4070280 4072922 4095766 4125737 4145105 4142362 
1999.461 4120117 4091987 4074561 4077571 4095633 4112156 4108778 4075464 
2003.319 4017505 3953903 3908264 3896228 3917792 3958718 3998343 4023659 
2007.176 4034996 4044895 4069042 4115100 4176083 4234464 4271036 4276892 
2011.034 4259124 4239315 4238145 4269330 4327857 4395263 4447481 4468437 
2014.891 4456117 4424116 4390778 4369558 4363466 4365073 4364370 4358145 
2018.749 4352389 4361124 4395196 4455716 4528967 4593390 4631131 4636154 
2022.606 4619443 4602532 4605847 4637359 4688635 4738309 4764170 4757805 
2026.463 4726217 4690679 4672860 4684415 4719618 4761524 4789095 4792512 
2030.321 4777302 4761457 4763333 4791707 4839283 4887433 4916352 4915681 
2034.178 4891353 4861497 4847927 4862402 4903785 4959282 5013076 5055714 
2038.036 5088499 5119411 5157498 5204544 5253136 5290129 5305458 5298749 
2041.893 5281678 5272018 5283857 5320887 5373183 5422432 5450783 5451655 
2045.750 5431424 5406731 5395727 5407771 5440013 5478733 5507155 5512725 
2049.608 5492860 5453467 5403745 5351009 5299387 5249514 5202532 5163634 
2053.465 5140533 5139896 5163500 5203470 5246664 5276680 5284294 5269067 
2057.323 5241566 5215207 5201827 5204879 5218259 5231271 5234825 5226609 
2061.180 5212826 5203370 5205617 5220204 5240359 5255283 5256993 5245222 
2065.038 5227112 5214134 5214805 5229661 5250957 5268463 5273528 5265445 
2068.895 5251795 5243209 5247536 5264942 5286440 5298682 5291002 5260850 
2072.752 5215610 5168128 5131949 5113711 5112906 5122159 5133793 5143953 
2076.610 5153743 5167189 5187039 5211821 5234993 5248944 5248475 5235463 
2080.467 5217454 5205617 5207092 5223457 5248374 5272655 5288117 5292913 
2084.325 5290868 5290230 5297240 5313407 5333835 5350170 5355471 5347118 
2088.182 5328166 5304116 5280336 5257966 5234255 5204778 5168396 5128697 
2092.040 5094500 5075962 5079381 5104592 5143986 5186671 5222082 5246429 
2095.897 5260951 5270509 5278826 5286004 5287212 5277351 5254008 5220573 
2099.754 5185765 5159879 5149250 5154146 5167926 5181238 5187039 5184156 
2103.612 5176376 5171213 5174096 5185363 5200218 5211854 5215073 5210311 
2107.469 5202364 5197669 5200586 5210211 5220707 5224899 5218527 5203202 
2111.327 5185363 5173627 5173492 5185094 5203001 5219701 5229259 5231271 
2115.184 5229795 5231002 5239118 5253270 5268195 5278055 5278759 5272253 
2119.042 5265244 5265847 5279699 5306632 5340409 5372545 5396834 5411461 
2122.899 5419479 5426458 5436221 5447763 5456520 5455514 5440684 5413071 
2126.756 5378282 5342891 5311528 5283086 5251594 5209238 5151966 5081024 
2130.614 5004629 4933610 4876743 4837842 4814523 4801356 4793550 4789497 
2134.471 4790234 4797403 4808727 4817940 4814691 4792110 4749665 4695971 
2138.329 4646201 4615257 4612444 4636221 4676210 4716905 4747488 4762931 
2142.186 4765879 4762495 4757504 4750369 4737104 4713220 4679525 4643455 
2146.043 4617434 4611908 4631599 4670482 4715465 4752948 4774924 4781523 
2149.901 4781356 4783567 4791507 4800753 4800150 4778542 4731375 4664253 
2153.758 4588668 4519056 4463281 4420200 4383983 4350380 4325113 4325180 
2157.616 4373173 4484606 4656918 4865719 5072643 5238682 5343126 5384991 
2161.473 5383314 5362415 5342153 5330212 5324207 5316325 5303378 5289190 
2165.331 5282482 5291169 5316023 5347353 5370298 5373183 5352586 5317365 
2169.188 5283690 5268228 5278793 5311495 5352217 5385528 5402436 5404886 
2173.045 5403745 5413810 5444475 5494974 5554775 5608676 5643719 5654595 
2176.903 5643619 5617671 5583738 5545680 5505477 5465680 5432732 5415756 
2180.760 5424881 5464573 5529739 5605018 5671883 5715157 5728653 5719521 
2184.618 5701459 5690213 5694409 5713679 5739632 5763471 5779890 5791407 
2188.475 5804973 5829286 5867269 5915667 5966053 6009758 6042650 6066640 
2192.333 6087640 6111666 6140768 6171148 6196087 6209430 6209295 6200456 
2196.190 6190507 6186273 6189936 6198608 6205565 6206875 6202069 6195011 
2200.047 6192390 6197767 6209329 6220522 6223177 6213967 6195918 6179853 
2203.905 6176997 6196961 6240286 6298979 6360102 6412825 6452070 6480555 
2207.762 6505007 6531814 6561852 6590614 6609621 6612615 6599495 6576047 
2211.620 6552399 6536287 6529796 6528215 6524145 6510422 6486172 6456206 
2215.477 6429337 6412456 6407008 6407513 6405629 6394230 6371937 6343560 
2219.334 6317504 6301366 6296694 6299215 6300459 6293197 6275011 6249530 
2223.192 6223984 6204893 6193869 6187382 6178543 6161570 6135223 6104206 
2227.049 6076148 6057232 6049202 6048664 6049504 6045808 6037308 6027497 
2230.907 6023029 6028203 6043188 6062339 6078803 6087271 6087875 6086498 
2234.764 6092345 6112070 6147388 6193331 6240892 6282373 6313839 6337239 
2238.622 6359026 6385925 6420963 6463000 6506924 6547320 6582002 6612178 
2242.479 6641750 6674320 6711031 6749225 6784192 6811891 6830808 6843329 
2246.336 6853831 6865478 6879482 6893957 6906076 6914257 6919711 6926579 
2250.194 6940113 6963412 6995500 7031497 7065375 7092116 7110808 7124348 
2254.051 7137114 7152508 7170697 7187069 7196198 7193806 7178513 7153585 
2257.909 7124214 7094844 7067834 7042576 7016950 6989776 6962300 6938396 
2261.766 6922337 6916512 6919913 6928161 6935669 6938295 6934827 6928127 
2265.624 6922135 6919576 6921024 6923751 6923818 6918566 6908130 6895034 
2269.481 6882848 6873961 6868171 6862415 6853898 6840535 6824109 6809333 
2273.338 6801188 6803275 6815863 6835149 6855548 6872244 6882848 6888066 
2277.196 6890220 6891601 6892846 6892981 6890254 6883353 6873557 6863660 
2281.053 6857534 6857635 6864771 6877428 6893082 6909577 6925838 6942571 
2284.911 6960987 6981358 7003245 7025705 7047223 7068002 7089152 7112560 
2288.768 7139741 7170361 7202329 7233189 7260311 7283222 7303675 7324702 
2292.625 7348459 7376195 7406898 7438581 7469322 7499021 7529160 7562807 
2296.483 7601751 7645622 7691554 7735029 7771796 7799862 7820205 7835791 
2300.340 7850534 7866763 7884240 7900908 7914136 7922707 7927870 7932999 
2304.198 7942009 7958072 7981898 8011935 8045148 8078733 8111040 8141423 
2308.055 8170628 8198484 8224855 8248763 8269903 8288917 8308167 8330155 
2311.913 8356872 8388118 8421562 8453521 8480889 8502378 8519678 8536337 
2315.770 8556781 8583817 8618088 8658106 8701306 8745795 8791067 8838676 
2319.627 8890112 8946289 9005958 9065196 9119197 9162341 9190395 9200887 
2323.485 9193036 9168060 9128705 9079237 9026052 8976528 8937969 8916661 
2327.342 8915477 8933301 8964724 9002846 9040194 9071860 9096594 9116151 
2331.200 9133815 9152696 9174592 9199567 9227827 9259508 9295524 9337027 
2335.057 9384222 9435418 9487365 9535694 9577559 9612043 9641076 9668280 
2338.915 9697181 9729201 9763425 9796806 9825952 9849000 9866185 9878963 
2342.772 9887911 9891640 9885810 9864151 9821139 9755428 9671160 9578507 
2346.629 9491192 9422991 9386119 9388285 9432946 9519843 9645751 9804330 
2350.487 9986157 10181017 10377153 10563836 10733823 10883830 11015129 
2353.862 11130762 11234797 11329198 11413652 11486658 11546914 11595066 
2357.237 11633658 11666331 11696046 11724060 11749217 11769371 11782921 
2360.613 11789662 11791603 11791704 11791467 11790990 11787381 11777338 
2363.988 11757933 11729268 11693425 11654079 11614599 11575941 11536298 
2367.363 11492748 11441717 11381950 11313826 11239251 11160678 11079740 
2370.738 10996676 10911521 10824922 10738782 10656293 10580812 10514748 
2374.114 10458537 10410953 10369415 10332360 10299244 10271423 10250796 
2377.489 10238718 10235326 10239160 10248625 10262500 10281126 10306437 
2380.864 10340877 10385908 10441159 10503749 10569642 10634492 10695005 
2384.239 10749650 10798596 10842247 10881180 10914715 10941694 10960926 
2387.615 10972140 10976218 10974417 10968334 10958513 10944820 10926369 
2390.990 10902551 10873434 10840243 10804642 10767414 10729102 10688858 
2394.365 10645663 10599418 10551344 10503987 10460744 10424224 10395783 
2397.740 10375082 10360728 10351261 10346171 10346510 10353263 10367651 
2401.115 10389607 10417707 10449814 10484368 10520927 10560442 10604816 
2404.491 10656190 10715144 10781374 10853186 10928951 11007653 11089223 
2407.866 11174345 11263632 11357223 11454269 11553686 11654453 11756094 
2411.241 11858712 11962615 12067361 12171484 12273144 12369646 12459314 
2414.616 12541125 12614866 12680226 12736794 12783097 12817223 12838040 
2417.992 12845582 12841828 12830020 12813298 12794290 12773440 12749827 
2421.367 12721304 12687083 12647476 12604394 12560871 12519571 12481922 
2424.742 12448608 12419558 12394805 12375407 12363339 12360373 12368077 
2428.117 12386214 12413182 12447312 12486799 12531132 12580756 12636730 
2431.493 12699946 12770301 12847255 12929820 13017762 13111458 13211528 
2434.868 13318557 13432037 13550127 13670848 13792594 13915093 14040022 
2438.243 14170464 14308822 14456884 14614454 14780034 14951576 15128298 
2441.618 15310961 15501632 15702832 15916016 16140928 16375799 16617782 
2444.994 16864656 17115358 17370066 17629204 17893088 18160656 18429738 
2448.369 18698224 18963902 19226346 19486004 19743566 19999266 20252062 
2451.744 20499724 20739640 20969150 21186746 21391466 21582948 21760334 
2455.119 21921482 22063412 22182548 22275976 22341446 22378076 22385298 
2458.495 22362656 22309496 22224534 22106990 21956822 21775348 21564806 
2461.870 21327706 21065936 20780790 20472562 20141922 19790518 19421554 
2465.245 19039954 18651702 18262414 17876896 17498822 17131214 16776448 
2468.620 16437598 16117200 15817933 15541123 15287382 15055741 14845138 
2471.996 14654583 14483330 14330088 14193846 14072193 13961899 13860048 
2475.371 13764172 13673413 13588380 13510543 13440854 13379239 13324126 
2478.746 13272913 13224030 13176382 13130583 13088408 13051496 13020220 
2482.121 12994000 12971297 12950473 12931049 12913913 12900192 12891283 
2485.497 12887427 12887563 12889850 12892888 12896199 12901181 12909510 
2488.872 12922925 12941427 12963718 12986898 13008373 13027254 13043916 
2492.247 13060920 13081101 13106541 13137789 13174059 13213407 13254057 
2495.622 13294778 13334922 13373807 13410712 13444271 13473527 13497623 
2498.998 13517243 13534163 13550332 13567527 13585783 13604141 13620552 
2502.373 13634057 13644349 13653410 13664044 13678678 13699093 13724604 
2505.748 13753741 13784146 13814211 13843149 13871303 13899218 13926759 
2509.123 13953037 13976612 13995809 14009839 14018668 14023322 14024486 
2512.499 14022124 14015554 14003885 13986535 13963780 13937538 13909927 
2515.874 13882763 13857003 13832442 13808123 13783359 13758529 13734624 
2519.249 13713557 13696630 13684046 13674575 13666539 13658162 13649169 
2522.624 13640485 13633749 13630569 13631526 13635800 13642058 13648793 
2526.000 13655427 13662505 13671531 13683500 13698990 13717867 13738762 
2529.375 13760752 13783702 13807815 13834153 13863366 13895147 13928128 
2532.750 13961078 13992626 14022774 14052445 14083350 14117133 14154444 
2536.125 14194873 14237772 14282455 14328650 14377110 14428144 14481754 
2539.500 14536981 14592180 14645262 14694682 14740784 14784491 14827447 
2542.876 14870511 14913820 14956480 14997396 15035743 15071967 15107541 
2546.251 15144149 15182165 15221112 15258485 15291912 15319473 15341234 
2549.626 15358982 15375149 15393001 15413359 15436498 15460841 15485014 
2553.001 15508123 15530444 15553074 15576737 15601946 15627947 15653331 
2556.377 15676655 15697438 15715817 15732756 15748696 15763642 15776837 
2559.752 15786974 15792986 15794566 15792677 15788244 15782610 15776081 
2563.127 15767869 15757011 15742581 15723892 15701767 15677171 15651751 
2566.502 15626641 15602942 15581510 15563343 15549812 15542394 15541604 
2569.878 15547133 15557298 15569731 15581854 15592329 15600709 15608574 
2573.253 15617127 15627980 15641652 15657315 15674353 15691975 15709771 
2576.628 15728254 15748318 15769999 15792986 15816284 15838688 15859377 
2580.003 15878381 15896494 15914366 15932549 15950492 15967576 15983595 
2583.379 15998755 16014671 16033649 16057922 16088696 16125729 16167581 
2586.754 16211843 16256869 16301071 16344214 16386326 16427344 16466986 
2590.129 16504467 16539367 16571585 16602153 16632518 16663814 16696764 
2593.504 16731095 16765738 16799834 16833174 16866412 16900928 16938342 
2596.880 16979204 17023412 17069762 17117114 17164612 17212460 17261482 
2600.255 17312790 17366824 17423386 17481436 17540116 17598978 17658742 
2603.630 17720690 17786066 17855488 17928652 18004178 18080164 18155474 
2607.005 18229450 18302054 18374152 18445606 18516208 18585056 18651286 
2610.381 18714068 18773364 18829348 18881842 18930260 18973316 19009420 
2613.756 19037598 19057782 19071318 19080114 19086068 19089912 19091540 
2617.131 19089426 19082224 19069138 19051032 19029568 19007550 18987404 
2620.506 18970374 18956980 18946976 18939812 18935520 18934828 18938462 
2623.882 18947010 18960682 18978890 19000766 19025448 19052796 19082606 
2627.257 19114736 19149190 19185240 19222606 19261260 19301752 19345434 
2630.632 19394180 19448650 19509432 19575180 19643504 19712428 19779836 
2634.007 19845314 19909136 19972448 20036702 20102324 20169620 20238382 
2637.383 20308132 20379034 20450924 20523798 20597620 20671838 20745548 
2640.758 20818262 20889736 20960076 21030008 21099292 21167924 21235038 
2644.133 21299516 21360350 21417712 21472576 21526644 21581972 21639816 
2647.508 21701012 21765420 21832486 21901758 21973134 22046610 22122402 
2650.884 22200332 22279500 22359064 22438118 22516666 22595192 22675128 
2654.259 22758222 22845242 22936928 23032752 23131500 23232580 23335184 
2657.634 23439384 23545398 23653534 23763448 23874824 23986614 24097698 
2661.009 24207442 24315184 24420568 24523524 24623768 24720914 24814890 
2664.385 24905906 24994164 25080370 25164628 25247042 25327538 25405976 
2667.760 25481934 25555832 25628724 25701134 25773944 25847294 25920904 
2671.135 25994208 26066714 26137896 26208422 26278642 26349120 26419998 
2674.510 26490496 26559600 26626178 26689488 26749110 26805778 26860266 
2677.885 26913248 26965144 27016374 27066870 27117196 27168020 27220794 
2681.261 27276886 27337506 27403708 27476204 27555386 27641784 27735794 
2684.636 27838232 27949492 28069652 28198226 28334514 28477422 28625936 
2688.011 28779280 28936750 29097748 29261326 29426702 29592882 29759734 
2691.386 29927214 30096466 30268626 30444976 30626410 30813044 31004774 
2694.762 31201252 31402058 31607162 31816610 32030470 32248468 32469756 
2698.137 32693442 32918494 33144162 33370628 33598004 33826964 34057904 
2701.512 34290800 34524828 34759084 34992360 35223060 35450220 35672172 
2704.887 35887400 36094344 36291052 36475956 36647888 36805788 36948912 
2708.263 37076896 37189104 37284736 37363448 37425132 37469916 37498560 
2711.638 37512212 37511492 37497044 37468400 37424876 37365616 37290116 
2715.013 37197804 37089204 36964932 36825548 36672080 36505940 36328300 
2718.388 36141228 35947252 35748364 35546584 35343168 35138300 34932420 
2721.764 34725668 34518728 34313608 34112704 33918200 33732448 33556476 
2725.139 33390560 33234614 33088590 32952878 32828036 32714982 32614424 
2728.514 32526568 32451366 32388068 32336306 32295686 32265958 32247112 
2731.889 32238762 32240190 32250502 32268990 32295152 32328918 32370682 
2735.265 32420590 32478396 32543138 32613568 32687798 32764110 32841864 
2738.640 32920246 32999172 33078366 33157002 33234112 33308554 33379108 
2742.015 33445202 33507008 33565136 33620304 33673076 33723712 33771840 
2745.390 33817612 33860848 33902112 33941848 33981292 34020816 34061200 
2748.766 34102456 34144712 34188120 34233256 34280436 34330748 34384828 
2752.141 34443540 34507644 34577636 34654356 34738480 34830952 34932240 
2755.516 35043180 35164132 35294896 35435512 35585812 35745304 35913456 
2758.891 36089164 36270952 36456572 36643636 36828760 37008696 37180152 
2762.267 37340012 37485776 37615828 37728720 37823928 37901256 37960520 
2765.642 38001780 38024888 38029844 38017112 37987892 37943740 37887188 
2769.017 37821504 37749536 37674184 37598012 37522764 37449872 37380280 
2772.392 37314880 37254156 37198200 37146764 37099304 37055280 37013892 
2775.768 36975288 36939532 36907212 36878316 36852420 36827712 36801564 
2779.143 36770732 36731640 36681416 36618472 36541624 36451200 36348548 
2782.518 36235188 36113428 35985984 35855696 35725628 35598440 35476464 
2785.893 35361352 35254144 35155116 35064336 34981440 34905920 34837236 
2789.269 34774484 34716984 34664372 34616248 34572972 34534732 34502080 
2792.644 34474892 34452652 34433856 34417072 34400788 34383784 34365816 
2796.019 34346812 34326516 34304392 34278864 34247632 34208664 34159764 
2799.394 34100016 34029488 33949476 33861492 33766972 33667060 33562024 
2802.770 33452038 33337068 33217228 33093206 32965426 32834612 32701802 
2806.145 32568068 32434874 32303646 32176528 32055118 31940948 31835220 
2809.520 31738360 31650960 31573456 31506646 31451360 31408720 31379302 
2812.895 31363022 31359534 31368080 31387706 31418088 31459268 31511136 
2816.271 31574238 31648398 31733546 31829372 31935562 32052300 32180130 
2819.646 32319456 32471254 32635644 32812562 33001282 33201456 33411958 
2823.021 33632404 33862136 34100804 34347384 34601140 34860896 35125116 
2826.396 35392736 35662136 35931992 36200756 36466444 36727496 36981780 
2829.771 37227948 37464896 37692072 37909248 38116688 38314928 38504572 
2833.147 38687052 38864676 39040712 39219536 39406016 39604700 39819816 
2836.522 40053824 40308720 40585408 40884808 41208608 41559444 41940996 
2839.897 42358132 42815492 43317740 43868984 44472392 45130496 45845084 
2843.272 46617284 47447780 48335780 49278928 50272676 51310728 52383640 
2846.648 53480152 54587712 55691804 56777304 57829452 58831824 59768984 
2850.023 60625952 61387968 62041800 62575752 62979832 63246480 63370988 
2853.398 63351744 63190908 62894768 62473504 61939988 61310040 60600656 
2856.773 59828272 59009464 58159392 57290828 56415736 55544360 54684956 
2860.149 53845624 53033892 52256336 51520044 50830856 50194492 49615548 
2863.524 49097548 48643388 48255124 47933656 47679276 47491172 47367728 
2866.899 47305804 47300780 47347220 47437536 47563364 47714928 47880896 
2870.274 48049484 48209248 48348592 48458232 48531552 48565232 48559636 
2873.650 48518880 48450972 48365668 48274528 48190072 48122768 48082160 
2877.025 48074504 48103412 48169784 48272084 48408000 48574572 48769524 
2880.400 48991532 49239740 49513856 49813052 50135580 50478520 50837152 
2883.775 51205176 51575376 51939772 52290640 52621636 52928744 53210748 
2887.151 53470072 53712644 53946268 54180172 54423588 54684692 54970244 
2890.526 55287032 55641864 56043608 56504412 57039604 57667468 58409560 
2893.901 59288228 60325084 61539700 62944404 64540608 66311740 68220952 
2897.276 70205576 72174744 74023664 75636112 76899360 77728936 78073792 
2900.652 77929064 77333464 76365648 75129432 73730376 72275344 70853328 
2904.027 69529120 68350152 67343152 66520424 65884188 65430084 65150128 
2907.402 65033460 65069944 65249608 65563156 66003276 66563056 67235376 
2910.777 68012648 68884848 69839824 70865184 71946784 73070992 74225944 
2914.153 75400336 76583456 77766024 78937928 80088928 81208912 82286936 
2917.528 83312688 84276736 85170368 85986584 86720704 87369512 87931976 
2920.903 88407680 88797184 89100712 89318440 89450728 89498576 89464704 
2924.278 89353320 89169832 88920744 88613032 88252392 87844360 87393336 
2927.654 86902832 86376064 85815776 85223744 84601072 83947856 83262800 
2931.029 82542984 81785288 80985224 80138296 79240680 78289720 77283856 
2934.404 76225200 75117936 73970080 72791704 71595496 70395680 69206200 
2937.779 68041408 66914588 65837452 64820984 63874364 63004880 62218540 
2941.155 61518508 60905528 60377092 59927112 59546268 59221576 58938032 
2944.530 58679596 58429460 58173296 57899220 57599400 57271400 56917876 
2947.905 56546644 56168296 55796120 55442972 55118096 54827444 54571516 
2951.280 54346116 54143464 53954036 53768700 53579252 53380140 53167640 
2954.656 52939260 52693680 52429248 52144088 51836416 51504488 51147468 
2958.031 50765344 50359400 49931352 49484040 49019976 48541888 48051888 
2961.406 47551536 47042008 46523968 45998036 45465052 44927096 44386876 
2964.781 43848312 43316056 42794868 42289172 41802488 41337740 40896752 
2968.156 40481156 40092524 39732124 39401336 39101216 38832212 38594224 
2971.532 38387528 38211688 38066516 37951368 37864160 37800428 37752896 
2974.907 37711332 37662044 37590032 37480608 37320296 37100172 36816316 
2978.282 36470620 36070476 35627748 35158136 34677900 34203248 33749100 
2981.657 33326656 32943870 32604996 32310176 32056440 31837858 31647042 
2985.033 31475298 31314768 31159814 31007336 30857936 30715484 30585774 
2988.408 30474226 30383992 30314208 30259070 30208486 30149596 30070438 
2991.783 29961684 29819564 29646340 29450492 29245022 29043402 28859194 
2995.158 28702564 28578586 28488354 28429202 28396482 28384702 28389514 
2998.534 28407836 28437444 28477316 28526142 28582334 28643632 28707274 
3001.909 28770570 28831396 28888232 28940328 28987752 29030366 29068024 
3005.284 29100832 29128538 29151110 29168686 29181550 29189842 29194094 
3008.659 29194024 29189204 29179318 29163654 29141544 29112700 29076740 
3012.035 29033944 28984920 28930906 28873606 28815180 28757968 28704086 
3015.410 28655312 28612840 28576992 28547904 28525400 28508946 28498156 
3018.785 28492068 28489876 28490160 28491646 28493272 28494616 28495998 
3022.160 28498086 28501694 28507672 28515774 28525470 28536332 28547656 
3025.536 28559758 28573488 28590226 28611142 28637012 28667842 28702388 
3028.911 28739876 28778996 28819288 28860752 28903814 28948792 28995794 
3032.286 29044324 29093462 29142180 29189594 29235028 29278836 29321476 
3035.661 29363806 29406952 29452266 29500706 29553726 29612322 29677028 
3039.037 29748202 29825420 29907940 29994560 30083966 30174848 30266068 
3042.412 30356560 30445686 30532982 30618552 30702256 30784480 30865618 
3045.787 30945776 31025414 31104604 31183594 31263168 31343828 31426422 
3049.162 31511564 31599466 31689276 31779922 31869698 31957030 32040850 
3052.538 32120760 32196972 32270238 32341410 32411274 32479860 32548066 
3055.913 32615780 32683582 32751784 32820996 32891542 32963674 33037212 
3059.288 33112266 33188544 33266020 33344474 33423800 33503574 33583288 
3062.663 33662732 33742400 33822988 33905588 33991468 34080948 34173528 
3066.039 34267892 34362304 34455376 34546820 34637564 34729620 34825640 
3069.414 34927032 35034308 35146672 35262016 35377708 35492464 35605596 
3072.789 35717928 35831120 35947180 36067776 36194092 36326608 36465292 
3076.164 36609816 36759736 36913776 37070832 37228776 37385548 37539560 
3079.540 37689688 37835924 37979756 38123128 38268100 38416524 38569348 
3082.915 38726168 38886200 39047744 39209596 39370608 39530808 39690300 
3086.290 39850288 40011788 40175712 40342352 40511492 40682372 40853940 
3089.665 41025028 41194432 41361756 41527244 41690980 41853856 42016400 
3093.041 42179072 42342460 42507160 42673892 42843940 43018560 43199140 
3096.416 43386460 43581260 43783440 43992460 44207780 44428348 44653580 
3099.791 44883044 45116636 45354544 45597484 45846260 46101852 46364820 
3103.166 46635104 46911864 47193276 47476864 47759788 48039452 48313484 
3106.542 48580496 48839856 49090980 49333496 49566780 49789976 50002096 
3109.917 50202004 50389016 50562824 50722996 50869968 51003536 51123468 
3113.292 51229260 51320088 51395196 51453908 51495724 51520532 51528816 
3116.667 51521576 51500128 51466476 51422128 51368792 51307596 51238916 
3120.042 51163052 51080268 50990944 50896120 50797744 50698312 50600424 
3123.418 50506508 50418232 50336332 50261332 50193224 50131824 50077792 
3126.793 50032204 49996032 49970752 49957224 49956068 49967444 49991052 
3130.168 50026408 50072476 50127996 50191216 50260812 50335516 50414548 
3133.543 50497948 50586280 50680512 50781876 50890980 51007560 51130772 
3136.919 51259160 51390872 51524336 51658256 51791732 51924872 52057792 
3140.294 52190868 52324580 52459228 52594972 52731728 52869536 53008472 
3143.669 53148840 53291164 53435672 53582924 53733040 53885536 54039656 
3147.044 54194732 54349492 54503328 54656132 54808200 54960804 55115124 
3150.420 55272208 55432656 55596292 55762024 55928160 56093224 56255452 
3153.795 56413772 56568004 56718704 56866624 57012888 57158376 57303836 
3157.170 57449268 57594748 57739936 57885136 58030688 58177384 58326332 
3160.545 58478628 58634960 58795520 58959784 59126688 59294456 59461264 
3163.921 59625360 59785568 59941340 60092796 60240800 60386724 60531556 
3167.296 60676092 60820524 60964352 61106288 61245712 61381708 61513776 
3170.671 61642604 61768788 61892836 62015888 62138132 62259568 62380312 
3174.046 62500180 62618420 62734940 62848732 62958920 63064880 63165880 
3177.422 63261732 63353428 63442416 63530236 63618540 63709044 63801868 
3180.797 63897244 63994756 64093784 64193456 64293220 64391980 64489020 
3184.172 64583668 64675412 64764096 64850336 64934900 65018712 65102272 
3187.547 65185504 65267592 65347352 65423652 65495884 65564312 65629444 
3190.923 65692380 65754444 65816016 65877512 65939100 66000268 66060760 
3194.298 66120364 66178048 66233112 66284680 66331656 66373736 66411452 
3197.673 66446052 66479100 66512040 66545448 66578968 66611840 66642552 
3201.048 66670404 66695244 66717608 66738552 66758880 66779168 66799640 
3204.424 66820280 66841380 66863252 66886364 66911064 66936500 66961012 
3207.799 66982544 66999048 67009532 67014516 67015908 67016296 67018264 
3211.174 67022944 67030020 67038676 67047068 67054300 67060640 67067408 
3214.549 67076340 67089104 67105772 67125376 67146144 67165904 67182768 
3217.925 67196112 67206200 67213672 67220128 67226936 67234984 67245896 
3221.300 67260824 67280440 67305128 67334528 67367024 67401000 67434472 
3224.675 67465704 67494192 67520056 67544088 67567552 67591512 67616480 
3228.050 67643272 67672240 67703912 67739224 67778808 67822888 67871072 
3231.426 67922288 67974984 68027648 68079032 68128376 68175824 68221840 
3234.801 68267088 68312456 68358992 68407472 68458944 68513880 68572496 
3238.176 68633888 68697776 68762864 68828240 68893896 68959912 69026912 
3241.551 69095352 69165048 69235816 69306504 69376480 69445560 69514256 
3244.927 69583760 69655128 69729000 69805728 69884528 69964712 70045568 
3248.302 70126904 70208416 70290336 70371752 70451752 70528688 70601504 
3251.677 70670040 70735544 70800128 70866592 70937080 71011760 71089104 
3255.052 71166344 71239736 71306568 71365656 71417048 71462632 71504656 
3258.427 71545136 71585296 71625664 71665912 71705848 71745520 71784920 
3261.803 71823856 71862248 71899200 71933064 71962504 71986280 72003448 
3265.178 72013896 72018504 72017960 72014000 72007552 71999184 71989408 
3268.553 71977912 71963912 71946544 71924496 71896848 71862912 71822488 
3271.928 71775736 71723512 71666696 71605344 71540176 71470760 71396856 
3275.304 71318328 71235632 71149680 71062216 70975432 70891048 70810424 
3278.679 70734496 70662360 70592264 70521872 70448672 70370632 70286904 
3282.054 70198056 70106264 70014464 69926064 69843624 69768376 69699864 
3285.429 69635912 69574264 69512160 69448280 69382880 69317152 69252872 
3288.805 69191976 69135016 69081832 69031336 68982088 68933272 68885040 
3292.180 68838640 68795312 68756424 68722264 68691912 68663504 68635128 
3295.555 68605216 68573784 68542320 68513368 68490056 68475160 68470192 
3298.930 68474928 68488424 68508520 68533160 68561288 68592528 68627528 
3302.306 68667648 68713800 68766200 68824712 68887608 68952496 69016848 
3305.681 69078184 69134592 69184992 69229560 69269192 69306040 69342736 
3309.056 69382112 69426544 69477864 69536504 69602384 69674728 69751880 
3312.431 69833240 69918080 70005856 70096416 70189256 70283280 70377712 
3315.807 70471432 70563728 70654672 70744592 70834136 70923704 71013240 
3319.182 71101712 71188088 71271088 71350072 71424936 71496816 71566352 
3322.557 71634728 71702568 71769480 71834568 71896504 71953664 72004264 
3325.932 72047368 72081944 72107920 72126232 72138008 72145200 72149584 
3329.308 72152088 72152832 72151032 72144536 72131040 72108976 72077336 
3332.683 72036304 71987136 71931376 71870304 71804776 71734928 71660048 
3336.058 71579832 71493144 71398968 71296464 71184616 71062480 70929080 
3339.433 70783752 70626488 70457440 70277560 70087272 69887648 69679480 
3342.809 69463632 69241872 69016152 68788568 68560896 68334792 68110120 
3346.184 67886304 67662280 67436760 67209840 66982156 66755288 66531076 
3349.559 66311472 66096900 65887272 65681936 65479704 65280028 65083184 
3352.934 64889812 64701020 64518200 64342940 64176052 64018832 63872108 
3356.310 63736400 63612284 63499480 63397252 63304588 63219876 63141816 
3359.685 63069476 63002320 62939920 62882820 62831008 62784940 62745160 
3363.060 62712320 62687436 62671588 62665692 62669792 62683532 62705880 
3366.435 62735172 62770008 62808640 62849924 62892856 62936200 62978872 
3369.811 63019976 63058676 63094228 63126528 63155612 63181020 63202596 
3373.186 63218996 63228384 63228772 63218116 63194236 63155612 63100584 
3376.561 63027644 62934980 62820740 62682688 62519080 62328524 62109576 
3379.936 61861812 61585056 61279136 60944796 60582980 60195392 59784120 
3383.312 59352076 58902628 58439356 57965936 57486032 57002464 56517736 
3386.687 56034448 55553776 55077244 54605556 54138584 53675824 53215840 
3390.062 52756832 52297072 51835224 51371144 50905768 50441600 49981832 
3393.437 49529792 49087976 48657320 48237792 47828328 47427780 47035028 
3396.813 46649788 46272440 45903044 45541364 45185384 44831680 44476028 
3400.188 44113988 43742176 43359220 42966064 42565628 42162128 41759696 
3403.563 41361864 40970440 40585920 40207260 39833072 39462144 39093168 
3406.938 38726208 38361580 38000080 37642964 37291376 36946496 36609168 
3410.313 36279848 35958448 35643788 35334504 35028452 34724160 34420908 
3413.689 34118620 33818868 33523976 33235758 32956238 32686330 32425374 
3417.064 32171994 31924256 31680364 31439104 31200256 30963816 30730564 
3420.439 30501488 30276974 30057512 29842988 29633144 29427444 29225636 
3423.814 29027214 28832176 28640872 28453612 28270820 28092664 27918750 
3427.190 27748402 27580240 27413060 27245488 27077240 26908596 26740194 
3430.565 26573338 26408692 26246786 26087332 25929908 25773874 25618670 
3433.940 25464084 25309974 25156238 25002798 24849238 24695488 24541896 
3437.315 24389130 24238134 24090062 23945088 23803066 23662840 23523082 
3440.691 23382980 23242926 23103860 22968120 22837246 22711646 22589990 
3444.066 22469068 22344760 22213236 22072790 21924096 21770576 21617424 
3447.441 21470276 21332892 21206924 21091116 20982156 20876388 20770260 
3450.816 20661796 20550822 20438456 20326150 20215890 20108084 20002456 
3454.192 19898244 19794194 19689718 19584748 19480080 19376616 19275254 
3457.567 19176616 19079870 18984496 18888764 18791910 18693106 18592872 
3460.942 18491658 18390986 18292308 18196552 18104206 18015298 17929274 
3464.317 17845718 17764112 17683900 17604876 17527006 17449772 17372688 
3467.693 17295686 17217664 17137934 17056424 16972864 16887770 16802106 
3471.068 16716667 16632725 16551001 16471805 16395066 16320577 16247891 
3474.443 16176522 16106885 16039219 15973797 15910964 15850270 15791165 
3477.818 15732652 15673701 15613486 15552078 15489615 15426885 15364817 
3481.194 15304714 15247708 15194999 15147580 15106375 15071143 15041575 
3484.569 15015883 14992012 14967626 14940671 14909979 14876135 14840407 
3487.944 14805506 14773932 14747811 14728582 14716584 14711305 14711889 
3491.319 14717339 14726524 14738281 14751993 14766425 14780891 14794912 
3494.695 14808351 14821482 14835230 14851241 14871608 14898731 14935115 
3498.070 14982683 15042843 15115501 15198876 15290642 15387577 15486421 
3501.445 15585803 15685793 15788073 15895875 16013023 16142236 16285351 
3504.820 16442209 16611654 16791568 16979444 17173230 17371066 17571684 
3508.196 17774916 17981384 18193306 18413074 18643782 18887586 19144514 
3511.571 19412648 19688504 19967762 20246368 20522754 20796294 21068266 
3514.946 21340514 21613628 21887158 22159640 22428594 22692234 22949466 
3518.321 23200036 23443338 23678236 23901324 24107608 24291986 24448820 
3521.697 24574538 24667290 24727580 24757184 24758026 24731894 24679704 
3525.072 24600942 24494986 24360882 24198230 24007170 23789310 23546760 
3528.447 23283162 23002008 22706792 22400752 22086142 21764968 21438702 
3531.822 21108440 20775472 20440504 20103954 19765654 19425190 19082674 
3535.198 18738872 18396102 18057262 17726040 17405278 17096366 16798974 
3538.573 16511591 16232412 15959531 15692491 15431863 15178392 14933057 
3541.948 14695643 14464763 14238970 14015862 13793483 13571663 13350162 
3545.323 13130378 12913777 12702266 12497541 12301639 12115978 11941431 
3548.698 11777780 11624299 11478084 11336408 11195900 11053738 10908769 
3552.074 10761572 10613237 10466548 10323945 10187292 10058109 9937370 
3555.449 9825444 9722457 9627457 9538573 9452824 9366582 9276263 9179701 
3559.306 9076733 8969257 8861367 8757189 8660506 8573678 8496532 8427136 
3563.164 8362209 8297731 8229920 8154962 8070328 7974237 7866999 7751658 
3567.021 7633819 7520664 7418998 7333396 7265128 7211897 7168946 7130849 
3570.879 7092992 7051938 7006141 6955802 6901565 6844709 6785773 6725500 
3574.736 6664596 6603902 6544898 6488728 6436398 6387909 6342080 6297332 
3578.594 6252320 6205968 6158512 6110994 6064791 6021416 5982076 5946737 
3582.451 5915466 5887689 5862298 5837681 5811891 5781938 5744668 5697497 
3586.308 5639725 5573099 5502356 5434477 5376001 5331050 5300661 5282248 
3590.166 5271616 5263366 5252801 5236301 5211787 5178120 5135772 5086153 
3594.023 5032215 4977213 4925299 4879792 4843136 4815427 4794790 4778274 
3597.881 4761926 4742563 4718747 4690746 4660669 4631298 4606115 4586994 
3601.738 4574939 4569381 4568443 4570117 4571926 4571524 4566568 4555652 
3605.595 4537304 4510954 4477208 4437773 4396401 4356706 4322770 4297438 
3609.453 4281442 4273211 4268995 4265046 4256848 4241256 4217501 4186654 
3613.310 4152130 4117909 4088040 4064995 4048975 4038273 4029912 4021017 
3617.168 4008543 3991120 3968783 3942601 3914282 3885530 3857414 3829903 
3621.025 3802460 3774918 3746542 3718503 3692404 3670215 3654811 3648496 
3624.883 3651904 3663866 3680507 3695979 3702362 3692537 3661494 3610573 
3628.740 3548000 3486938 3440780 3416801 3413963 3425217 3441248 3453371 
3632.597 3455074 3444554 3423313 3395829 3368146 3344572 3327710 3317594 
3636.455 3312285 3309647 3307744 3305574 3302503 3298096 3291886 3282738 
3640.312 3269918 3253326 3233364 3212033 3191338 3173314 3159597 3150852 
3644.170 3146313 3145312 3146347 3147715 3147348 3143276 3132763 3113674 
3648.027 3084474 3044965 2997520 2946677 2897974 2857783 2831001 2819295 
3651.885 2822163 2836570 2857649 2879929 2897607 2906013 2901510 2883698 
3655.742 2855181 2822163 2791916 2770240 2759670 2759403 2765605 2773775 
3659.599 2780577 2783746 2783245 2780344 2776743 2774075 2773208 2774275 
3663.457 2776943 2781845 2789248 2799986 2814426 2831835 2850178 2865954 
3667.314 2874426 2870824 2851579 2815460 2765138 2708421 2657045 2621875 
3671.172 2610609 2624376 2658112 2702320 2744264 2771841 2773975 2745365 
3675.029 2689517 2620209 2557044 2515418 2501621 2511652 2535681 2562411 
3678.886 2584109 2597042 2602008 2602175 2601575 2602075 2603975 2604809 
3682.744 2602675 2596942 2589609 2584376 2585576 2595675 2614209 2638243 
3686.601 2662379 2681049 2690684 2690217 2681582 2668313 2653678 2638510 
3690.459 2622176 2604242 2584842 2566110 2551612 2543613 2543446 2549612 
3694.316 2558811 2567443 2572476 2573310 2571976 2572410 2578609 2592909 
3698.174 2615209 2642510 2669413 2690284 2700352 2697152 2681049 2655345 
3702.031 2625242 2596008 2571743 2554511 2544446 2540047 2539480 2540680 
3705.888 2542046 2542313 2541213 2538880 2535881 2533014 2530615 2528948 
3709.746 2527582 2525549 2521650 2514718 2504820 2492689 2480293 2469696 
3713.603 2462732 2460033 2460966 2463664 2466031 2466397 2463531 2458633 
3717.461 2453701 2451835 2455834 2467130 2485125 2507486 2531414 2553945 
3721.318 2574243 2593109 2612209 2633376 2656845 2680615 2700586 2712455 
3725.176 2712488 2700219 2678348 2652445 2629242 2614442 2610175 2615475 
3729.033 2626476 2637943 2644910 2645044 2638376 2628909 2622109 2624576 
3732.890 2639810 2668180 2704920 2741997 2770607 2783646 2777610 2754168 
3736.748 2719591 2681549 2646677 2619009 2599842 2589309 2586942 2592342 
3740.605 2605108 2624242 2647010 2668513 2682182 2680549 2658445 2617175 
3744.463 2565677 2519317 2490923 2485158 2498255 2521050 2543846 2558044 
3748.320 2559211 2547412 2526415 2502820 2481426 2463731 2447803 2430443 
3752.177 2410985 2392394 2380300 2380400 2395758 2425179 2463798 2504987 
3756.035 2540846 2565910 2577343 2575743 2564577 2548279 2531348 2517017 
3759.892 2507586 2504553 2508452 2519150 2534614 2551712 2565910 2572710 
3763.750 2569010 2554378 2531915 2507186 2486724 2475361 2473795 2479393 
3767.607 2486791 2490823 2487691 2476627 2459899 2440939 2423613 2409752 
3771.465 2399457 2391527 2385097 2379800 2376801 2377468 2383365 2394326 
3775.322 2408986 2424079 2435708 2440073 2434841 2419448 2395925 2368606 
3779.179 2343187 2325198 2318136 2322800 2336891 2355546 2373836 2387363 
3783.037 2393993 2394159 2390328 2385963 2384398 2387163 2393160 2399757 
3786.894 2403821 2402855 2396392 2386363 2375669 2367806 2365741 2370471 
3790.752 2381832 2398091 2416982 2435841 2452302 2464331 2470229 2468929 
3794.609 2459866 2443805 2423113 2401656 2383698 2373170 2371338 2376768 
3798.467 2386030 2393127 2391827 2377334 2347518 2304712 2257214 2216149 
3802.324 2191705 2189107 2207490 2240361 2279863 2316770 2343987 2357645 
3806.181 2357679 2348384 2336891 2329928 2330595 2338123 2348517 2357445 
3810.039 2362609 2364441 2366107 2372271 2386696 2410618 2441206 2472162 
3813.896 2495722 2504020 2492923 2463664 2424312 2386696 2361843 2355980 
3817.754 2368606 2394126 2422980 2446437 2456000 2447503 2421747 2385663 
3821.611 2350882 2327463 2321501 2332260 2354280 2379300 2399190 2408586 
3825.469 2405154 2390861 2371604 2355013 2347185 2351149 2365641 2385863 
3829.326 2406154 2420614 2425645 2420547 2407253 2389495 2371571 2357545 
3833.183 2349250 2347651 2351782 2359611 2368139 2374136 2374369 2367206 
3837.041 2352981 2334326 2316204 2303546 2299416 2303679 2314072 2326431 
3840.898 2336658 2343354 2346851 2350016 2356479 2368839 2387996 2411851 
3844.756 2436441 2457033 2470296 2474695 2470729 2461565 2450702 2442106 
3848.613 2438507 2441572 2450569 2463798 2477394 2486991 2488357 2478027 
3852.470 2455067 2422746 2388096 2358745 2340122 2333127 2334559 2340389 
3856.328 2347185 2353781 2360377 2368506 2379633 2394659 2413217 2433376 
3860.185 2452868 2468996 2480360 2486191 2486724 2482592 2475161 2465431 
3864.043 2455234 2446937 2443505 2446837 2457767 2474528 2493289 2508386 
3867.900 2515018 2509852 2493289 2469296 2445837 2431310 2430343 2442139 
3871.758 2461065 2480593 2493922 2497422 2491490 2480160 2469196 2464398 
3875.615 2468929 2481826 2500121 2518184 2530648 2533514 2524549 2504287 
3879.472 2476694 2448103 2425845 2416216 2423013 2445571 2480193 2520017 
3883.330 2557378 2584842 2596408 2590042 2568177 2538347 2509719 2490590 
3887.187 2485458 2493423 2509585 2527949 2542313 2548412 2544713 2533048 
3891.045 2518017 2504886 2497588 2497855 2504853 2516084 2529048 2542180 
3894.902 2555111 2567877 2581209 2594609 2606942 2616009 2619242 2614809 
3898.760 2602208 2583109 2560677 2538647 2520117 2506419 2496855 2489890 
3902.617 2483192 2475628 2466930 2458533 2452502 2450736 2454034 2462732 
3906.474 2475694 2491623 2509252 2527382 2544812 2560411 2573243 2582576 
3910.332 2587776 2589509 2588309 2586275 2585176 2586642 2591409 2599675 
3914.189 2610342 2621875 2632743 2641510 2646877 2648877 2646877 2640810 
3918.047 2630976 2618175 2603575 2589409 2578443 2573776 2577209 2589342 
3921.904 2608475 2631809 2654945 2673547 2684649 2687250 2682382 2673314 
3925.761 2663979 2657445 2655678 2658778 2665113 2672447 2678181 2680115 
3929.619 2676881 2668080 2653878 2635576 2615009 2594109 2575243 2560777 
3933.476 2551945 2549412 2552478 2559744 2568977 2578309 2586342 2592542 
3937.334 2597375 2601908 2607175 2614009 2621976 2630176 2636943 2640810 
3941.191 2640677 2636643 2630109 2623042 2617842 2616475 2619542 2626776 
3945.049 2636676 2647377 2657478 2665880 2672814 2679015 2685683 2693284 
3948.906 2701753 2709755 2715223 2716690 2713189 2705120 2694451 2683916 
3952.763 2675914 2672214 2672881 2677048 2682949 2688950 2694385 2699619 
3956.621 2705754 2714022 2725059 2738629 2753534 2767939 2780344 2789781 
3960.478 2796484 2801086 2804788 2808456 2812625 2816827 2820862 2824531 
3964.336 2827633 2830434 2833836 2838672 2845475 2854614 2865954 2878862 
3968.193 2892337 2905146 2915887 2923726 2928429 2930464 2931198 2932466 
3972.051 2935468 2940939 2948845 2957519 2965659 2971964 2976067 2978870 
3975.908 2982039 2987477 2996052 3007662 3020675 3032686 3041629 3045899 
3979.765 3045265 3040894 3034355 3027648 3022043 3017972 3015103 3013001 
3983.623 3010765 3007896 3004326 2999889 2994784 2989412 2983974 2978937 
3987.480 2974967 2972531 2971931 2973799 2977936 2983707 2990680 2997987 
3991.338 3004493 3009531 3012367 3012300 3009564 3004860 2999255 2994350 
3995.195 2991347 2990847 2992849 2996118 2998988 2999722 2997219 2991081 
3999.052 2982073 2971430 2960288 2950046 
##END=
