
##TITLE=mdmaHCL00399_8
##JCAMP-DX=5.01  $$ Nicolet v. 1
##DATATYPE=INFRARED SPECTRUM
##ORIGIN=UniL
##OWNER=Nicolet
##LONGDATE=2011/08/24
##TIME=10:50:43
##SPECTROMETER/DATA SYSTEM=Nicolet iS5
##DATA PROCESSING=
Ratio against background
%Transmittance->Absorbance
Truncated
ElementMultiply or ElementDivide
##COMMENTS=
Number of sample scans: 32
Collection length: 51.19 sec
Sample gain: 2.0
Background collected on: Mer Aout 24 10:48:49 2011 (GMT+02:00);
Number of background scans: 32
Background gain: 2.0
Sample spacing:  1.000
Number of scan points: 12415
Resolution points: 8192
Number of FFT points: 65536
Apodization: N-B fort;
Phase correction: Mertz;
Laser frequency: 15798.0 cm-1
Number of rejected sample scans: 0
Number of rejected background scans: 0
Bench serial number: ASB1000141;
##RESOLUTION=4.000
##XUNITS=1/CM
##YUNITS=ABSORBANCE
##FIRSTX=649.893372
##LASTX=4000.122314
##FIRSTY=0.126089
##MAXX=4000.122314
##MINX=649.893372
##MAXY=0.313085
##MINY=-0.002413
##XFACTOR=1.000000
##YFACTOR=1.000000E-009
##NPOINTS=6950
##DELTAX=0.482117
##ZPD=6100
##XYDATA=(X++(Y..Y))
649.893 126088904 124989016 123985480 123098888 122338320 121707760 
652.786 121211472 120850256 120617192 120497000 120465912 120497136 
655.679 120567848 120667752 120798232 120972120 121203720 121501616 
658.571 121864376 122280176 122730432 123197568 123671640 124150160 
661.464 124638600 125144840 125676616 126238392 126831800 127455728 
664.357 128105376 128773272 129440072 130078168 130648616 131110056 
667.250 131440520 131662296 131847008 132075232 132400600 132823376 
670.142 133303568 133784072 134212256 134556704 134808736 134983472 
673.035 135106336 135200432 135273488 135314800 135304064 135224672 
675.928 135073648 134863472 134613952 134340592 134044352 133712976 
678.820 133326128 132867408 132334528 131738976 131100328 130436304 
681.713 129756448 129061744 128351256 127629008 126908272 126208168 
684.606 125546080 124929680 124353368 123803152 123265824 122738256 
687.498 122232184 121769064 121370760 121050400 120804968 120619856 
690.391 120475752 120359720 120272080 120226448 120241656 120336640 
693.284 120522760 120803304 121178664 121652424 122233896 122938568 
696.177 123780768 124764488 125876608 127084136 128340888 129592000 
699.069 130789592 131900296 132908896 133818792 134647008 135421104 
701.962 136171536 136928992 137721296 138565616 139465968 140410864 
704.855 141376736 142332192 143248240 144107488 144905712 145651456 
707.747 146356960 147031952 147677904 148289808 148862176 149397072 
710.640 149908976 150424816 150975536 151586624 152272000 153027632 
713.533 153835840 154667104 155489072 156268528 156974032 157581008 
716.425 158073504 158451728 158736112 158970784 159218544 159542864 
719.318 159999520 160617824 161395936 162302416 163288352 164299216 
722.211 165278896 166177744 166950512 167552976 167952864 168135888 
725.104 168119392 167955008 167723872 167521104 167425024 167486416 
727.996 167719040 168108400 168628832 169261616 170006176 170876944 
730.889 171893152 173065264 174390064 175854224 177448608 179179920 
733.782 181076912 183183104 185544624 188188912 191118848 194312864 
736.674 197737856 201361904 205158672 209105584 213172448 217312560 
739.567 221477504 225635392 229806080 234067824 238543008 243323424 
742.460 248376992 253445808 258004224 261342432 262633232 261214048 
745.352 256790704 249531776 240043328 229188032 217933424 207089488 
748.245 197247696 188768208 181766784 176200624 171923920 168753776 
751.138 166497728 164981056 164073584 163685264 163782592 164383296 
754.031 165542896 167321008 169737472 172729424 176123136 179647744 
756.923 182937248 185619760 187384656 188022240 187478976 185848832 
759.816 183354960 180282144 176939264 173618688 170539232 167856208 
762.709 165655296 163957232 162736512 161932704 161470272 161263520 
765.601 161232976 161317568 161472096 161673680 161915536 162200320 
768.494 162533744 162920112 163364896 163880400 164493952 165256544 
771.387 166232944 167488064 169057792 170915984 172948832 174942128 
774.279 176627136 177705232 177925696 177163008 175437456 172919824 
777.172 169862448 166553680 163229056 160021216 156960816 153985440 
780.065 150987488 147850608 144496864 140905088 137109776 133186128 
782.958 129229560 125340240 121598544 118066568 114786472 111781144 
785.850 109062288 106632456 104485784 102611120 100992832 99615992 98470032 
789.225 97551752 96865120 96419696 96225960 96291256 96620392 97216032 
792.600 98079688 99212832 100610952 102255696 104101792 106073976 108061368 
795.975 109916312 111480456 112585944 113073888 112824376 111758176 
798.867 109855848 107160776 103778808 99869376 95616776 91231968 86919304 
802.242 82849544 79163224 75945928 73230744 71010856 69249648 67898424 
805.617 66902952 66214204 65787600 65579728 65550752 65660700 65868140 
808.992 66134096 66416280 66669324 66848880 66909908 66814484 66539264 
812.367 66078156 65445876 64672604 63801056 62876040 61935824 61012552 
815.742 60129324 59302736 58547172 57874004 57290940 56800116 56397328 
819.116 56072488 55813564 55611544 55462208 55367536 55332644 55363548 
822.491 55464508 55638284 55888060 56219660 56641044 57159736 57776576 
825.866 58479424 59236804 59998668 60703296 61278680 61659288 61794688 
829.241 61654744 61237052 60567016 59695192 58686424 57615520 56558080 
832.616 55574376 54709608 53987012 53408880 52962616 52627696 52384572 
835.990 52216908 52113568 52065340 52062088 52090780 52137548 52189076 
839.365 52237276 52280252 52321552 52366780 52420124 52482636 52552412 
842.740 52627024 52706620 52795780 52901984 53033892 53197376 53394340 
846.115 53623112 53881408 54168688 54488380 54846956 55251356 55706084 
849.490 56210908 56761448 57350756 57973128 58624300 59302436 60006772 
852.865 60735228 61484268 62248828 63024156 63808276 64602196 65409824 
856.239 66235624 67083032 67953520 68846096 69760360 70698184 71665128 
859.614 72670416 73726456 74844928 76035520 77303056 78644272 80045776 
862.989 81482752 82917800 84298424 85565696 86658848 87522208 88120872 
866.364 88445376 88519952 88399312 88168360 87933760 87802864 87885200 
869.739 88278464 89056208 90273128 91955032 94094936 96646104 99516816 
873.113 102573520 105625144 108446328 110797416 112431128 113149896 
876.006 112828496 111432952 109030224 105774464 101889504 97615680 93198384 
879.381 88859304 84762872 81030264 77732736 74898584 72529472 70606688 
882.756 69099944 67967464 67160256 66626132 66308500 66155860 66126300 
886.131 66187768 66323012 66527100 66806100 67173640 67647688 68248632 
889.505 68993936 69896480 70962008 72187968 73564824 75080440 76725008 
892.880 78495584 80399104 82450840 84671416 87076672 89668472 92419704 
896.255 95263440 98089648 100729176 102976032 104610048 105411592 105221400 
899.630 103964536 101670872 98472600 94587656 90293560 85862240 81548072 
903.005 77556264 74015808 70998800 68523880 66573292 65108092 64079536 
906.379 63438432 63135268 63125832 63376204 63861200 64568864 65497620 
909.754 66652828 68041096 69664040 71511928 73559760 75762128 78045720 
913.129 80317536 82460008 84340792 85840880 86861680 87350792 87314408 
916.504 86819632 85987272 84962560 83909512 82977240 82278568 81892464 
919.879 81851488 82147160 82733040 83535248 84463608 85417992 86313616 
923.254 87092224 87733752 88262752 88744952 89280192 89975752 90939400 
926.628 92259704 93987216 96128256 98629216 101376216 104175656 106765472 
930.003 108851640 110111256 110265760 109136328 106670320 102972960 98285512 
933.378 92965928 87401080 81956320 76946392 72578376 68968112 66151500 
936.753 64102924 62761776 62051128 61896508 62223740 62956928 64017260 
940.128 65302944 66688828 68038344 69199440 70036032 70453080 70405304 
943.502 69912864 69051776 67944064 66724716 65517804 64425564 63508996 
946.877 62794320 62281676 61954664 61789988 61761800 61846452 62019636 
950.252 62256740 62535724 62835792 63141436 63443340 63737132 64023436 
953.627 64305284 64588168 64878964 65186232 65520660 65893248 66313356 
957.002 66788664 67322608 67915744 68566520 69274248 70039656 70865376 
960.377 71755176 72712872 73741408 74843192 76020440 77276696 78617232 
963.751 80049400 81582136 83224312 84984600 86870416 88887192 91038152 
967.126 93322248 95733728 98257800 100871136 103540208 106219304 108856744 
970.501 111395272 113775032 115943344 117854760 119474816 120783832 
973.394 121775248 122456200 122845128 122973528 122883376 122621000 
976.286 122239952 121793056 121327952 120891576 120526568 120272640 
979.179 120172960 120270368 120607696 121229816 122177352 123486848 
982.072 125190856 127312928 129866224 132847216 136229984 139954576 
984.964 143914864 147965232 151902448 155480288 158448288 160552560 
987.857 161587392 161431680 160057760 157547424 154074160 149898224 
990.750 145316768 140625776 136111472 131997096 128441752 125546576 
993.643 123350904 121851968 121017256 120799800 121145816 122001136 
996.535 123320616 125064136 127198920 129700216 132545160 135710160 
999.428 139166864 142870672 146754480 150727040 154657536 158389552 
1002.321 161755088 164578560 166715760 168072144 168616624 168393456 
1005.213 167518384 166174304 164572064 162940176 161500400 160428704 
1008.106 159862752 159892784 160562096 161884368 163852192 166451328 
1010.999 169665728 173485040 177907120 182935840 188581520 194859344 
1013.891 201782752 209356784 217564160 226336608 235539280 244944496 
1016.784 254202368 262888160 270518112 276612032 280812640 282934656 
1019.677 283031136 281377920 278459904 274891072 271274720 268190144 
1022.570 266086928 265237296 265765632 267642256 270730880 274808064 
1025.462 279614560 284884864 290334848 295696480 300711136 305119328 
1028.355 308699648 311276192 312743040 313085408 312379680 310784768 
1031.249 308499904 305755488 302780704 299764576 296859904 294154112 
1034.142 291657664 289299904 286932864 284362912 281358816 277708960 
1037.035 273258624 267918400 261685488 254629168 246877024 238586768 
1039.928 229932016 221097104 212248912 203541136 195108240 187049472 
1042.821 179443744 172352496 165821616 159896416 154620880 150030576 
1045.714 146155120 143008960 140588960 138876896 137842160 137447936 
1048.607 137652192 138412608 139688224 141434832 143609440 146169536 
1051.500 149071072 152274768 155743520 159438800 163321312 167339616 
1054.393 171421104 175475120 179380496 182991184 186158560 188727584 
1057.286 190563120 191570768 191702224 190973424 189465024 187330384 
1060.179 184776320 182037136 179372480 177019440 175178736 174016704 
1063.072 173642560 174118160 175459440 177639376 180588768 184195280 
1065.965 188320368 192790560 197409392 201987472 206333744 210277376 
1068.858 213683088 216436672 218451536 219666288 220037728 219545120 
1071.751 218192192 216008528 213049792 209395552 205156992 200469792 
1074.645 195497440 190439104 185500032 180891904 176819008 173443696 
1077.538 170895168 169260032 168575728 168837184 169988960 171930864 
1080.431 174498160 177467088 180579120 183528592 186017280 187804064 
1083.324 188722096 188729984 187911952 186477200 184712224 182941392 
1086.217 181504816 180686656 180704448 181690656 183672560 186577504 
1089.110 190231152 194393888 198756816 202975760 206731136 209723392 
1092.003 211719904 212580288 212247504 210755184 208208032 204773728 
1094.896 200650176 196035024 191119984 186057808 180959392 175903296 
1097.789 170934512 166078992 161351680 156760352 152308784 147999280 
1100.682 143834656 139822992 135982208 132339256 128933536 125811744 
1103.575 123019224 120601832 118598936 117041664 115957024 115365256 
1106.468 115279912 115709080 116653736 118107888 120058232 122485808 
1109.361 125364392 128657264 132318008 136283760 140467136 144762992 
1112.254 149037056 153128128 156872128 160096992 162646688 164404736 
1115.147 165293872 165289312 164415808 162746336 160390976 157478816 
1118.041 154156176 150560256 146805712 142986752 139167232 135388512 
1120.934 131680920 128067672 124573224 121225752 118053696 115087424 
1123.827 112358040 109894712 107728720 105893096 104418904 103337592 
1126.720 102677472 102459360 102698368 103400360 104560432 106160320 
1129.613 108166128 110528512 113174664 116014664 118943728 121838888 
1132.506 124581120 127064464 129208328 130978064 132390168 133515120 
1135.399 134458624 135353344 136335136 137509376 138942816 140643824 
1138.292 142561904 144586656 146563088 148322160 149683536 150490688 
1141.185 150630752 150032576 148677312 146590464 143837008 140508672 
1144.078 136717040 132592336 128263640 123856824 119490520 115258656 
1146.971 111237800 107486072 104039136 100918792 98132384 95674800 93532240 
1150.346 91684488 90111304 88792064 87709672 86850464 86202272 85753520 
1153.722 85493312 85410856 85497304 85746896 86156936 86727336 87460080 
1157.097 88357360 89421752 90655736 92062568 93645688 95408576 97352784 
1160.472 99476648 101771968 104222160 106801952 109473424 112185808 
1163.365 114879784 117481000 119907368 122076440 123901072 125303936 
1166.258 126223144 126613904 126458448 125765848 124571504 122929064 
1169.151 120905760 118577168 116015272 113291760 110475480 107625592 
1172.044 104796720 102035408 99376256 96847312 94469432 92257696 90224632 
1175.420 88380064 86729600 85275472 84015880 82946040 82060456 81353744 
1178.795 80822080 80461904 80269096 80237768 80358560 80620568 81010584 
1182.170 81514208 82117296 82804808 83560792 84370568 85220112 86098512 
1185.545 87000432 87924960 88875568 89856048 90866696 91900000 92938800 
1188.921 93953728 94907416 95759760 96469176 97003456 97342504 97481536 
1192.296 97432688 97223824 96897920 96503648 96093488 95718040 95415432 
1195.671 95213392 95125352 95152088 95284360 95503808 95785944 96095680 
1199.046 96388048 96610872 96700944 96595976 96242920 95603520 94665688 
1202.422 93446192 91991024 90365280 88647656 86923640 85269624 83753696 
1205.797 82429648 81330528 80472272 79853000 79457464 79260800 79233520 
1209.172 79346792 79571504 79880112 80247928 80650056 81064328 81473720 
1212.547 81866976 82241448 82603096 82965408 83346168 83764352 84238488 
1215.923 84783328 85410616 86127920 86938456 87841112 88829304 89892320 
1219.298 91015232 92180832 93373512 94579456 95789544 97000312 98213344 
1222.673 99434320 100671312 101934464 103233736 104577888 105973104 
1225.566 107420672 108915288 110443048 111982376 113504840 114976840 
1228.459 116366896 117646752 118794824 119799560 120657120 121372512 
1231.352 121957696 122434104 122833248 123194312 123568096 124009504 
1234.245 124570448 125299472 126232488 127390176 128778216 130386736 
1237.138 132191344 134151472 136214288 138313456 140367472 142291792 
1240.031 143997856 145399600 146426768 147021712 147142176 146763904 
1242.925 145875936 144483488 142607872 140290016 137589328 134575904 
1245.818 131333904 127951192 124513464 121112664 117836768 114766656 
1248.711 111976152 109515336 107405448 105632624 104148952 102876672 
1251.604 101716592 100571848 99354472 98001448 96486768 94820024 93045232 
1254.979 91226808 89444304 87774352 86274848 84982304 83902760 83015304 
1258.354 82274240 81619080 80984344 80300752 79508912 78563432 77434840 
1261.729 76115624 74619576 72981296 71248088 69476072 67722808 66035108 
1265.105 64450048 62992392 61675212 60504704 59482160 58605076 57867420 
1268.480 57259188 56768280 56381176 56086364 55875664 55744280 55689508 
1271.855 55709056 55798832 55953336 56166600 56434300 56755104 57130936 
1275.230 57566112 58064772 58629876 59262820 59963516 60731688 61567264 
1278.606 62469412 63435212 64457348 65523432 66614316 67705888 68772296 
1281.981 69784368 70713792 71534504 72221376 72753544 73115488 73297464 
1285.356 73297656 73121688 72782736 72297840 71686896 70971176 70170712 
1288.731 69307592 68407200 67497328 66611260 65784016 65045120 64418032 
1292.107 63912212 63521264 63221716 62975308 62735596 62449020 62067832 
1295.482 61556952 60899428 60101584 59192336 58220500 57241004 56309504 
1298.857 55472860 54760048 54184488 53745192 53431140 53225504 53108064 
1302.232 53057780 53051264 53064404 53075564 53065340 53020228 52933680 
1305.608 52804496 52635512 52431452 52197928 51941712 51671692 51400084 
1308.983 51141728 50912140 50725644 50592012 50516596 50501336 50547344 
1312.358 50657276 50836668 51091856 51429400 51852660 52361772 52954532 
1315.733 53628320 54383140 55221708 56148992 57170508 58290368 59509372 
1319.109 60825056 62231884 63721432 65280916 66890040 68519768 70128464 
1322.484 71660592 73056408 74252992 75196960 75857456 76231952 76351704 
1325.859 76274400 76081552 75861592 75692240 75636784 75729784 75975328 
1329.234 76350048 76811168 77310024 77799240 78248408 78647216 79007512 
1332.610 79358240 79739792 80196920 80768080 81484432 82364952 83415344 
1335.985 84627200 85977896 87434024 88948760 90466632 91930784 93281384 
1339.360 94466104 95447088 96201608 96725248 97027360 97125936 97041120 
1342.735 96791912 96396784 95871424 95231664 94492336 93664888 92758344 
1346.111 91779720 90736048 89640904 88518200 87402336 86340816 85389400 
1349.486 84604088 84043224 83761656 83805824 84218248 85029936 86258280 
1352.861 87904632 89951832 92363752 95080320 98023544 101095144 104172832 
1356.236 107128720 109826656 112129992 113923304 115110792 115628216 
1359.129 115452128 114599416 113128400 111125576 108712496 106033920 
1362.022 103245208 100516928 98005144 95827048 94050616 92679920 91666448 
1365.398 90922160 90344840 89833920 89299104 88677808 87934416 87061608 
1368.773 86075816 85009912 83906096 82805000 81746448 80766400 79893816 
1372.148 79157304 78584632 78201992 78035248 78102352 78407064 78934032 
1375.523 79649432 80509160 81463288 82469104 83495848 84524904 85552736 
1378.899 86587576 87645688 88744744 89897616 91105256 92351952 93599528 
1382.274 94785776 95835064 96658264 97166792 97288200 96967008 96182296 
1385.649 94957096 93376760 91586656 89766576 88106344 86746632 85754976 
1389.024 85130856 84823728 84761736 84867640 85075272 85326120 85565568 
1392.400 85746096 85823400 85764056 85554840 85208984 84764200 84266888 
1395.775 83757680 83256576 82762264 82260992 81741288 81205960 80678824 
1399.150 80198872 79806160 79529400 79374432 79326864 79358920 79440784 
1402.525 79546032 79654960 79757784 79853312 79948344 80054064 80183848 
1405.901 80349424 80556872 80807384 81097712 81423200 81781368 82174584 
1409.276 82610872 83102360 83661216 84294480 85001848 85774592 86598656 
1412.651 87457648 88338112 89230904 90131000 91036720 91947336 92860464 
1416.026 93773592 94683656 95590512 96500752 97432104 98413880 99476400 
1419.402 100646784 101935168 103330192 104809544 106346816 107921328 
1422.295 109517384 111128224 112754688 114401280 116074352 117777968 
1425.188 119510896 121264032 123018912 124745360 126406584 127955288 
1428.081 129338440 130507944 131422864 132057760 132405000 132475528 
1430.974 132299480 131922512 131408560 130827832 130241272 129694584 
1433.867 129205064 128765256 128355576 127965552 127615896 127372952 
1436.760 127326920 127553896 128076880 128852352 129788000 130764112 
1439.653 131665304 132378848 132809208 132892472 132592824 131906672 
1442.546 130855736 129481096 127835896 125976848 123965776 121858720 
1445.439 119698632 117521696 115361360 113263424 111303040 109578488 
1448.332 108193888 107235080 106741864 106710560 107106880 107887808 
1451.225 109009736 110428904 112100232 113960688 115928024 117912440 
1454.118 119802440 121473440 122796056 123636488 123905480 123607992 
1457.011 122883688 121950152 120999216 120132544 119355336 118628368 
1459.905 117913008 117194440 116479304 115784344 115118096 114477008 
1462.798 113847936 113220800 112604624 112036448 111568608 111249056 
1465.691 111092584 111072728 111129720 111191656 111196016 111090872 
1468.584 110838168 110405192 109752128 108830736 107592728 106014800 
1471.477 104131568 102061472 100001256 98154528 96665928 95579072 94854688 
1474.852 94416232 94193544 94147568 94266272 94551984 95004024 95610048 
1478.227 96346936 97191032 98124336 99141016 100245720 101446432 102748328 
1481.603 104148872 105637992 107201704 108825248 110493128 112189576 
1484.496 113892544 115568848 117177304 118663856 119962136 120997680 
1487.389 121679128 121897768 121541240 120503344 118725048 116234016 
1490.282 113162024 109723624 106148768 102630088 99268840 96075384 93001480 
1493.657 89970008 86910848 83790632 80624280 77476336 74445112 71625272 
1497.032 69081640 66836284 64882688 63201100 61772764 60584124 59620952 
1500.407 58865216 58295636 57891120 57633868 57510200 57503164 57583964 
1503.783 57704744 57783992 57712764 57369248 56650936 55536604 54118540 
1507.158 52570248 51050864 49638428 48328924 47082552 45862724 44657840 
1510.533 43479508 42357476 41324292 40400492 39594540 38902616 38315688 
1513.908 37824288 37419352 37089272 36817652 36585632 36381116 36205584 
1517.284 36077100 36021480 36058160 36187144 36385368 36611080 36822304 
1520.659 36994192 37138428 37297876 37525076 37846340 38247692 38685600 
1524.034 39109340 39485224 39805112 40091544 40384640 40726404 41138880 
1527.409 41619352 42149608 42712204 43303024 43931896 44615976 45368636 
1530.785 46190732 47073580 48005220 48983112 50023208 51158392 52424012 
1534.160 53830360 55359708 56971936 58628132 60299080 61974420 63665800 
1537.535 65391608 67173296 69021976 70925296 72842128 74712632 76491288 
1540.910 78159344 79729920 81237320 82711000 84168256 85610408 87026744 
1544.286 88399152 89709376 90945080 92098456 93158912 94107160 94902552 
1547.661 95484152 95785656 95745840 95340184 94593872 93575976 92361296 
1551.036 90989000 89443736 87663736 85578928 83159056 80451376 77589264 
1554.411 74759432 72116328 69736896 67594176 65576300 63513824 61220916 
1557.787 58564388 55541616 52361808 49391104 46956608 45175532 43967932 
1561.162 43166716 42611280 42182468 41796360 41402612 40979580 40533172 
1564.537 40090964 39690516 39362880 39116228 38933132 38776016 38603244 
1567.912 38378736 38084352 37726516 37333584 36945520 36596264 36306148 
1571.288 36079008 35908020 35780100 35677312 35576824 35447592 35255080 
1574.663 34970808 34587756 34135644 33680420 33302796 33058058 32958992 
1578.038 32982122 33090092 33249922 33442516 33664232 33921068 34221568 
1581.413 34570964 34969012 35411680 35894312 36412896 36962372 37534468 
1584.789 38113936 38680856 39217032 39711356 40166920 40601272 41044692 
1588.164 41531692 42095500 42765616 43563492 44505728 45602748 46855284 
1591.539 48248532 49745720 51291600 52812056 54227584 55471432 56492300 
1594.914 57263800 57783648 58069128 58151132 58066668 57857348 57561040 
1598.290 57209212 56825116 56419172 55989144 55522000 55000592 54411004 
1601.665 53750140 53030224 52278312 51532396 50830072 50204864 49680628 
1605.040 49270540 48982220 48818944 48779868 48855540 49024428 49253988 
1608.415 49502196 49731452 49919196 50063028 50181476 50304412 50465048 
1611.791 50686804 50979652 51341940 51765488 52240604 52758552 53312556 
1615.166 53895700 54502128 55130508 55791560 56509280 57308448 58208604 
1618.541 59209956 60293564 61425448 62567100 63687980 64766944 65802208 
1621.916 66808952 67811968 68831968 69876392 70938832 72005008 73064800 
1625.292 74118096 75172656 76238144 77320200 78418888 79532224 80665728 
1628.667 81836288 83074840 84415352 85880416 87474544 89181056 90972656 
1632.042 92816968 94695768 96613728 98597536 100693496 102951792 105412648 
1635.417 108080536 110928464 113921584 117028128 120241520 123569232 
1638.310 127015728 130571264 134206800 137888496 141575280 145235696 
1641.203 148853104 152413024 155892528 159255744 162439680 165372368 
1644.096 167990864 170252688 172154256 173729008 175044000 176169152 
1646.990 177169344 178106912 179036032 180010192 181073040 182243200 
1649.883 183501184 184775008 185951072 186864192 187351072 187343936 
1652.776 186990912 186646384 186638448 187077520 187825600 188656608 
1655.669 189365904 189833200 190016272 189922112 189585296 189037568 
1658.562 188290768 187330640 186127168 184650240 182882320 180823104 
1661.455 178487200 175900112 173101536 170151312 167130016 164126432 
1664.348 161211888 158411936 155695008 152968176 150095952 146919936 
1667.241 143298608 139145872 134464128 129357280 124008272 118637520 
1670.134 113440992 108555992 104049200 99922592 96127136 92572592 89140824 
1673.509 85709648 82194720 78602184 75061576 71800168 69038560 66903024 
1676.885 65379396 64358004 63697108 63285648 63070088 63049784 63254028 
1680.260 63707700 64406732 65321356 66418560 67696048 69213544 71096128 
1683.635 73494304 76479400 79986344 83842032 87871608 91996352 96236504 
1687.010 100661784 105332864 110257384 115379128 120563080 125640872 
1689.903 130462392 134919376 138974576 142645648 145977712 149016096 
1692.796 151789136 154298480 156527520 158448528 160043344 161320016 
1695.689 162329200 163141536 163790672 164237840 164348368 163916848 
1698.583 162678336 160398928 157015936 152791072 148297136 144128320 
1701.476 140608416 137689216 135111952 132565392 129805368 126688648 
1704.369 123182824 119357952 115356912 111347696 107459888 103760504 
1707.262 100255736 96912872 93677672 90487160 87281640 84013600 80663216 
1710.637 77243008 73799568 70395520 67083152 63897632 60843468 57904520 
1714.012 55063780 52320804 49698276 47235608 44966896 42904140 41028304 
1717.387 39312712 37746500 36351284 35173008 34251364 33592344 33159614 
1720.763 32886754 32696836 32531138 32362436 32204966 32100424 32097284 
1724.138 32220632 32459580 32772720 33110976 33440478 33751716 34057904 
1727.513 34378584 34722760 35079388 35421780 35721920 35969496 36177164 
1730.888 36374956 36591544 36839256 37105728 37363992 37592740 37806468 
1734.264 38058960 38423764 38945128 39615592 40390240 41212104 42039284 
1737.639 42848328 43643684 44446624 45280988 46153104 47042152 47905760 
1741.014 48700760 49399164 49995476 50500924 50930248 51287052 51558476 
1744.389 51716588 51730288 51580524 51264940 50798712 50202192 49491096 
1747.765 48665512 47708564 46595044 45305520 43840140 42226396 40515272 
1751.140 38768916 37044492 35380048 33791648 32277804 30826098 29418474 
1754.515 28032964 26645554 25236224 23798412 22347658 20924504 19582356 
1757.890 18365650 17295410 16359936 15523095 14735882 13957348 13170302 
1761.266 12387987 11647509 10990593 10442347 9999753 9637586 9322504 9029030 
1765.123 8745626 8473523 8218541 7984800 7768962 7562470 7357524 7153855 
1768.980 6959102 6784764 6636300 6506453 6374223 6214068 6009557 5765922 
1772.838 5510678 5279162 5096512 4964611 4865719 4773148 4665827 4536400 
1776.695 4393355 4253168 4130152 4027170 3933039 3828566 3697851 3538947 
1780.553 3365642 3201853 3067122 2967427 2891537 2820195 2734028 2626309 
1784.410 2505386 2389895 2297417 2234766 2194335 2160868 2120545 2069105 
1788.268 2013011 1965445 1937021 1927869 1925706 1909997 1864539 1785514 
1792.125 1688309 1597344 1535093 1507362 1503904 1505067 1494195 1466135 
1795.982 1427405 1391071 1368236 1360658 1358929 1347961 1314825 1258230 
1799.840 1189349 1127788 1089487 1079356 1088092 1100050 1100880 1086597 
1803.697 1064508 1047901 1047502 1064807 1090816 1111212 1114633 1098688 
1807.555 1070985 1044878 1031062 1031161 1036841 1034416 1014223 976795 
1811.412 933394 899559 886344 894080 912110 925159 921606 900588 872234 
1815.752 852679 854107 879206 918485 956870 981378 989249 987987 991773 
1820.091 1011201 1047436 1091314 1128718 1148053 1146026 1128452 1106262 
1823.949 1088557 1076898 1064940 1043716 1009507 966866 927550 902746 896670 
1828.288 902182 903809 884618 837109 769125 701317 655521 642878 659105 
1832.628 687611 709249 710909 692324 665742 648718 653895 682733 724649 
1836.968 764478 790435 801921 808327 824096 859186 912940 974305 1027940 
1841.307 1062648 1075901 1076034 1076366 1089387 1118719 1158319 1198088 
1845.165 1232909 1266471 1309673 1372324 1456360 1552882 1645767 1717781 
1849.022 1759763 1774801 1776298 1780856 1797592 1824709 1850064 1859647 
1852.879 1843941 1804512 1752212 1701048 1658872 1623916 1585504 1531967 
1856.737 1457790 1368435 1276839 1198088 1139714 1098256 1061286 1015186 
1860.594 953749 882460 815630 767631 746222 746919 756346 759267 747517 
1864.934 724051 700720 690930 700089 722458 742571 743833 718111 671748 
1869.273 622404 589755 582621 595561 612218 615834 596988 558667 513450 
1873.613 476629 457026 453079 453477 445118 421304 385188 347881 321452 
1877.953 311405 311737 310212 293169 255604 203822 153039 117674 104683 
1882.292 108461 114957 109422 85129 47152 10337 -9641 -5964 16368 41949 
1887.114 54641 44169 13088 -26672 -59107 -73982 -71994 -62585 -55794 -56059 
1891.936 -58444 -52282 -28063 15573 69785 118636 147902 153338 142897 133650 
1896.758 141637 173855 224905 281432 329178 361244 382502 405153 441072 
1901.097 493911 556046 612682 650344 663983 660100 653862 659868 683828 
1905.437 720235 754819 774170 772444 756047 737327 729793 738356 755848 
1909.776 768129 761656 732581 688607 645698 618389 613147 625192 641385 
1914.116 648652 640721 620646 598946 584247 578375 573829 559065 525226 
1918.456 474108 418618 375968 358293 365987 387144 404158 403826 383198 
1922.795 352258 327454 322746 339856 368905 393313 400211 388239 368706 
1927.135 357696 368374 401239 443792 477093 485784 466977 432614 402599 
1931.474 392815 407905 437987 465484 475435 464655 442399 426511 430889 
1935.814 457192 493380 521046 525790 505654 473611 449264 448800 475136 
1940.154 515772 549842 561520 546989 519620 501076 509900 549842 609231 
1944.493 666770 704835 720367 724549 736265 769689 826353 891922 946045 
1948.833 972146 968659 950561 942027 961785 1014323 1085866 1153468 1195729 
1953.172 1204666 1187389 1162305 1146691 1145860 1153103 1153867 1137289 
1957.030 1104236 1068992 1049562 1058496 1092244 1131741 1151674 1136591 
1960.887 1088457 1028803 985596 979386 1012031 1067797 1120779 1150445 
1964.745 1153435 1142837 1140611 1162804 1209252 1262650 1301265 1309507 
1968.602 1290298 1263148 1253811 1277703 1332373 1396224 1441301 1450443 
1972.459 1424679 1384523 1358397 1368070 1415770 1487246 1560896 1623816 
1976.317 1681024 1752478 1858117 2004556 2173656 2330428 2437041 2472129 
1980.174 2438373 2362709 2280096 2216249 2180182 2162067 2143320 2109990 
1984.032 2061714 2009949 1971436 1955926 1959354 1967209 1963714 1942280 
1987.889 1910929 1888665 1894356 1934259 1997566 2059117 2092477 2086184 
1991.747 2047932 2003890 1983319 2005255 2067740 2151511 2229670 2282495 
1995.604 2307277 2315305 2324032 2345086 2376835 2405821 2415883 2399523 
1999.461 2363309 2327797 2316137 2339756 2393959 2457500 2505820 2522349 
2003.319 2508186 2479926 2460832 2468563 2503187 2550045 2588975 2605342 
2007.176 2600375 2587809 2586075 2604642 2639176 2671980 2684082 2668046 
2011.034 2631709 2595942 2583442 2604775 2652245 2705620 2740130 2742130 
2014.891 2716256 2681782 2662379 2672614 2710421 2758703 2798552 2817494 
2018.749 2818795 2817761 2832302 2869623 2923259 2974233 3003725 3003558 
2022.606 2981539 2955450 2944909 2957519 2985175 3007462 3004993 2969395 
2026.463 2910249 2850345 2811358 2805255 2826632 2857482 2878395 2880663 
2030.321 2870690 2866554 2886433 2935835 3004760 3073495 3121016 3137669 
2034.178 3129226 3111538 3101193 3104797 3116210 3121783 3113006 3091415 
2038.036 3071660 3073161 3109903 3179523 3264176 3336091 3370985 3361869 
2041.893 3318228 3261773 3213969 3185831 3172747 3161165 3137702 3098623 
2045.750 3055743 3028983 3034121 3076432 3143410 3212033 3257232 3263809 
2049.608 3230193 3166639 3088311 3005026 2921724 2837638 2753034 2672981 
2053.465 2607475 2567110 2556511 2570843 2594742 2610508 2606508 2582042 
2057.323 2548912 2524383 2522183 2545612 2586809 2630009 2659912 2670847 
2061.180 2666179 2656145 2650644 2652778 2657712 2657078 2644777 2622109 
2065.038 2598975 2588642 2599342 2630776 2671314 2705420 2720457 2712822 
2068.895 2689384 2662546 2644144 2637643 2637610 2634476 2619542 2591842 
2072.752 2559111 2532081 2520650 2526782 2543913 2560811 2568910 2565810 
2076.610 2557244 2552745 2559244 2577043 2599642 2616542 2619942 2609542 
2080.467 2592075 2577276 2573276 2580276 2591842 2598975 2594875 2580142 
2084.325 2562011 2550779 2553145 2568510 2588475 2600608 2596509 2574310 
2088.182 2540047 2504087 2475161 2455667 2441306 2424646 2400057 2368872 
2092.040 2339389 2321601 2323632 2345752 2380699 2417449 2446837 2465697 
2095.897 2477960 2491457 2510119 2533214 2553378 2561477 2552478 2528548 
2099.754 2499155 2476961 2471196 2482659 2504620 2527215 2542046 2547179 
2103.612 2547479 2550545 2561711 2580309 2599275 2609642 2606975 2593309 
2107.469 2577943 2572443 2584576 2614009 2652978 2689350 2713222 2722591 
2111.327 2722124 2720357 2724258 2734628 2745598 2748933 2738196 2713122 
2115.184 2681082 2653011 2637176 2636976 2648444 2663746 2675748 2682082 
2119.042 2684616 2688983 2699286 2715256 2732294 2744598 2748766 2746598 
2122.899 2745165 2751833 2770807 2799852 2830334 2851279 2855748 2842540 
2126.756 2818028 2791415 2769407 2752867 2737295 2714389 2678448 2629842 
2130.614 2575343 2524549 2485158 2459333 2442972 2430377 2416882 2402989 
2134.471 2394459 2397058 2411418 2432043 2447137 2444805 2420547 2379367 
2138.329 2333560 2298883 2285792 2294452 2316970 2340888 2357145 2364175 
2142.186 2367773 2375269 2391227 2412917 2431310 2437607 2428877 2410885 
2146.043 2397491 2403288 2434408 2486391 2544846 2592709 2617375 2618075 
2149.901 2602908 2584676 2572710 2567110 2560411 2543113 2509319 2461599 
2153.758 2410152 2366707 2337957 2324499 2320235 2322000 2335292 2375669 
2157.616 2462532 2607975 2805255 3026747 3233931 3390386 3479189 3506779 
2161.473 3497426 3478254 3469169 3475482 3487773 3493919 3485535 3463625 
2165.331 3437307 3416734 3405313 3397532 3382271 3348980 3295592 3230293 
2169.188 3166973 3119614 3093818 3084040 3077533 3063184 3036824 3005327 
2173.045 2983074 2983240 3010632 3059380 3113807 3157861 3183060 3191038 
2176.903 3191739 3196212 3210131 3229892 3247518 3254161 3248219 3237403 
2180.760 3233998 3247918 3280868 3322969 3357762 3371753 3359398 3326208 
2184.618 3287278 3257733 3245214 3248887 3260571 3271154 3277296 3283172 
2188.475 3295759 3321868 3361268 3404979 3441715 3462055 3465629 3461153 
2192.333 3462990 3480692 3516633 3562097 3602722 3625408 3626711 3613046 
2196.190 3599080 3598646 3617690 3652205 3690933 3721010 3735246 3735413 
2200.047 3729665 3727359 3733007 3743835 3751923 3750887 3739090 3722680 
2203.905 3712488 3718202 3743067 3782873 3826727 3865037 3892952 3913011 
2207.762 3932136 3957314 3990652 4026568 4056199 4071718 4070046 4056333 
2211.620 4039812 4028508 4025163 4025130 4019913 4000885 3965439 3916756 
2215.477 3863465 3814125 3771876 3734979 3698419 3658453 3615952 3577431 
2219.334 3551273 3543122 3552443 3570215 3583979 3583311 3564202 3530529 
2223.192 3491013 3454841 3425985 3402909 3379199 3348512 3309647 3266546 
2227.049 3226721 3197013 3179656 3171045 3164837 3154724 3138237 3118513 
2230.907 3101693 3092683 3093250 3100792 3110336 3118479 3125588 3135400 
2234.764 3153289 3182093 3219143 3258468 3291819 3314422 3326842 3335390 
2238.622 3347277 3368246 3399169 3434935 3468802 3495789 3516065 3534437 
2242.479 3557587 3589792 3630587 3674927 3715295 3746643 3768701 3786014 
2246.336 3804732 3829134 3857983 3885229 3903550 3907528 3897131 3878442 
2250.194 3859788 3848622 3847686 3854707 3864769 3874096 3881986 3891113 
2254.051 3905990 3928759 3956645 3983429 4001252 4004630 3993394 3972495 
2257.909 3948487 3927221 3910136 3894456 3875634 3850461 3819373 3786783 
2261.766 3758541 3737887 3724652 3714760 3702696 3685019 3662697 3640443 
2265.624 3624405 3618324 3621031 3627479 3630720 3625942 3612912 3595472 
2269.481 3579937 3570649 3567910 3567943 3564803 3554714 3537711 3518303 
2273.338 3502904 3497025 3501635 3514061 3528257 3538846 3543423 3543223 
2277.196 3541686 3542387 3546530 3552677 3558021 3560660 3560360 3560293 
2281.053 3564770 3576395 3596340 3622768 3651871 3680975 3709079 3736249 
2284.911 3764189 3793502 3823050 3850561 3873628 3891280 3904787 3916856 
2288.768 3930498 3947082 3965707 3983596 3997841 4007038 4012556 4017973 
2292.625 4026902 4041918 4062922 4088074 4114030 4138481 4161162 4183108 
2296.483 4205791 4229546 4253101 4273445 4288570 4297371 4300952 4302290 
2300.340 4304499 4308615 4314069 4318186 4318487 4313869 4305670 4296835 
2304.198 4290845 4289909 4293523 4299579 4305436 4309384 4311694 4314304 
2308.055 4318788 4325782 4333647 4339370 4340005 4334952 4325113 4314270 
2311.913 4306406 4303762 4305837 4310355 4313936 4314136 4310823 4305770 
2315.770 4301487 4300115 4301989 4306072 4310924 4315843 4321934 4331003 
2319.627 4345293 4365307 4389740 4415480 4438108 4454410 4461273 4456653 
2323.485 4439078 4407045 4359216 4296300 4221348 4139953 4060213 3990552 
2327.342 3936483 3900073 3878409 3866340 3858283 3851096 3845313 3844444 
2331.200 3852433 3871455 3900474 3936282 3974768 4012723 4050112 4088174 
2335.057 4128814 4172603 4217635 4260563 4298241 4329464 4355802 4381105 
2338.915 4408852 4441154 4476839 4512494 4544168 4569883 4589941 4606952 
2342.772 4623696 4640910 4657186 4669410 4675171 4675003 4672894 4676645 
2346.629 4693559 4728863 4783902 4855935 4939911 5029266 5118841 5204208 
2350.487 5282348 5351143 5409012 5454675 5487927 5510175 5524538 5534639 
2354.344 5544371 5556016 5569340 5582765 5594109 5601997 5606864 5611395 
2358.202 5617839 5628547 5643853 5662517 5682793 5703272 5723617 5743728 
2362.059 5763840 5782878 5799466 5812361 5821495 5829151 5838689 5853835 
2365.917 5876236 5904885 5935619 5962626 5981539 5989803 5988560 5980430 
2369.774 5969512 5958662 5949190 5941800 5936727 5935451 5940422 5954161 
2373.631 5978179 6012480 6055451 6104273 6157201 6213564 6274136 6340634 
2377.489 6414339 6495488 6583381 6676743 6774768 6877630 6986139 7100805 
2381.346 7221094 7343943 7465345 7580407 7685618 7779116 7861905 7935597 
2385.204 8002316 8062868 8116509 8161512 8196627 8221411 8237315 8246534 
2389.061 8251160 8252680 8250925 8245251 8234648 8218912 8198889 8175084 
2392.918 8148277 8117757 8082379 8041165 7994385 7944135 7894430 7849556 
2396.776 7812715 7785154 7765893 7752636 7743394 7737728 7736682 7742517 
2400.633 7757190 7781241 7813424 7851614 7893958 7939647 7989896 8046667 
2404.491 8111849 8186294 8269025 8357953 8450818 8546204 8643741 8743935 
2408.348 8847333 8954103 9063234 9174016 9285538 9398307 9512732 9629422 
2412.206 9747939 9866082 9980630 10088120 10186139 10273526 10351024 
2415.581 10419642 10480158 10531925 10573139 10601896 10617006 10619246 
2418.956 10610961 10595378 10575278 10552023 10525713 10495874 10462203 
2422.331 10425411 10387368 10350141 10315089 10282416 10251543 10221859 
2425.707 10193907 10170129 10154221 10150388 10161140 10186783 10225725 
2429.082 10274544 10330019 10390388 10455109 10524627 10599655 10680063 
2432.457 10764731 10853288 10945159 11041638 11144530 11255981 11377052 
2435.832 11507309 11645162 11788403 11936050 12088245 12246252 12411750 
2439.208 12585804 12767981 12956788 13150766 13349204 13552861 13763659 
2442.583 13983695 14214285 14454965 14704005 14959292 15219499 15484430 
2445.958 15755225 16033409 16319476 16612515 16910058 17209390 17507998 
2449.333 17804534 18098540 18390294 18678854 18962552 19238262 19503022 
2452.708 19754348 19990834 20212452 20418902 20609572 20782460 20934588 
2456.084 21062178 21162080 21232080 21270634 21276758 21248886 21185284 
2459.459 21083918 20943976 20765916 20552144 20306602 20033232 19734792 
2462.834 19412752 19067130 18698192 18307756 17899130 17478230 17051428 
2466.209 16624358 16201491 15785839 15379372 14984774 14605545 14245510 
2469.585 13908524 13597167 13311553 13050130 12810772 12591296 12390851 
2472.960 12209753 12048283 11905808 11780334 11668578 11566889 11472539 
2476.335 11384229 11302195 11227215 11159352 11097823 11041163 10987398 
2479.710 10935714 10886311 10840684 10800023 10765241 10735420 10708352 
2483.086 10682236 10655817 10629161 10603764 10581593 10564210 10552192 
2486.461 10544927 10541838 10542619 10547643 10557522 10572766 10592423 
2489.836 10614765 10637277 10658125 10676226 10692560 10709235 10728016 
2493.211 10750397 10776449 10805118 10835147 10865926 10897251 10929597 
2496.587 10962592 10995554 11026752 11054554 11078415 11099217 11119442 
2499.962 11141708 11167682 11197090 11227384 11254723 11276588 11291721 
2503.337 11301685 11309677 11319641 11334299 11354365 11378651 11405046 
2506.712 11431851 11458284 11484310 11510474 11536809 11562023 11584857 
2510.088 11603845 11618343 11629029 11637061 11643222 11647272 11647782 
2513.463 11642405 11629642 11608950 11581556 11550386 11518640 11488665 
2516.838 11461720 11438008 11417122 11398821 11383412 11370963 11361305 
2520.213 11353311 11344945 11334470 11321376 11306480 11292809 11283525 
2523.589 11281145 11286314 11297808 11312669 11327906 11341781 11354196 
2526.964 11366712 11380828 11398039 11418074 11440083 11462775 11485331 
2530.339 11508500 11533475 11561581 11593739 11629438 11668067 11708300 
2533.714 11749456 11791228 11833720 11876828 11920009 11962513 12003897 
2537.090 12044706 12086201 12130424 12179082 12232210 12288583 12344930 
2540.465 12398147 12446835 12490618 12532053 12573901 12618481 12666478 
2543.840 12716493 12766275 12813366 12856709 12896710 12934974 12973140 
2547.215 13011855 13050574 13087861 13122626 13154421 13184203 13213305 
2550.591 13242783 13272880 13302363 13329456 13353066 13373191 13391200 
2553.966 13409345 13429542 13452235 13476672 13500836 13522746 13541273 
2557.341 13556553 13569988 13583115 13596688 13610432 13623048 13632860 
2560.716 13638604 13639595 13635972 13628107 13616449 13601030 13582432 
2564.092 13561442 13539803 13519191 13501246 13486720 13474723 13464060 
2567.467 13453396 13442187 13431489 13423186 13419358 13421305 13428585 
2570.842 13439487 13451414 13462625 13472501 13482276 13493590 13508082 
2574.217 13526130 13546538 13567014 13585304 13600106 13611492 13620552 
2577.593 13629030 13638263 13648862 13661137 13674540 13689244 13705316 
2580.968 13723372 13743481 13765642 13789140 13813390 13838155 13863948 
2584.343 13891692 13922757 13957998 13997451 14040262 14085301 14131372 
2587.718 14177448 14223015 14267868 14311665 14353650 14393721 14431946 
2591.094 14468976 14506283 14545341 14586766 14630492 14674907 14718298 
2594.469 14758918 14795872 14829847 14862419 14895405 14930211 14967489 
2597.844 15007068 15048949 15093133 15140581 15192082 15248395 15309244 
2601.219 15373536 15439863 15506680 15573783 15641686 15711626 15784534 
2604.594 15860854 15939767 16020000 16100489 16181063 16262371 16345693 
2607.970 16431885 16520711 16610244 16697969 16780720 16856596 16924802 
2611.345 16985648 17040228 17088992 17131626 17167128 17195016 17214908 
2614.720 17227834 17235556 17239900 17242384 17243038 17241382 17236452 
2618.095 17228248 17217596 17206116 17195670 17187570 17182122 17178402 
2621.471 17175230 17172058 17169370 17168576 17171506 17179918 17194360 
2624.846 17214390 17238660 17265760 17294652 17324996 17356894 17390760 
2628.221 17426938 17465776 17507342 17552260 17601738 17656326 17717274 
2631.596 17784168 17856146 17931450 18008010 18084690 18160276 18235288 
2634.972 18310246 18385766 18462442 18540134 18619362 18699886 18782118 
2638.347 18866374 18952894 19040852 19129696 19218000 19304904 19389988 
2641.722 19473286 19555354 19636398 19716346 19794540 19869732 19941710 
2645.097 20010612 20077754 20145080 20214466 20287090 20363304 20442276 
2648.473 20523240 20604986 20687372 20770816 20856292 20944464 21035676 
2651.848 21129832 21226584 21325442 21426276 21529116 21634314 21741802 
2655.223 21851510 21962956 22075718 22189558 22304646 22421372 22539944 
2658.598 22660640 22783118 22906678 23030972 23155440 23279772 23403786 
2661.974 23526788 23648286 23767192 23882596 23993548 24100324 24203240 
2665.349 24303130 24400904 24496776 24590946 24683000 24772970 24861344 
2668.724 24948820 25036494 25125270 25215718 25307094 25398810 25489838 
2672.099 25579446 25667528 25754326 25840438 25926036 26010952 26094650 
2675.475 26176114 26254884 26330426 26402848 26472290 26539136 26603774 
2678.850 26666800 26729094 26791892 26856530 26924494 26997016 27074734 
2682.225 27157932 27246830 27341776 27443556 27553162 27671766 27800008 
2685.600 27937972 28084746 28239136 28399736 28565916 28737114 28913410 
2688.976 29094524 29279934 29468684 29659714 29851754 30044728 30238784 
2692.351 30435130 30634872 30839082 31048368 31262848 31482316 31706386 
2695.726 31935170 32168962 32407702 32651466 32899552 33151172 33405230 
2699.101 33660940 33918056 34176576 34436940 34699000 34962764 35227660 
2702.477 35492680 35756424 36017304 36273832 36524212 36766624 36999568 
2705.852 37221160 37430292 37625512 37805996 37970352 38117664 38246712 
2709.227 38356584 38446680 38517060 38568512 38602192 38619212 38620296 
2712.602 38605704 38574596 38526184 38459784 38375152 38272912 38153552 
2715.978 38018380 37868100 37703636 37525652 37335284 37133628 36922792 
2719.353 36704384 36480752 36252980 36022560 35790676 35558700 35328644 
2722.728 35102916 34883876 34673200 34472488 34281764 34101020 33930056 
2726.103 33768904 33618512 33479810 33354312 33243020 33146094 33063456 
2729.479 32994524 32939010 32896298 32866168 32848190 32841652 32845724 
2732.854 32859556 32882500 32914776 32956130 33007108 33067246 33135724 
2736.229 33210970 33291024 33374350 33459552 33546168 33634376 33724212 
2739.604 33815284 33906844 33997020 34083960 34165932 34242004 34311920 
2742.979 34376180 34435540 34491320 34544416 34595796 34646496 34696704 
2746.355 34747132 34797600 34847824 34897516 34946352 34994260 35041708 
2749.730 35089408 35138340 35189284 35242788 35299284 35359164 35423040 
2753.105 35492288 35568480 35653432 35749120 35856740 35977492 36111556 
2756.480 36259140 36419596 36592372 36775960 36968540 37167664 37370848 
2759.856 37574820 37777184 37975236 38166752 38349168 38520208 38677236 
2763.231 38817612 38939508 39041508 39123224 39184756 39226608 39249420 
2766.606 39253736 39239988 39209452 39163508 39104624 39035816 38960316 
2769.981 38881020 38800364 38720372 38642284 38567284 38496676 38431256 
2773.357 38371856 38318472 38270380 38226596 38186072 38148196 38112960 
2776.732 38080660 38051832 38025792 38000840 37974188 37942440 37902016 
2780.107 37849920 37784416 37704576 37610300 37502100 37381180 37249136 
2783.482 37108616 36962984 36816460 36672980 36536576 36409328 36292244 
2786.858 36184804 36085848 35993868 35907340 35825468 35747716 35674220 
2790.233 35605164 35541296 35483512 35432672 35389680 35354848 35327424 
2793.608 35306288 35289580 35275060 35261044 35246132 35229240 35209408 
2796.983 35185544 35156088 35119224 35073676 35018396 34953824 34880748 
2800.359 34800332 34713716 34621380 34522676 34417248 34304500 34184392 
2803.734 34057512 33925080 33788456 33649092 33508048 33366658 33226136 
2807.109 33088092 32954488 32826964 32706768 32594782 32491534 32397240 
2810.484 32312856 32239582 32179344 32134424 32105490 32093074 32096502 
2813.860 32114122 32144520 32186552 32240010 32304716 32381068 32469254 
2817.235 32568886 32679688 32801342 32934114 33078830 33236404 33407662 
2820.610 33592916 33792040 34004188 34228668 34464848 34712280 34970628 
2823.985 35239624 35518104 35804888 36098452 36397224 36699768 37005268 
2827.361 37312316 37619980 37925952 38227972 38523108 38808840 39083304 
2830.736 39345648 39596244 39836124 40066796 40290688 40509784 40727204 
2834.111 40946776 41172468 41408956 41660672 41931468 42224132 42540556 
2837.486 42882340 43250752 43648044 44077168 44542436 45049036 45602596 
2840.862 46209156 46874104 47602148 48397148 49261452 50195904 51199772 
2844.237 52270500 53403560 54592668 55829916 57104860 58405200 59717052 
2847.612 61024068 62308484 63552484 64736792 65842964 66853552 67751312 
2850.987 68520824 69147960 69619728 69926408 70061296 70022328 69812576 
2854.363 69440584 68920072 68267360 67501664 66642976 65710036 64721368 
2857.738 63694000 62642612 61581124 60521460 59474068 58448908 57455204 
2861.113 56501472 55596896 54749184 53965664 53251832 52611204 52046252 
2864.488 51558140 51147284 50814020 50557724 50377408 50269848 50230012 
2867.864 50250992 50323424 50436280 50578052 50735660 50896304 51047804 
2871.239 51177888 51276460 51335976 51352380 51325644 51260504 51165884 
2874.614 51053024 50935388 50826496 50738008 50679876 50659140 50679804 
2877.989 50743292 50848776 50994148 51176468 51392776 51640716 51918524 
2881.365 52224832 52558656 52918264 53301240 53703268 54118652 54540072 
2884.740 54959604 55368704 55760592 56130176 56475240 56797056 57099988 
2888.115 57391708 57680336 57975700 58287036 58622484 58990144 59398612 
2891.490 59856904 60377052 60973580 61662916 62465164 63401008 64490712 
2894.865 65752900 67199400 68832120 70635728 72575440 74591720 76597328 
2898.241 78491648 80161488 81496824 82414544 82862944 82835432 82367600 
2901.616 81534880 80437336 79178016 77861072 76573648 75379168 74324312 
2904.991 73435632 72725376 72196696 71846456 71667672 71651608 71788992 
2908.366 72071344 72490240 73039080 73711288 74499704 75396632 76391960 
2911.742 77473920 78629504 79845632 81108696 82407416 83730200 85065968 
2915.117 86403912 87732256 89038592 90311024 91536824 92704728 93804512 
2918.492 94826624 95763848 96610048 97360792 98012952 98564264 99013272 
2921.867 99359136 99601112 99739792 99776480 99714400 99558360 99314232 
2925.243 98988920 98589672 98123128 97596016 97014688 96384824 95711928 
2928.618 95000728 94254088 93473936 92660432 91812304 90927520 90003384 
2931.993 89037376 88026720 86969384 85864096 84710800 83511720 82271160 
2935.368 80996568 79697472 78385832 77075088 75778352 74509144 73280320 
2938.744 72102912 70987488 69942912 68976416 68094040 67299624 66594652 
2942.119 65977632 65443872 64984924 64588084 64238364 63918360 63610136 
2945.494 63297956 62969336 62616968 62239800 61842596 61435372 61030436 
2948.869 60641308 60280084 59954576 59668580 59420876 59206272 59015876 
2952.245 58839568 58667084 58488332 58295332 58081928 57843304 57576740 
2955.620 57280736 56954408 56597864 56211776 55797024 55354928 54887220 
2958.995 54395720 53882456 53349044 52797240 52228160 51642620 51041620 
2962.370 50426268 49798412 49160844 48517100 47871608 47229220 46594640 
2965.746 45972364 45366204 44779556 44215668 43677280 43166972 42686944 
2969.121 42238776 41823284 41440412 41089996 40772040 40486904 40235212 
2972.496 40017676 39834052 39682312 39557408 39451404 39353412 39249996 
2975.871 39126560 38969376 38765544 38506052 38186148 37806212 37372188 
2979.247 36894804 36389080 35871280 35358120 34864664 34402400 33979464 
2982.622 33599936 33264480 32970752 32713804 32487038 32282874 32093790 
2985.997 31914342 31741638 31576556 31423110 31287524 31175192 31088622 
2989.372 31024986 30976518 30930902 30873054 30789958 30672278 30517092 
2992.748 30327850 30114542 29891222 29672664 29472940 29302478 29167056 
2996.123 29067954 29002416 28965368 28950846 28953820 28970574 28999442 
2999.498 29039682 29090804 29151714 29220070 29292588 29365258 29434962 
3002.873 29499464 29557698 29609662 29655636 29695796 29729680 29756540 
3006.249 29775418 29786064 29788584 29783864 29772862 29756256 29734008 
3009.624 29705624 29670180 29627398 29577098 29520388 29458612 29393586 
3012.999 29326618 29258810 29190622 29122446 29054598 28987858 28923114 
3016.374 28861636 28804630 28752976 28706954 28666708 28631740 28601586 
3019.750 28575824 28554202 28536686 28523452 28514362 28509018 28506610 
3023.125 28506188 28506152 28505550 28504170 28502436 28501976 28504878 
3026.500 28513016 28527664 28549390 28576958 28609160 28644164 28680726 
3029.875 28718530 28757434 28798044 28840568 28884832 28929948 28974646 
3033.250 29017720 29058140 29095624 29130630 29164504 29198702 29235204 
3036.626 29276036 29322540 29375930 29436524 29503968 29577526 29655884 
3040.001 29738160 29823360 29910922 30000524 30091956 30184118 30276156 
3043.376 30366580 30454038 30537886 30618196 30695748 30771962 30848188 
3046.751 30925460 31004276 31084708 31166792 31250208 31334818 31420760 
3050.127 31507396 31594228 31680082 31764024 31845200 31923436 31998794 
3053.502 32072098 32144092 32215030 32285194 32354154 32421734 32487896 
3056.877 32553028 32617782 32682974 32749354 32817386 32887578 32960136 
3060.252 33035460 33113730 33194624 33277788 33361972 33446062 33529128 
3063.628 33611104 33692520 33774888 33859772 33948188 34040348 34135392 
3067.003 34231748 34328060 34423812 34519300 34616032 34715656 34819572 
3070.378 34928256 35041240 35157272 35275060 35393632 35512848 35633288 
3073.753 35755916 35881968 36012300 36147456 36287416 36431920 36580408 
3077.129 36732148 36886144 37041388 37196720 37351640 37506036 37660236 
3080.504 37815212 37971980 38131484 38293720 38458520 38624968 38792176 
3083.879 38958976 39124892 39289752 39453948 39618276 39783904 39951736 
3087.254 40122688 40297340 40475448 40656356 40838684 41020656 41200808 
3090.630 41378120 41552148 41723512 41893192 42062644 42232784 42404600 
3094.005 42578788 42755928 42937060 43123312 43315980 43516756 43726456 
3097.380 43945200 44172420 44406584 44646052 44889072 45134836 45382944 
3100.755 45634616 45891408 46155464 46428644 46712176 47006044 47308868 
3104.131 47618268 47930696 48242940 48551820 48854760 49150084 49436288 
3107.506 49712356 49976852 50228600 50466052 50688144 50894556 51085296 
3110.881 51261436 51423656 51572988 51709128 51831376 51938276 52028136 
3114.256 52099520 52151600 52184216 52198080 52194008 52173456 52137288 
3117.632 52086704 52022344 51944624 51854300 51751640 51637696 51513444 
3121.007 51381100 51243280 51103116 50964264 50829888 50702148 50582408 
3124.382 50470628 50366396 50269184 50179352 50098168 50027596 49969788 
3127.757 49926816 49899684 49888420 49891804 49908084 49935032 49970752 
3131.133 50013356 50061804 50115240 50173400 50237040 50307056 50385224 
3134.508 50472864 50571204 50680584 50799752 50927044 51059884 51195932 
3137.883 51332692 51468940 51603624 51736636 51868076 51998404 52128324 
3141.258 52258540 52390068 52524032 52661584 52803264 52949328 53099488 
3144.634 53252656 53407756 53563732 53719428 53874280 54027536 54179308 
3148.009 54329592 54478952 54628664 54780308 54935200 55094548 55258584 
3151.384 55425956 55594560 55761684 55924580 56081500 56232748 56379592 
3154.759 56524944 56671132 56820392 56973108 57128444 57284588 57439508 
3158.135 57591684 57741108 57888848 58036632 58186972 58341756 58502020 
3161.510 58667876 58838504 59012652 59188504 59364500 59539048 59710588 
3164.885 59877972 60040516 60197296 60348460 60494268 60635552 60773072 
3168.260 60908388 61042868 61177732 61313972 61452164 61592272 61733380 
3171.635 61874304 62013860 62150788 62284580 62415316 62543416 62669216 
3175.011 62792868 62913724 63030744 63142696 63249008 63349976 63446716 
3178.386 63540944 63634536 63728608 63823432 63918740 64013800 64107956 
3181.761 64201212 64294180 64387368 64481176 64575440 64669488 64762132 
3185.136 64852720 64940944 65027372 65112360 65196244 65278760 65358900 
3188.512 65435560 65507792 65576032 65641120 65705024 65769820 65836488 
3191.887 65905624 65976360 66047372 66117352 66185184 66250100 66311704 
3195.262 66369600 66422844 66470912 66513972 66552244 66587472 66621424 
3198.637 66655680 66690840 66726460 66761316 66793656 66822364 66847368 
3202.013 66869712 66891276 66913536 66937120 66961780 66986604 67010260 
3205.388 67032492 67053140 67073212 67093356 67113856 67134272 67154112 
3208.763 67172360 67189184 67205240 67221752 67239664 67258928 67278464 
3212.138 67296456 67310456 67319016 67321752 67320056 67316264 67312824 
3215.514 67311736 67313984 67319512 67327680 67337776 67349192 67361656 
3218.889 67374648 67388232 67401736 67414968 67427736 67440632 67454640 
3222.264 67471048 67491296 67516064 67545480 67578656 67614352 67650984 
3225.639 67686832 67720832 67752008 67779776 67804216 67826064 67846936 
3229.015 67868672 67893856 67924464 67961816 68006096 68056288 68110584 
3232.390 68166440 68221760 68274488 68323664 68369112 68411544 68452392 
3235.765 68493504 68536888 68584528 68637496 68696176 68759608 68826536 
3239.140 68895104 68964112 69033088 69102272 69172472 69244016 69316808 
3242.516 69389960 69461968 69531760 69598920 69663960 69728144 69793120 
3245.891 69859856 69928784 69999312 70070336 70141088 70211104 70280944 
3249.266 70351728 70423696 70497192 70571568 70645784 70719168 70791784 
3252.641 70863824 70936840 71011568 71088288 71166152 71243832 71319144 
3256.017 71390568 71457088 71518760 71576000 71629688 71680368 71727928 
3259.392 71772496 71813808 71852160 71888208 71922736 71956680 71990504 
3262.767 72024416 72058160 72091024 72121928 72149664 72173176 72191488 
3266.142 72203648 72209800 72210496 72206632 72199704 72190624 72179592 
3269.518 72165552 72146536 72120240 72084800 72039504 71985224 71924104 
3272.893 71858648 71791216 71722896 71653608 71582560 71508568 71431072 
3276.268 71350584 71268472 71186408 71106120 71028144 70952296 70877744 
3279.643 70802856 70726776 70648872 70569224 70488120 70406200 70324144 
3283.019 70242768 70162808 70085120 70010688 69939880 69872896 69808960 
3286.394 69747176 69686440 69626304 69566720 69508584 69452672 69399600 
3289.769 69349576 69301528 69254232 69206672 69158368 69110240 69064080 
3293.144 69021824 68985080 68954552 68929464 68907680 68887096 68865712 
3296.520 68842800 68818648 68795008 68774200 68758240 68749160 68748000 
3299.895 68755800 68772960 68800288 68837864 68885976 68944184 69011328 
3303.270 69085064 69162256 69239624 69313504 69380944 69439728 69488984 
3306.645 69528768 69560968 69588232 69613896 69641824 69675320 69716864 
3310.021 69767752 69827832 69896240 69971296 70051680 70136056 70223728 
3313.396 70314408 70407752 70503432 70601536 70701232 70802272 70903960 
3316.771 71005984 71107520 71207760 71305136 71398424 71486456 71568736 
3320.146 71645984 71719336 71790712 71861816 71933568 72005912 72078032 
3323.521 72148296 72214808 72275776 72329936 72376552 72414840 72445176 
3326.897 72467960 72484208 72495096 72502528 72508168 72512912 72516864 
3330.272 72519176 72518312 72512008 72498848 72477352 72446864 72407280 
3333.647 72358896 72302464 72238592 72168440 72092776 72012448 71927624 
3337.022 71837696 71741064 71635592 71518960 71389480 71246176 71089728 
3340.398 70921208 70742368 70554416 70358120 70153856 69941704 69722384 
3343.773 69497112 69267448 69035144 68801648 68567960 68334360 68101240 
3347.148 67868672 67637656 67408824 67183040 66960508 66740832 66523164 
3350.523 66306756 66091196 65877400 65667020 65461904 65263704 65073020 
3353.899 64889656 64712792 64541572 64375952 64217000 64066292 63925536 
3357.274 63796072 63678236 63571244 63473516 63383712 63300484 63223556 
3360.649 63153080 63089588 63033620 62985040 62943600 62908628 62879756 
3364.024 62856392 62838048 62824728 62816492 62813124 62815152 62822656 
3367.400 62835948 62854668 62878184 62905148 62933564 62961528 62987036 
3370.775 63008988 63027144 63041352 63052008 63059212 63062652 63060968 
3374.150 63052200 63034000 63003504 62957576 62893576 62808604 62700644 
3377.525 62568100 62410152 62226224 62015964 61778800 61514084 61220456 
3380.901 60897448 60545040 60164416 59758076 59329592 58882784 58421348 
3384.276 57948780 57467044 56978280 56483996 55986012 55486832 54988900 
3387.651 54494956 54006864 53525464 53050100 52578628 52107996 51635044 
3391.026 51157048 50673548 50185900 49697460 49212980 48737308 48274008 
3394.402 47824740 47389496 46966208 46552552 46146844 45747956 45356424 
3397.777 44972996 44597436 44228436 43862280 43493828 43118484 42731504 
3401.152 42331468 41919356 41498664 41074192 40651044 40233288 39823052 
3404.527 39421076 39026896 38639456 38257500 37880180 37506396 37135180 
3407.903 36765396 36396612 36028604 35662496 35300216 34944128 34596836 
3411.278 34259680 33932956 33615648 33305622 33000604 32699124 32400668 
3414.653 32106028 31816464 31533904 31259254 30992426 30732840 30479026 
3418.028 30229372 29982524 29737414 29493648 29251082 29010034 28771206 
3421.404 28535094 28302648 28074744 27852116 27635252 27424460 27219558 
3424.779 27020148 26826008 26637170 26453450 26275158 26101618 25932228 
3428.154 25764908 25597830 25428424 25254908 25076440 24893342 24707376 
3431.529 24521316 24337648 24159380 23987874 23823402 23664450 23508914 
3434.905 23353750 23196332 23034744 22868922 22700090 22530800 22363598 
3438.280 22200786 22042984 21889318 21737516 21585002 21430070 21272618 
3441.655 21114492 20959138 20810372 20670726 20540610 20417896 20298512 
3445.030 20177568 20050966 19916732 19775536 19630054 19484238 19342074 
3448.406 19205880 19076650 18953242 18834088 18717320 18601518 18486022 
3451.781 18370696 18255538 18140722 18026040 17911594 17797146 17683486 
3455.156 17571720 17462742 17357274 17255554 17156478 17058562 16959944 
3458.531 16858696 16753478 16643878 16530486 16414577 16298113 16183641 
3461.906 16073773 15970601 15875839 15789961 15712313 15640656 15572031 
3465.282 15502869 15430147 15351807 15267579 15178219 15085689 14992114 
3468.657 14899451 14809037 14721486 14637209 14556133 14478260 14403448 
3472.032 14331115 14260610 14190217 14118536 14044506 13968195 13890084 
3475.407 13812262 13736778 13665411 13598876 13537548 13479850 13424758 
3478.783 13370458 13315994 13260547 13204014 13146429 13088578 13031043 
3482.158 12975325 12922890 12875036 12832955 12796611 12765354 12737784 
3485.533 12712194 12687186 12662453 12638300 12616025 12597230 12582666 
3488.908 12573082 12567796 12565954 12566602 12568989 12572707 12577959 
3492.284 12584985 12594604 12606986 12623155 12643588 12669309 12700662 
3495.659 12737647 12779412 12825174 12873466 12923983 12977134 13034355 
3499.034 13098003 13169960 13251733 13343123 13443178 13549683 13660726 
3502.409 13774843 13892103 14013911 14142805 14281188 14431467 14594784 
3505.785 14771053 14959121 15156740 15360972 15568838 15778005 15987411 
3509.160 16197570 16410448 16629213 16856664 17094506 17342720 17599942 
3512.535 17863430 18129874 18397070 18663394 18928322 19191680 19453328 
3515.910 19712568 19967902 20218284 20462488 20699500 20928712 21149000 
3519.286 21358262 21553488 21730934 21886774 22017190 22119576 22192208 
3522.661 22234160 22245320 22226070 22176900 22098414 21991152 21855552 
3526.036 21691572 21499556 21280066 21034112 20764246 20473986 20167710 
3529.411 19849406 19523122 19191368 18855854 18518040 18178552 17837984 
3532.787 17496580 17153720 16807996 16457867 16102141 15741618 15378994 
3536.162 15018833 14666785 14327691 14004192 13696322 13401929 13117776 
3539.537 12840839 12569739 12304706 12046579 11796641 11554639 11319233 
3542.912 11087592 10856753 10624305 10389369 10152118 9914250 9678004 
3546.288 9446186 9221566 9006567 8803306 8613017 8435447 8268823 8109790 
3550.145 7954393 7798884 7641238 7481289 7321433 7165173 7016007 6875711 
3554.002 6744412 6620757 6502182 6386934 6273599 6162175 6052427 5944319 
3557.860 5836942 5729761 5621766 5513530 5406362 5303210 5206791 5119310 
3561.717 5041534 4972487 4909783 4850072 4789429 4724174 4650387 4564492 
3565.575 4463917 4347904 4218437 4081652 3946012 3820376 3711986 3624372 
3569.432 3556251 3503305 3459082 3417736 3374023 3324639 3268650 3206159 
3573.290 3138537 3067422 2995018 2923492 2854914 2791449 2733728 2681549 
3577.147 2633076 2585576 2536514 2483925 2427744 2369772 2313106 2261011 
3581.004 2216215 2179816 2151611 2129901 2112154 2095740 2077428 2053558 
3584.862 2020468 1973900 1910896 1830665 1736376 1634525 1534660 1447251 
3588.719 1379072 1333071 1306948 1295217 1290431 1285347 1274347 1253910 
3592.577 1223107 1182671 1135728 1086298 1038435 996123 961852 936515 919315 
3596.916 908059 899459 889897 876284 856099 828345 793389 753093 710411 
3601.256 668861 631928 601965 580166 566165 558402 553923 549179 540255 
3605.595 523734 496631 457822 408104 350567 290715 235083 189800 158442 
3609.935 141074 133782 130004 122845 106108 76944 37376 -7090 -48803 -80872 
3614.757 -99191 -104558 -101709 -98131 -101212 -118073 -151992 -202368 
3618.614 -264594 -331578 -395142 -448469 -487459 -511784 -522937 -524096 
3622.472 -518304 -508210 -494806 -478423 -458597 -435328 -410833 -389713 
3626.329 -379285 -389349 -429138 -503345 -607584 -726121 -836028 -915554 
3630.187 -953775 -953610 -927524 -891681 -860565 -844824 -848892 -871114 
3634.044 -905338 -943658 -979298 -1008025 -1029644 -1045973 -1060021 
3637.419 -1073705 -1088116 -1103352 -1118852 -1134352 -1149586 -1164292 
3640.794 -1177510 -1187489 -1192214 -1190066 -1179889 -1162540 -1140532 
3644.170 -1116572 -1094461 -1077374 -1068152 -1069012 -1081869 -1108640 
3647.545 -1150347 -1207315 -1277722 -1356738 -1436896 -1508653 -1562702 
3650.920 -1592480 -1595616 -1575148 -1537379 -1491317 -1446804 -1412887 
3654.295 -1396538 -1401955 -1428508 -1470316 -1517469 -1559466 -1588354 
3657.671 -1601295 -1600932 -1592546 -1582048 -1573960 -1570394 -1571682 
3661.046 -1576337 -1582741 -1589938 -1597597 -1605784 -1614301 -1621993 
3664.421 -1626746 -1626383 -1619055 -1605025 -1585977 -1566234 -1551311 
3667.796 -1547647 -1560193 -1591193 -1638036 -1692035 -1740121 -1769525 
3671.172 -1772297 -1747778 -1703224 -1651173 -1607435 -1586769 -1601130 
3674.547 -1655101 -1741309 -1840072 -1926870 -1983901 -2005966 -2000360 
3677.922 -1980042 -1958240 -1942802 -1936238 -1936238 -1937327 -1934919 
3681.297 -1926342 -1912520 -1896092 -1879794 -1864585 -1849343 -1831460 
3684.673 -1808825 -1781866 -1753553 -1729759 -1717383 -1722663 -1748273 
3688.048 -1791997 -1846769 -1903877 -1955172 -1995577 -2024073 -2041585 
3691.423 -2049533 -2048840 -2041156 -2027668 -2010881 -1993928 -1979679 
3694.798 -1970378 -1966123 -1965892 -1967080 -1966915 -1963616 -1957184 
3698.174 -1949268 -1942539 -1940164 -1944914 -1958042 -1979449 -2007220 
3701.549 -2037660 -2066351 -2088643 -2100777 -2100415 -2087291 -2063119 
3704.924 -2031493 -1996600 -1963055 -1934589 -1913411 -1900314 -1894640 
3708.299 -1894805 -1898929 -1906384 -1916644 -1930531 -1948410 -1970015 
3711.675 -1993862 -2016421 -2034824 -2045245 -2046334 -2038320 -2023149 
3715.050 -2004185 -1984957 -1969026 -1958372 -1953886 -1954644 -1958405 
3718.425 -1962528 -1965463 -1966717 -1967937 -1971302 -1978492 -1990267 
3721.800 -2004845 -2019390 -2030504 -2036077 -2036176 -2033637 -2032516 
3725.176 -2036374 -2046466 -2061108 -2075024 -2081421 -2074859 -2052863 
3728.551 -2017213 -1973215 -1928453 -1890582 -1865641 -1857063 -1863661 
3731.926 -1882005 -1906747 -1933302 -1960483 -1990201 -2025755 -2069055 
3735.301 -2118550 -2168435 -2210568 -2237401 -2245543 -2236115 -2213600 
3738.677 -2182842 -2147005 -2107240 -2062856 -2013255 -1960714 -1911003 
3742.052 -1874945 -1866334 -1897345 -1972489 -2081520 -2198040 -2287569 
3745.427 -2325372 -2306685 -2244092 -2159006 -2072353 -2003130 -1963055 
3748.802 -1957415 -1983604 -2033142 -2094150 -2155808 -2210732 -2254344 
3752.177 -2283086 -2294457 -2286547 -2259915 -2217886 -2166358 -2112879 
3755.553 -2063911 -2024831 -1998644 -1985979 -1985616 -1995973 -2014904 
3758.928 -2040497 -2069979 -2098832 -2121353 -2132003 -2127519 -2108724 
3762.303 -2080267 -2049763 -2025722 -2013750 -2016289 -2030207 -2048939 
3765.678 -2065032 -2072749 -2071430 -2064471 -2058107 -2058008 -2067505 
3769.054 -2085807 -2108197 -2127980 -2138762 -2137410 -2124189 -2102525 
3772.429 -2077761 -2054677 -2036836 -2026085 -2021599 -2021137 -2021269 
3775.804 -2018895 -2012661 -2003196 -1993103 -1986243 -1986408 -1994885 
3779.179 -2010419 -2028426 -2043498 -2051181 -2050126 -2042244 -2031724 
3782.555 -2023644 -2021368 -2025986 -2035748 -2046993 -2056326 -2061569 
3785.930 -2062822 -2061635 -2060448 -2060613 -2061998 -2063647 -2064043 
3789.305 -2062262 -2058371 -2053160 -2047620 -2041849 -2035451 -2027305 
3792.680 -2016751 -2004383 -1992510 -1984858 -1984891 -1994687 -2013123 
3796.056 -2035912 -2056260 -2067868 -2066714 -2053754 -2033967 -2015729 
3799.431 -2009363 -2022984 -2060745 -2119440 -2187689 -2248048 -2284108 
3802.806 -2287305 -2258629 -2207798 -2148225 -2095106 -2061075 -2053391 
3806.181 -2072617 -2110538 -2153599 -2186601 -2200842 -2194711 -2173776 
3809.557 -2145455 -2116407 -2089962 -2065329 -2039771 -2010419 -1976513 
3812.932 -1941351 -1911761 -1895993 -1901304 -1930169 -1977799 -2031163 
3816.307 -2074859 -2095699 -2088940 -2059360 -2017840 -1979119 -1956821 
3819.682 -1961703 -1997952 -2061009 -2136850 -2205721 -2251245 -2265320 
3823.058 -2249828 -2214128 -2170446 -2130420 -2101668 -2087324 -2085444 
3826.433 -2090522 -2095007 -2093358 -2083927 -2068989 -2053424 -2042706 
3829.808 -2040694 -2048444 -2063482 -2080729 -2094743 -2100777 -2096293 
3833.183 -2081685 -2059162 -2032812 -2007154 -1987332 -1977272 -1980273 
3836.559 -1997424 -2026942 -2064307 -2102525 -2134311 -2154984 -2162600 
3839.934 -2159402 -2149313 -2137147 -2126793 -2120660 -2119803 -2123298 
3843.309 -2129431 -2135960 -2140608 -2141334 -2136586 -2126035 -2109812 
3846.684 -2089203 -2065329 -2039375 -2011540 -1981098 -1947421 -1910574 
3850.060 -1872536 -1839082 -1819087 -1824069 -1864651 -1945870 -2061108 
3853.435 -2189667 -2304081 -2381594 -2413326 -2404100 -2365941 -2312552 
3856.810 -2253685 -2195831 -2142785 -2095897 -2055897 -2023446 -1998908 
3860.185 -1981757 -1970939 -1964705 -1960977 -1959493 -1961241 -1968861 
3863.561 -1984759 -2008902 -2036902 -2061668 -2074397 -2069253 -2046433 
3866.936 -2012200 -1978162 -1956294 -1957184 -1984693 -2033604 -2089962 
3870.311 -2136124 -2159632 -2156995 -2134641 -2103778 -2076837 -2061932 
3873.686 -2061470 -2071627 -2083828 -2089434 -2082081 -2060382 -2027569 
3877.062 -1990300 -1956096 -1931290 -1920932 -1926804 -1946497 -1973973 
3880.437 -2000558 -2017872 -2019159 -2003130 -1973050 -1936700 -1903811 
3883.812 -1884644 -1886656 -1911827 -1954842 -2003856 -2044520 -2064307 
3887.187 -2058173 -2028921 -1985814 -1940230 -1903514 -1884809 -1888867 
3890.563 -1914796 -1956294 -2003691 -2046729 -2077431 -2091874 -2089929 
3893.938 -2073672 -2046334 -2011705 -1973314 -1934787 -1899555 -1871151 
3897.313 -1852477 -1845351 -1849904 -1864387 -1884941 -1908001 -1929740 
3900.688 -1948938 -1965892 -1982615 -2002009 -2025359 -2052468 -2080333 
3904.063 -2104701 -2120891 -2125112 -2116176 -2095238 -2064966 -2029053 
3907.439 -1991355 -1954644 -1921196 -1892166 -1868445 -1850069 -1836508 
3910.814 -1827435 -1821694 -1818394 -1816447 -1815061 -1813511 -1811960 
3914.189 -1811135 -1811564 -1814137 -1819483 -1827930 -1838917 -1852213 
3917.564 -1866334 -1880058 -1891770 -1898995 -1899918 -1892694 -1876462 
3920.940 -1852015 -1822617 -1792690 -1767479 -1752167 -1749725 -1760087 
3924.315 -1779853 -1802424 -1820836 -1828721 -1823046 -1804437 -1777114 
3927.690 -1746623 -1719363 -1700155 -1692035 -1695435 -1709033 -1730122 
3931.065 -1755566 -1781998 -1806746 -1827072 -1840995 -1847132 -1845779 
3934.441 -1837795 -1825719 -1812587 -1801170 -1793251 -1789390 -1788466 
3937.816 -1788334 -1786684 -1782064 -1774013 -1763948 -1754147 -1747217 
3941.191 -1744940 -1747778 -1754477 -1762529 -1768667 -1769954 -1764938 
3944.566 -1753850 -1738438 -1721772 -1707020 -1696920 -1693356 -1696293 
3947.942 -1704313 -1715006 -1725864 -1733884 -1738108 -1738108 -1734313 
3951.317 -1727614 -1718835 -1709033 -1698636 -1688504 -1679427 -1672331 
3954.692 -1667776 -1665994 -1666390 -1667314 -1666687 -1662825 -1654540 
3958.067 -1641733 -1625756 -1608095 -1591226 -1576733 -1565772 -1558080 
3961.443 -1553424 -1551113 -1549727 -1548835 -1547548 -1545501 -1542397 
3964.818 -1537940 -1532129 -1524997 -1516841 -1508389 -1500035 -1492242 
3968.193 -1485803 -1481048 -1478373 -1477482 -1477812 -1477845 -1475798 
3971.568 -1469689 -1458461 -1442147 -1422266 -1401691 -1383426 -1370347 
3974.944 -1363807 -1363179 -1366350 -1370248 -1372229 -1370049 -1363807 
3978.319 -1354327 -1343261 -1332229 -1322418 -1313994 -1306892 -1300483 
3981.694 -1294801 -1289912 -1286476 -1285089 -1286179 -1289780 -1295429 
3985.069 -1302432 -1309931 -1316538 -1321427 -1323706 -1322715 -1318553 
3988.445 -1311715 -1303258 -1294636 -1287467 -1282941 -1281785 -1284527 
3991.820 -1290771 -1299756 -1310328 -1321229 -1330676 -1337217 -1339859 
3995.195 -1338108 -1332625 -1324995 -1317463 -1312442 -1311220 -1314160 
3998.570 -1320139 -1327406 -1333649 -1337646 -1338736 
##END=
