
##TITLE=mdmaHCL00399_2
##JCAMP-DX=5.01  $$ Nicolet v. 1
##DATATYPE=INFRARED SPECTRUM
##ORIGIN=UniL
##OWNER=Nicolet
##LONGDATE=2011/08/24
##TIME=10:29:36
##SPECTROMETER/DATA SYSTEM=Nicolet iS5
##DATA PROCESSING=
Ratio against background
%Transmittance->Absorbance
Truncated
ElementMultiply or ElementDivide
##COMMENTS=
Number of sample scans: 32
Collection length: 51.21 sec
Sample gain: 2.0
Background collected on: Mer Aout 24 10:27:56 2011 (GMT+02:00);
Number of background scans: 32
Background gain: 2.0
Sample spacing:  1.000
Number of scan points: 12415
Resolution points: 8192
Number of FFT points: 65536
Apodization: N-B fort;
Phase correction: Mertz;
Laser frequency: 15798.0 cm-1
Number of rejected sample scans: 0
Number of rejected background scans: 0
Bench serial number: ASB1000141;
##RESOLUTION=4.000
##XUNITS=1/CM
##YUNITS=ABSORBANCE
##FIRSTX=649.893372
##LASTX=4000.122314
##FIRSTY=0.124740
##MAXX=4000.122314
##MINX=649.893372
##MAXY=0.291256
##MINY=-0.000704
##XFACTOR=1.000000
##YFACTOR=1.000000E-009
##NPOINTS=6950
##DELTAX=0.482117
##ZPD=6100
##XYDATA=(X++(Y..Y))
649.893 124739800 123595840 122549728 121620240 120815032 120138048 
652.786 119594672 119188416 118918624 118774344 118733800 118771472 
655.679 118861512 118988080 119148784 119351024 119604800 119916752 
658.571 120283744 120693568 121129088 121576096 122027768 122486552 
661.464 122960504 123458928 123989056 124552696 125148144 125770672 
664.357 126413272 127065528 127706544 128305048 128818512 129202304 
667.250 129434632 129541368 129603744 129715440 129940944 130289360 
670.142 130724848 131189688 131628112 132003024 132297784 132517384 
673.035 132678360 132796872 132877808 132913576 132889600 132796240 
675.928 132635816 132422896 132175312 131904112 131606984 131270200 
678.820 130876336 130415768 129893752 129328760 128744392 128156184 
681.713 127568288 126972392 126357552 125719008 125064536 124411432 
684.606 123780064 123184504 122625960 122097112 121588456 121096856 
687.498 120629440 120201496 119828112 119517528 119267160 119066448 
690.391 118903768 118775176 118686984 118654280 118692864 118813552 
693.284 119017456 119300344 119656816 120090472 120613072 121245768 
696.177 122007584 122906328 123930776 125049904 126219600 127388496 
699.069 128512712 129563200 130526784 131405864 132213848 132972808 
701.962 133707520 134445872 135214800 136033328 136908912 137832880 
704.855 138782672 139725984 140630864 141476400 142254256 142970368 
707.747 143636240 144262784 144854912 145411280 145930960 146419104 
710.640 146890976 147372016 147888512 148460192 149095248 149787568 
713.533 150519776 151268352 152009392 152718816 153372864 153950864 
716.425 154436208 154824480 155128784 155385792 155649632 155977392 
719.318 156419152 156999808 157715280 158535104 159413504 160302736 
722.211 161156720 161934976 162600800 163115792 163448512 163582208 
725.104 163528848 163333424 163071072 162832576 162693600 162703248 
727.996 162874304 163190992 163626112 164159120 164788128 165526496 
730.889 166392912 167396704 168533088 169787008 171146160 172615072 
733.782 174221776 176009728 178026064 180300304 182835568 185608480 
736.674 188582960 191722224 194996272 198382912 201856272 205380288 
739.567 208918224 212448384 215993168 219624144 223450048 227551440 
742.460 231899904 236270496 240207856 243099232 244232976 243038800 
745.352 239260448 233034464 224872096 215509616 205781184 196391840 
748.245 187862160 180511440 174444672 169626080 165927056 163186208 
751.138 161233952 159916864 159122096 158773840 158846288 159358896 
754.031 160363984 161914528 164026928 166642608 169604912 172673200 
756.923 175526400 177841296 179351856 179880720 179386304 177952928 
759.816 175775328 173099952 170192992 167305680 164625792 162285520 
762.709 160356320 158854272 157756736 157012032 156556896 156320704 
765.601 156237600 156256800 156339504 156464384 156623888 156818304 
768.494 157051888 157328736 157654496 158040176 158509008 159103104 
771.387 159875728 160880304 162146512 163652896 165305936 166928560 
774.279 168298800 169170224 169334960 168687408 167239632 165125632 
777.172 162544096 159721872 156842224 154005472 151229952 148462944 
780.065 145618944 142610352 139384896 135937200 132308288 128570928 
782.958 124812008 121120464 117567256 114205992 111073536 108190104 
785.850 105566840 103207688 101109784 99264968 97660560 96282904 95119912 
789.225 94165056 93417976 92883480 92568896 92481112 92625328 93004928 
792.600 93622624 94479080 95569376 96876424 98360600 99957872 101575280 
795.975 103089192 104367080 105268008 105657472 105432704 104523720 
798.867 102910096 100623480 97749112 94417552 90782312 87022296 83312976 
802.242 79802984 76617168 73832712 71481496 69558432 68031680 66856840 
805.617 65984420 65369652 64972572 64755364 64685292 64729788 64856068 
808.992 65033340 65227664 65401964 65519192 65540620 65432012 65171756 
812.367 64752056 64183272 63490124 62709296 61879732 61035732 60206240 
815.742 59411340 58665296 57979792 57364216 56825604 56366992 55986204 
819.116 55676924 55430132 55238452 55097668 55007588 54970584 54989348 
822.491 55065656 55200260 55395916 55657868 55994380 56414456 56921652 
825.866 57508272 58149844 58804624 59419548 59931148 60281112 60423700 
829.241 60330224 59996916 59443524 58711796 57856476 56940392 56027740 
832.616 55170836 54410404 53769528 53254004 52856624 52562544 52355640 
835.990 52220384 52143900 52115620 52123576 52155520 52199984 52247104 
839.365 52291464 52333028 52375004 52421508 52474748 52534164 52596952 
842.740 52660948 52726600 52798584 52884468 52992528 53128768 53295920 
846.115 53493644 53720704 53977708 54267792 54596276 54968852 55388616 
849.490 55854788 56362880 56906732 57480244 58078556 58698408 59337036 
852.865 59990948 60656244 61328776 62006332 62689348 63381224 64087412 
856.239 64812748 65560036 66329224 67118912 67927640 68756184 69609424 
859.614 70495480 71425176 72408688 73454984 74568824 75749352 76987968 
862.989 78265952 79554152 80809264 81981328 83017032 83866664 84498064 
866.364 84902120 85100064 85141216 85101920 85078176 85165568 85461000 
869.739 86049144 86993104 88338432 90105112 92284496 94831280 97659320 
873.113 100642648 103600640 106319736 108572072 110123296 110786976 
876.006 110446552 109073496 106734800 103580576 99826264 95702344 91443320 
879.381 87260696 83311368 79709824 76523176 73776440 71469272 69582504 
882.756 68087016 66944504 66111104 65541236 65185116 64996816 64938248 
886.131 64978844 65100080 65294668 65564892 65919852 66373616 66942608 
889.505 67641536 68481904 69469888 70605240 71883280 73297184 74842248 
892.880 76519704 78338048 80312144 82459968 84794968 87315992 89995520 
896.255 92768112 95527216 98109920 100318432 101941248 102767512 102644656 
899.630 101500344 99362296 96355128 92685248 88615184 84403560 80292736 
903.005 76479864 73089808 70193928 67812232 65929072 64507896 63502088 
906.379 62865084 62550188 62517128 62735244 63182204 63846888 64726980 
909.754 65825268 67144864 68685000 70434728 72370288 74449600 76604752 
913.129 78748176 80768160 82537376 83939784 84878152 85298776 85204112 
916.504 84655352 83766000 82674080 81536720 80498080 79668264 79126008 
919.879 78906336 79005088 79383184 79975344 80700960 81469768 82204776 
923.254 82852120 83391296 83840824 84255744 84719944 85324344 86159800 
926.628 87300632 88789016 90629328 92775616 95131256 97531848 99755256 
930.003 101552840 102650064 102810416 101880960 99814248 96696976 92730824 
933.378 88218176 83487336 78850232 74577048 70847008 67761728 65354356 
936.753 63605300 62464668 61867388 61750340 62049064 62697268 63625596 
940.128 64745672 65949976 67122400 68134304 68871456 69254040 69243936 
943.502 68858056 68159848 67252000 66248552 65255076 64358892 63612668 
946.877 63039592 62640048 62400436 62300836 62319576 62436436 62630592 
950.252 62880600 63166344 63468880 63772128 64066752 64347708 64615236 
953.627 64873496 65129376 65392108 65671840 65979832 66326364 66719620 
957.002 67164896 67663640 68215168 68817680 69470400 70174224 70932128 
960.377 71747512 72623696 73562784 74566064 75635048 76772968 77984928 
963.751 79278856 80664184 82149600 83743216 85450072 87272648 89210104 
967.126 91258288 93409752 95650880 97962800 100319312 102684984 105018168 
970.501 107272368 109396560 111344784 113076424 114560032 115777120 
973.394 116721224 117398288 117824424 118027216 118043744 117914920 
976.286 117687760 117409096 117120888 116864432 116676744 116592496 
979.179 116648920 116883736 117335504 118045432 119051672 120389224 
982.072 122089032 124172824 126652224 129521680 132754864 136292992 
984.964 140034208 143840368 147520064 150842992 153575648 155483136 
987.857 156376944 156148128 154775312 152339648 149006384 145021232 
990.750 140663984 136212016 131933752 128038344 124674760 121937912 
993.643 119864440 118451760 117669168 117472616 117811040 118633336 
996.535 119896624 121562592 123599448 125982792 128688960 131693032 
999.428 134965312 138459952 142109920 145826480 149484816 152938048 
1002.321 156030464 158601936 160522880 161710608 162141504 161860800 
1005.213 160978608 159665920 158118384 156547056 155156752 154109456 
1008.106 153531856 153506928 154074496 155247488 157019360 159377120 
1010.999 162305840 165794624 169839216 174439328 179599648 185328688 
1013.891 191633888 198515264 205953136 213882144 222176432 230626592 
1016.784 238913136 246651536 253406880 258751872 262372912 264112480 
1019.677 264026464 262368592 259578768 256211184 252810928 249902432 
1022.570 247893920 247034880 247441136 249089776 251860384 255553664 
1025.462 259936128 264766960 269786752 274748096 279411904 283536064 
1028.355 286913856 289380064 290833120 291255808 290714656 289352352 
1031.249 287349952 284917824 282265920 279567776 276963872 274534400 
1034.142 272289440 270164768 268026448 265698976 262973488 259659168 
1037.035 255616224 250764016 245099792 238685456 231636288 224094880 
1039.928 216219328 208177760 200122800 192194992 184516848 177178016 
1042.821 170249520 163786560 157830928 152425168 147611760 143426704 
1045.714 139900848 137050992 134876608 133362528 132480560 132197008 
1048.607 132472072 133266328 134541040 136254720 138366720 140836384 
1051.500 143621664 146684880 149990640 153502752 157184160 160986624 
1054.393 164841680 168663024 172335056 175719664 178676608 181061984 
1057.286 182752384 183663968 183756880 183050816 181624304 179621888 
1060.179 177236560 174685664 172210256 170030624 168333456 167273824 
1063.072 166952992 167427552 168710272 170772720 173546832 176923760 
1065.965 180771104 184924960 189201040 193423792 197417312 201025712 
1068.858 204127120 206619056 208424688 209489472 209774768 209262080 
1071.751 207955456 205882448 203095056 199667584 195704144 191330992 
1074.645 186700672 181998368 177414784 173146416 169382384 166272784 
1077.538 163937136 162454656 161859344 162145584 163261296 165111824 
1080.431 167543040 170345104 173275216 176046496 178379712 180048912 
1083.324 180898640 180890880 180106592 178742448 177068688 175389616 
1086.217 174024016 173237392 173231872 174128800 175950992 178627552 
1089.110 181993584 185825296 189837248 193713648 197163920 199917120 
1092.003 201763792 202577184 202304592 200973232 198673168 195550608 
1094.896 191779888 187536480 182992896 178288448 173526176 168781728 
1097.789 164101088 159513728 155039776 150692064 146479744 142409168 
1100.682 138485936 134719024 131125104 127728640 124564664 121674872 
1103.575 119100184 116881960 115056720 113653112 112696664 112206656 
1106.468 112196056 112672568 113636664 115082160 116995368 119356728 
1109.361 122139816 125307560 128813656 132596240 136570768 140636544 
1112.254 144667040 148512016 152019568 155032432 157408064 159040992 
1115.147 159860704 159844080 159013184 157433568 155205824 152449072 
1118.041 149299216 145885152 142314624 138676800 135032224 131420616 
1120.934 127871664 124409400 121059024 117850416 114813056 111977872 
1123.827 109375848 107035272 104985584 103258320 101882336 100887440 
1126.720 100299728 100138552 100416544 101137552 102294816 103868736 
1129.613 105825240 108116184 110671664 113405792 116219296 118996064 
1132.506 121624280 124004880 126063392 127769592 129140464 130244088 
1135.399 131180320 132073480 133049440 134205000 135600112 137239968 
1138.292 139074976 140999600 142867504 144519776 145787632 146525472 
1141.185 146629264 146034192 144724928 142726688 140101456 136935664 
1144.078 133333696 129417704 125308664 121124616 116977248 112955168 
1146.971 109131128 105560496 102278296 99306616 96653840 94316952 92283344 
1150.346 90534176 89049128 87807448 86791184 85986424 85380856 84964048 
1153.722 84726384 84658888 84754128 85007536 85416544 85981536 86703792 
1157.097 87584992 88626648 89830096 91196968 92729512 94430192 96300152 
1160.472 98338368 100537768 102883264 105351112 107904544 110494320 
1163.365 113062584 115537456 117840856 119894480 121616648 122934520 
1166.258 123789624 124139088 123964720 123273832 122099224 120491888 
1169.151 118516568 116247448 113755184 111110384 108380664 105623368 
1172.044 102890912 100226856 97663096 95224696 92930016 90791872 88821736 
1175.420 87028408 85417024 83989192 82742344 81670664 80767160 80025576 
1178.795 79441344 79011648 78733840 78603968 78614928 78757592 79019872 
1182.170 79388160 79849168 80388816 80993008 81648672 82343240 83066496 
1185.545 83812368 84578568 85366488 86179032 87016712 87874496 88739344 
1188.921 89588160 90390536 91112768 91719968 92184392 92489024 92629552 
1192.296 92616344 92473656 92238272 91952080 91660880 91408480 91228856 
1195.671 91146368 91173064 91309432 91545824 91863928 92238728 92634960 
1199.046 93007680 93305408 93466456 93429840 93143480 92569432 91695000 
1202.422 90535768 89135856 87559048 85882632 84191096 82559896 81056144 
1205.797 79732944 78623344 77743480 77092896 76657880 76415632 76338312 
1209.172 76398560 76568432 76822000 77136224 77488656 77859960 78235280 
1212.547 78604680 78965184 79320736 79681552 80061232 80475104 80938552 
1215.923 81463968 82061016 82735488 83488624 84317048 85212088 86161944 
1219.298 87150928 88163048 89184072 90202528 91211360 92208608 93196616 
1222.673 94181400 95171184 96176632 97208856 98278112 99393416 100559072 
1226.048 101773184 103025640 104299160 105569544 106808176 107987776 
1228.941 109083672 110076808 110955960 111716472 112360744 112897720 
1231.834 113345016 113729264 114084728 114455312 114888672 115428656 
1234.728 116115776 116978456 118032264 119280064 120712296 122308232 
1237.621 124034104 125846328 127690048 129497576 131197568 132715552 
1240.514 133978216 134925536 135507232 135685696 135437696 134750928 
1243.407 133626920 132081208 130147368 127875520 125326528 122573672 
1246.300 119693744 116761712 113858016 111059632 108438040 106059136 
1249.193 103968624 102187104 100704192 99478728 98442800 97508456 96589472 
1252.568 95607480 94505552 93259696 91876616 90393480 88865200 87360192 
1255.943 85945144 84670848 83570152 82649592 81891616 81255888 80688000 
1259.319 80127616 79510136 78779992 77894448 76826432 75569704 74138720 
1262.694 72567608 70902520 69198272 67510488 65884844 64357200 62951640 
1266.069 61680368 60548888 59557708 58704212 57982404 57383388 56896348 
1269.444 56509320 56211440 55994720 55853580 55784140 55783160 55845740 
1272.820 55966452 56139828 56361900 56631872 56951384 57324176 57753448 
1276.195 58241336 58788048 59392648 60054024 60771588 61544508 62370372 
1279.570 63242988 64151900 65080412 66007444 66909752 67761576 68537888 
1282.945 69216232 69775536 70198952 70474704 70596280 70563808 70383880 
1286.321 70069200 69635288 69100400 68483272 67801544 67074256 66323780 
1289.696 65573944 64854452 64195952 63625060 63162008 62813968 62572844 
1293.071 62413176 62295368 62171624 61987720 61696296 61263760 60674952 
1296.446 59938944 59086408 58167196 57236620 56349336 55551140 54870268 
1299.822 54319568 53897800 53594808 53394192 53276552 53221980 53208200 
1303.197 53212504 53214828 53196704 53145732 53055720 52925560 52758064 
1306.572 52557944 52330600 52082748 51822268 51560976 51311772 51089028 
1309.947 50905880 50771524 50691424 50668336 50704080 50802248 50968360 
1313.323 51208680 51528668 51930960 52414928 52977440 53615840 54329592 
1316.698 55121292 55996416 56960528 58018380 59171264 60416884 61749348 
1320.073 63159748 64634568 66153504 67688456 69199952 70635728 71939664 
1323.448 73052368 73922656 74520944 74844256 74922368 74811072 74590424 
1326.823 74347744 74159872 74089880 74172128 74410424 74781360 75242464 
1330.199 75744968 76241624 76701368 77113112 77486992 77849616 78239048 
1333.574 78697968 79263512 79965424 80822032 81838168 83004352 84296696 
1336.949 85681184 87110640 88530800 89886416 91121152 92186656 93048688 
1340.324 93688200 94103576 94305832 94314160 94149504 93831488 93378736 
1343.700 92808232 92136008 91378048 90546504 89650592 88696952 87691864 
1347.075 86646384 85580944 84524904 83520344 82617160 81866456 81322336 
1350.450 81035816 81050912 81407648 82135032 83249192 84751032 86624632 
1353.825 88836784 91332376 94039928 96869216 99707904 102437504 104931248 
1357.201 107061848 108721600 109820392 110297752 110131328 109336424 
1360.094 107967296 106105408 103865784 101386424 98814792 96312440 94025936 
1363.469 92062528 90481528 89280872 88408936 87776784 87284392 86834728 
1366.844 86343032 85753112 85036624 84194120 83248392 82237680 81206952 
1370.219 80197240 79246448 78386624 77641920 77035088 76587128 76318720 
1373.595 76249840 76394488 76754144 77313552 78041080 78895128 79828704 
1376.970 80801120 81781968 82751920 83706128 84650480 85599024 86567112 
1380.345 87566592 88599256 89652752 90696440 91680152 92542864 93211112 
1383.720 93610832 93678944 93365384 92648168 91543864 90125080 88519304 
1387.096 86886608 85397464 84178624 83291776 82736328 82467424 82420472 
1390.471 82526240 82724984 82962760 83187672 83353072 83413816 83335248 
1393.846 83103368 82731040 82257144 81729128 81188936 80656272 80128368 
1397.221 79589568 79026584 78441992 77861232 77326808 76883264 76563568 
1400.597 76375568 76305448 76324408 76401168 76507408 76621864 76733664 
1403.972 76840000 76946512 77063808 77205008 77382480 77603768 77871696 
1407.347 78183944 78536112 78924608 79349688 79817032 80336344 80917800 
1410.722 81567864 82285536 83061848 83882336 84730088 85591152 86456800 
1414.098 87323088 88190440 89059744 89929736 90796568 91653720 92495256 
1417.473 93321752 94145384 94993672 95900432 96900904 98013992 99234904 
1420.848 100542568 101907776 103303840 104708376 106109176 107504488 
1423.741 108899664 110305440 111732496 113186528 114663096 116146520 
1426.634 117608392 119013536 120318360 121475760 122445304 123194272 
1429.527 123704240 123972032 124009992 123846160 123521408 123091408 
1432.420 122616296 122146312 121716352 121334616 120986872 120647152 
1435.313 120300000 119961784 119696096 119594056 119735560 120150496 
1438.207 120802952 121607968 122453472 123231536 123839416 124192536 
1441.100 124237568 123947480 123324048 122389216 121180064 119741928 
1443.993 118122016 116371656 114536568 112651176 110744136 108841296 
1446.886 106981048 105229584 103676144 102418000 101537264 101074568 
1449.779 101030832 101377472 102077032 103091336 104382496 105910728 
1452.672 107620112 109434968 111270112 113017192 114552184 115745064 
1455.565 116461200 116612040 116206352 115389760 114385672 113390008 
1458.458 112505744 111737040 111042432 110379896 109730576 109096288 
1461.351 108488824 107912232 107359536 106814536 106264800 105716936 
1464.244 105205184 104779984 104488056 104344744 104325568 104374192 
1467.137 104422064 104410304 104290016 104026000 103587432 102935672 
1470.030 102022960 100799720 99239904 97373936 95315016 93254720 91393384 
1473.406 89874432 88742272 87958304 87446784 87137808 86992776 87001208 
1476.781 87167504 87493600 87968856 88570368 89273144 90056424 90911872 
1480.156 91841744 92853896 93954720 95144248 96415600 97757416 99157504 
1483.531 100602552 102079160 103568720 105042856 106466288 107792632 
1486.424 108964216 109916912 110570824 110830728 110596640 109772128 
1489.317 108300808 106201064 103583736 100634672 97555568 94517296 91611000 
1492.693 88846536 86180616 83543400 80870448 78130704 75337360 72550064 
1496.068 69861104 67360216 65110012 63132660 61422660 59961008 58728828 
1499.443 57712008 56896952 56266804 55802448 55485100 55299264 55232692 
1502.818 55270060 55384588 55531712 55635084 55592188 55288464 54628248 
1506.194 53593720 52275432 50842256 49447576 48166524 46994304 45890564 
1509.569 44817060 43759032 42724012 41737884 40830460 40021852 39321704 
1512.944 38728196 38233760 37829676 37506688 37252600 37050264 36881132 
1516.319 36732796 36606576 36519348 36495416 36552724 36690468 36886216 
1519.695 37099484 37290332 37436324 37551736 37681520 37879636 38173664 
1523.070 38550588 38967020 39371876 39729692 40029480 40290540 40550376 
1526.445 40850296 41214072 41641852 42118900 42629952 43171180 43751592 
1529.820 44386400 45086640 45851236 46668304 47522588 48407224 49334976 
1533.196 50338752 51458420 52713468 54096436 55573736 57108036 58666664 
1536.571 60232428 61807292 63398400 65015868 66662060 68321992 69961008 
1539.946 71534744 73016304 74402128 75711992 76977880 78222472 79454560 
1543.321 80668448 81850488 82984464 84059272 85072496 86025760 86915792 
1546.697 87725648 88415640 88925656 89191680 89156240 88798200 88142952 
1550.072 87255792 86204896 85024016 83694960 82157848 80345672 78228768 
1553.447 75850632 73333472 70849304 68540296 66476940 64633884 62906408 
1556.822 61135316 59142976 56797280 54084576 51191048 48458008 46201380 
1560.198 44545224 43425604 42690596 42189988 41809820 41468332 41116224 
1563.573 40732008 40321700 39913448 39545320 39249200 39034040 38882940 
1566.948 38758336 38617472 38422460 38153116 37813768 37432500 37050876 
1570.323 36706404 36422804 36206592 36051752 35945204 35868328 35797980 
1573.698 35702604 35547084 35301836 34956768 34537384 34104712 33736424 
1577.074 33487756 33374134 33375174 33456438 33586116 33745520 33930776 
1580.449 34147508 34404480 34707328 35056072 35446480 35873224 36331148 
1583.824 36815308 37318420 37827832 38327196 38801088 39240424 39647604 
1587.199 40038020 40437768 40876836 41384024 41984500 42696812 43534560 
1590.575 44506460 45613012 46841072 48158600 49516944 50851232 52091636 
1593.950 53180672 54074520 54752380 55214292 55477456 55569180 55521020 
1597.325 55366668 55136868 54856544 54544692 54210200 53852000 53459428 
1600.700 53018392 52517224 51953624 51338996 50698348 50066416 49477396 
1604.076 48961044 48537260 48216172 48002040 47896212 47897356 47997780 
1607.451 48180260 48417264 48672812 48913236 49117916 49283568 49426228 
1610.826 49573540 49756644 49998116 50308092 50684424 51117912 51596272 
1614.201 52106764 52638844 53181984 53729368 54281756 54855492 55481184 
1617.577 56188964 57001176 57918188 58920084 59971392 61032036 62069860 
1620.952 63061124 64001664 64904852 65795504 66697136 67621480 68566912 
1624.327 69521760 70474944 71422600 72367744 73316208 74271192 75232808 
1627.702 76200992 77183000 78197032 79273328 80444520 81732928 83143688 
1631.078 84662120 86262560 87912824 89590808 91292632 93031808 94839112 
1634.453 96752408 98807560 101018960 103381904 105885184 108512304 111257960 
1637.828 114121048 117095288 120162520 123291392 126451088 129609600 
1640.721 132746488 135854608 138927408 141947296 144881248 147668640 
1643.614 150238528 152526368 154484432 156101312 157403008 158453728 
1646.507 159330720 160114336 160882608 161696768 162604944 163635024 
1649.400 164787200 166023536 167257360 168363776 169169152 169506544 
1652.293 169313632 168758400 168227040 168076480 168430976 169150704 
1655.187 170000672 170766432 171318560 171607696 171635552 171434192 
1658.080 171037184 170460976 169697120 168719760 167499120 166014992 
1660.973 164262032 162251056 160006176 157568224 154998432 152374240 
1663.866 149778064 147272752 144877536 142559824 140231728 137768112 
1666.759 135022640 131864656 128212768 124067520 119522456 114746592 
1669.652 109944736 105300648 100942536 96931512 93267176 89901328 86747408 
1673.027 83694320 80626912 77465488 74214000 70991584 68010088 65477392 
1676.402 63515396 62115656 61178800 60574064 60197144 59996956 59971468 
1679.778 60148012 60550412 61175596 61993988 62969832 64089484 65392992 
1683.153 66979832 68981816 71472944 74418960 77688512 81136616 84690456 
1686.528 88356912 92185624 96221080 100464608 104866696 109312472 113661800 
1689.903 117792400 121619496 125118000 128307672 131227208 133911240 
1692.796 136375776 138611664 140594592 142294720 143698736 144825696 
1695.689 145738208 146514240 147186864 147713328 147958576 147724688 
1698.583 146762560 144855248 141944592 138269216 134351104 130730536 
1701.476 127701568 125218480 123044424 120894200 118543816 115861912 
1704.369 112817664 109474496 105962232 102434648 99009984 95749384 92658464 
1707.744 89707384 86847432 84022392 81179592 78276976 75297560 72253112 
1711.119 69186424 66155164 63208072 60378196 57670268 55069044 52557196 
1714.494 50130928 47808280 45622252 43603312 41762760 40084352 38545480 
1717.870 37137596 35881496 34820828 33993584 33407450 33031776 32807454 
1721.245 32665078 32551102 32439440 32341480 32293294 32338052 32498106 
1724.620 32764860 33101608 33465494 33826924 34178264 34532468 34907464 
1727.995 35311216 35732820 36146128 36523564 36853684 37147884 37435280 
1731.371 37746284 38098964 38489580 38898884 39306980 39717456 40162152 
1734.746 40691216 41336136 42092104 42926964 43799752 44680536 45553504 
1738.121 46423700 47308388 48223352 49167188 50114980 51024032 51853516 
1741.496 52578104 53193028 53708816 54138996 54487216 54742608 54879928 
1744.872 54871204 54697808 54356328 53858828 53223556 52465812 51587356 
1748.247 50574740 49405476 48061064 46540304 44866952 43089652 41269924 
1751.622 39467808 37725612 36063200 34481028 32966178 31498916 30055310 
1754.997 28610434 27144636 25652974 24152760 22685496 21304110 20052180 
1758.373 18949954 17985840 17123838 16315969 15520519 14718573 13919814 
1761.748 13158656 12474796 11895115 11419911 11028724 10691236 10383600 
1765.123 10093546 9819683 9565738 9333743 9119197 8913820 8710399 8509034 
1768.980 8317894 8148108 8004814 7881170 7756482 7604718 7408684 7171236 
1772.838 6917792 6682765 6491889 6349813 6241900 6144128 6036367 5911200 
1776.695 5774820 5641537 5524605 5426625 5337793 5240896 5121221 4976508 
1780.553 4819314 4671688 4550965 4462679 4396200 4332810 4253703 4151628 
1784.410 4033658 3917625 3821312 3752692 3707074 3671218 3633092 3588088 
1788.268 3542020 3506211 3490044 3493084 3502937 3499464 3465328 3395929 
1792.125 3303938 3213135 3146046 3111071 3100692 3097488 3085375 3058145 
1795.982 3020174 2983007 2957352 2946310 2943741 2936936 2914552 2873992 
1799.840 2823030 2776509 2746332 2735828 2736662 2736062 2723158 2696652 
1803.697 2665146 2642043 2637576 2652678 2678315 2699819 2705587 2691851 
1807.555 2665279 2637710 2619842 2613775 2612809 2604375 2579443 2538147 
1811.412 2490323 2450136 2429010 2428011 2438840 2448170 2445704 2430143 
1815.270 2410019 2399357 2408619 2439640 2483692 2526749 2556378 2569743 
1819.127 2573443 2579942 2599075 2632243 2671647 2704720 2721424 2718690 
1822.984 2702320 2682415 2667813 2659945 2653545 2640577 2617242 2587275 
1826.842 2560811 2547312 2549912 2561044 2565410 2546412 2496455 2422813 
1830.699 2345952 2287924 2261577 2265474 2286025 2306011 2313006 2305145 
1834.557 2291155 2285159 2296318 2324865 2360744 2390628 2405154 2405487 
1838.414 2402255 2410585 2441006 2493789 2558811 2621142 2669247 2698785 
1842.271 2715089 2728026 2746765 2773141 2801320 2823097 2835870 2845676 
1846.129 2865153 2905213 2969162 3049336 3130761 3197079 3238238 3255930 
1849.986 3261672 3269718 3288847 3317794 3345941 3360633 3352820 3323671 
1853.844 3282371 3241542 3208228 3181091 3150585 3106198 3043063 2966293 
1857.701 2888034 2822130 2775876 2746098 2721424 2689117 2642477 2585875 
1861.559 2531614 2493223 2477794 2482126 2494422 2501321 2495022 2478127 
1865.416 2461032 2455601 2466664 2488824 2507886 2508919 2484158 2439540 
1869.273 2391527 2358745 2349916 2361143 2378134 2385997 2375969 2350350 
1873.131 2319136 2295152 2284793 2285559 2286358 2275333 2247488 2207756 
1876.988 2169027 2143986 2138958 2148248 2158537 2154741 2129302 2086084 
1880.846 2038677 2001993 1984917 1985749 1993971 1996700 1986881 1967110 
1884.703 1948204 1942846 1956525 1985283 2016540 2036713 2037312 2020068 
1888.561 1994171 1972135 1960852 1958422 1956159 1945675 1924807 1900912 
1892.418 1885936 1890928 1918850 1962816 2008650 2042605 2059450 2065177 
1896.275 2073600 2097471 2142021 2200629 2259945 2305378 2330528 2339323 
1900.133 2344320 2358045 2386596 2425712 2463531 2489057 2497088 2493089 
1903.990 2488790 2496722 2521516 2558111 2594209 2617309 2622475 2614209 
1907.848 2603108 2600208 2609708 2625676 2636776 2632809 2611708 2581909 
1911.705 2557078 2548779 2560811 2585475 2609575 2620442 2613542 2593675 
1915.563 2572276 2559011 2556411 2557478 2551012 2528115 2490557 2450336 
1919.420 2423846 2422013 2443971 2476494 2500021 2499388 2471029 2425245 
1923.277 2381232 2357579 2361576 2387696 2420880 2447137 2460799 2466864 
1927.135 2477027 2500921 2540213 2585376 2621576 2636443 2628176 2606809 
1930.992 2589642 2589809 2610575 2642277 2668613 2675448 2659812 2631409 
1934.850 2608242 2605675 2628009 2666813 2706120 2731527 2738329 2734028 
1938.707 2732594 2746065 2776376 2814026 2841940 2847476 2828833 2797985 
1942.564 2773808 2772207 2796618 2837071 2876394 2901710 2912051 2919856 
1946.422 2942673 2993449 3071793 3163468 3247952 3307578 3338529 3351217 
1950.279 3363739 3390620 3434468 3484366 3521643 3532867 3515664 3481861 
1954.137 3450098 3435637 3439711 3450799 3449964 3424950 3376695 3321734 
1957.994 3282538 3277497 3307911 3358196 3402976 3423247 3415132 3393492 
1961.852 3380234 3393892 3437908 3500065 3558723 3596240 3608635 3607767 
1965.709 3612344 3636935 3681577 3732372 3769971 3782171 3772177 3757137 
1969.566 3759477 3792232 3851531 3917759 3966743 3984432 3975103 3960490 
1973.424 3967880 4017204 4108510 4224560 4341177 4442326 4529502 4619878 
1977.281 4732213 4873258 5027087 5161857 5241935 5246731 5179864 5066843 
1981.139 4942826 4834391 4753015 4691583 4635183 4571791 4502819 4440953 
1984.996 4403698 4401020 4428367 4468236 4500040 4510552 4501212 4485644 
1988.854 4481995 4499672 4534123 4567003 4577718 4556121 4508577 4456619 
1992.711 4426024 4433488 4477375 4540954 4599886 4636355 4647741 4644526 
1996.568 4644091 4658358 4686961 4716637 4730940 4718345 4681234 4634982 
2000.426 4600891 4592251 4610669 4643756 4674803 4692286 4697444 4702033 
2004.283 4723537 4771908 4843873 4923221 4991021 5034227 5055513 5068486 
2008.141 5090981 5132251 5187542 5239688 5269604 5268128 5241365 5208769 
2011.998 5193042 5206656 5246999 5297978 5338296 5353122 5342724 5319244 
2015.855 5299856 5295563 5305927 5319445 5323973 5314413 5298045 5290129 
2019.713 5306732 5352888 5420050 5488934 5541082 5567226 5573233 5573200 
2023.570 5582429 5605387 5633112 5648318 5636972 5597264 5544170 5503329 
2027.428 5495947 5529437 5591458 5656408 5697095 5700284 5670809 5629688 
2031.285 5600956 5600050 5626197 5666680 5705152 5732984 5752055 5774618 
2035.143 5810817 5861190 5913417 5948585 5952112 5921881 5870627 5820286 
2039.000 5791105 5789829 5808231 5827036 5826969 5801447 5757997 5714686 
2042.857 5689575 5691857 5713847 5739027 5748362 5732816 5696558 5656508 
2046.715 5629856 5627942 5648821 5680007 5703775 5706260 5681820 5633380 
2050.572 5566688 5486954 5397001 5299387 5199279 5107642 5038450 5003255 
2054.430 5004965 5034327 5070900 5091718 5081057 5037009 4971079 4902780 
2058.287 4849703 4820319 4811374 4811173 4807387 4794790 4777503 4765175 
2062.145 4766884 4785476 4814858 4845113 4866557 4876944 4881066 4888974 
2066.002 4907740 4937632 4970141 4993703 4999166 4985960 4961829 4939442 
2069.859 4928651 4931064 4938838 4939207 4921479 4882406 4829365 4774254 
2073.717 4729902 4703005 4691282 4687597 4684516 4679525 4676008 4680798 
2077.574 4698081 4725882 4756566 4778944 4785208 4775125 4755662 4738477 
2081.432 4732950 4741157 4757738 4772981 4778508 4771607 4757470 4744774 
2085.289 4741056 4747923 4759548 4765912 4758509 4733888 4696104 4653502 
2089.146 4615023 4584081 4559603 4536567 4511055 4483702 4460536 4449154 
2093.004 4455649 4479786 4515206 4552136 4582138 4602063 4615357 4628318 
2096.861 4645698 4667435 4688033 4700224 4699689 4687932 4672525 4663985 
2100.719 4669745 4690210 4719048 4746717 4765343 4772512 4772478 4772177 
2104.576 4777537 4789229 4802328 4809062 4804372 4788190 4766850 4748861 
2108.434 4741190 4744976 4755628 4764907 4766582 4759012 4746550 4735797 
2112.291 4732380 4737304 4746181 4752881 4752781 4745545 4735965 4730940 
2116.148 4735194 4748727 4766984 4783299 4792478 4794053 4791440 4790100 
2120.006 4793517 4800753 4806817 4806348 4796532 4780183 4764606 4757705 
2123.863 4764137 4782863 4806382 4825512 4833620 4829566 4818041 4805477 
2127.721 4796163 4789262 4779346 4758609 4722532 4672793 4616596 4563454 
2131.578 4521099 4491469 4470947 4454712 4439146 4426091 4421438 4431547 
2135.436 4456787 4492474 4526723 4548721 4553643 4545775 4535462 4535228 
2139.293 4551902 4583143 4618807 4646067 4656282 4650488 4636958 4627313 
2143.150 4630126 4646569 4670348 4693224 4710273 4723303 4740352 4770569 
2147.008 4816299 4872555 4927410 4968666 4989781 4994440 4992898 4997624 
2150.865 5013545 5036841 5053937 5051658 5021523 4966253 4897351 4830236 
2154.723 4775929 4738309 4715264 4706354 4717876 4766783 4873258 5049110 
2158.580 5286105 5553063 5805981 6001326 6114489 6146951 6120101 6063582 
2162.438 6003509 5953993 5915096 5881442 5848730 5817767 5795134 5786706 
2166.295 5792146 5802690 5805040 5787982 5748026 5693402 5637006 5592767 
2170.152 5565749 5551183 5536652 5510578 5469271 5419849 5376504 5353860 
2174.010 5359093 5387876 5426491 5458735 5475444 5476048 5467895 5460916 
2177.867 5460043 5462325 5460614 5447092 5420553 5388614 5364226 5357919 
2181.725 5373284 5402537 5431960 5448635 5447528 5434041 5421224 5422432 
2185.582 5442898 5479337 5519974 5552694 5571991 5580986 5589276 5607602 
2189.439 5641202 5685983 5732245 5768742 5789997 5797888 5800978 5807089 
2193.297 5820857 5839763 5856757 5865052 5863843 5857832 5856522 5867739 
2197.154 5893163 5925979 5955471 5971192 5968337 5950701 5926550 5904549 
2201.012 5887722 5873045 5853365 5823174 5784087 5744634 5717876 5715022 
2204.869 5739229 5784289 5836909 5883524 5916876 5937130 5951137 5967363 
2208.727 5990609 6017822 6041877 6054140 6050512 6033074 6010128 5989400 
2212.584 5976466 5970353 5966288 5958125 5942774 5921881 5899511 5879326 
2216.441 5861660 5842383 5815988 5778950 5733018 5684875 5643350 5615255 
2220.299 5600990 5594747 5586759 5570347 5543297 5510275 5479270 5457057 
2224.156 5444475 5437127 5426391 5405523 5373955 5337759 5305961 5287178 
2228.014 5283388 5289727 5297106 5296569 5283422 5260716 5235630 5216079 
2231.871 5206690 5206589 5210848 5214503 5215408 5215643 5220338 5234222 
2235.729 5258066 5288520 5319512 5346413 5367648 5386837 5408643 5438000 
2239.586 5474908 5515477 5553398 5584208 5607367 5627305 5651070 5684036 
2243.443 5726638 5774719 5820253 5855716 5878352 5889872 5896085 5902501 
2247.301 5912039 5923224 5931488 5932495 5924769 5910864 5895816 5885203 
2251.158 5881811 5885136 5892155 5900082 5907303 5914827 5924534 5937601 
2255.016 5952011 5963365 5966220 5956915 5935014 5904314 5869351 5834625 
2258.873 5801548 5768944 5734126 5696558 5657616 5622337 5596156 5582530 
2262.730 5581322 5588571 5598607 5606192 5609045 5607367 5603440 5598842 
2266.588 5593035 5584007 5569877 5550546 5528497 5508866 5496014 5492323 
2270.445 5495678 5501115 5502289 5495611 5481082 5461855 5443234 5429276 
2274.303 5421157 5417131 5414481 5410824 5406697 5404349 5406596 5414984 
2278.160 5427968 5441892 5452930 5459205 5462124 5465781 5475411 5493833 
2282.018 5521182 5553667 5586725 5616128 5639892 5658489 5674266 5688634 
2285.875 5702030 5712974 5720092 5722912 5722878 5722811 5725698 5732883 
2289.732 5743460 5754506 5762765 5766862 5767601 5767903 5771630 5781099 
2293.590 5797049 5817566 5839932 5862063 5883054 5903139 5923124 5942539 
2297.447 5959838 5972267 5978012 5976634 5969815 5960879 5953556 5949391 
2301.305 5948182 5947779 5945730 5940724 5933637 5926314 5920940 5918186 
2305.162 5916809 5913719 5906094 5892592 5874288 5854205 5835599 5820756 
2309.020 5809574 5800205 5790198 5778278 5764478 5750879 5739632 5732145 
2312.877 5727411 5723516 5717708 5708475 5696323 5683162 5671413 5662417 
2316.734 5655535 5648821 5640262 5628950 5615893 5604212 5597231 5597499 
2320.592 5605454 5619048 5634622 5648284 5655703 5653253 5637912 5606729 
2324.449 5557594 5490679 5408744 5317332 5224530 5138857 5066911 5011802 
2328.307 4972621 4945407 4925702 4910387 4898792 4892827 4894670 4905494 
2332.164 4924059 4947753 4973325 4998831 5024439 5051725 5082700 5117768 
2336.021 5155587 5193411 5228386 5259307 5286910 5313105 5339772 5367547 
2339.879 5394754 5418775 5437463 5450548 5459842 5468834 5480344 5495511 
2343.736 5512893 5530880 5547861 5565615 5588605 5622908 5673394 5741411 
2347.594 5824181 5915701 6008146 6094025 6168124 6227379 6271111 6299955 
2351.451 6315251 6318915 6312797 6299955 6284020 6269027 6258337 6253665 
2355.309 6254606 6259312 6265430 6271313 6277195 6284322 6293903 6306106 
2359.166 6320092 6333675 6345039 6353982 6362254 6371937 6385588 6403343 
2363.023 6423552 6443999 6462697 6479109 6495286 6514189 6537532 6565417 
2366.881 6595862 6625131 6650498 6670888 6687644 6703628 6721597 6742360 
2370.738 6765143 6787725 6808391 6827408 6847166 6871504 6904258 6947890 
2374.596 7002706 7067632 7140920 7221465 7309167 7404370 7507213 7616689 
2378.453 7730611 7846215 7961244 8074818 8187610 8300939 8415818 8531707 
2382.311 8646444 8756681 8859033 8951701 9034240 9107962 9174862 9236289 
2386.168 9292578 9343290 9387709 9425226 9456243 9481574 9501589 9516118 
2390.025 9523874 9523299 9513171 9493765 9466673 9434335 9399492 9363874 
2393.883 9327954 9291800 9255175 9218791 9184575 9154693 9130904 9113952 
2397.740 9103124 9096966 9094057 9094057 9097677 9106271 9121396 9143221 
2401.598 9171106 9203459 9238929 9277008 9318137 9363739 9414898 9472329 
2405.455 9535728 9604556 9678139 9756648 9840424 9929879 10024640 10123153 
2409.313 10223690 10324759 10425818 10528191 10633881 10744589 10860491 
2412.688 10979140 11095784 11205318 11302807 11385794 11454304 11509657 
2416.063 11553754 11588328 11613579 11629064 11635087 11632432 11623108 
2419.438 11609767 11594282 11577506 11558927 11537319 11511834 11482779 
2422.813 11451888 11421374 11393651 11370318 11351611 11337564 11328449 
2426.189 11325048 11328756 11340830 11361236 11388821 11421374 11456617 
2429.564 11493530 11533135 11577846 11630833 11694105 11767975 11850541 
2432.939 11939115 12030910 12124428 12219636 12317863 12420172 12527483 
2436.314 12639596 12755697 12875651 13000179 13130309 13267994 13414539 
2439.690 13569886 13733802 13905616 14084822 14271977 14468325 14674633 
2443.065 14890947 15116084 15347997 15584292 15823569 16065486 16310532 
2446.440 16559640 16812474 17068244 17324754 17580414 17834464 18087556 
2449.815 18341074 18596086 18852878 19109024 19360816 19604228 19835706 
2453.191 20053012 20255776 20443942 20616868 20773354 20910562 21024932 
2456.566 21114004 21176136 21210926 21218754 21199584 21152270 21074978 
2459.941 20965430 20821982 20644804 20435470 20196554 19931546 19643366 
2463.316 19334418 19007308 18665190 18311696 17951546 17589178 17228076 
2466.692 16870684 16518371 16171638 15832298 15502731 15185940 14885564 
2470.067 14604482 14344472 14106419 13890973 13698819 13530676 13386826 
2473.442 13265842 13164531 13077720 12999564 12924939 12850907 12777365 
2476.817 12706325 12640074 12580483 12527244 12478888 12432958 12388123 
2480.193 12344146 12302456 12264589 12231700 12203141 12177379 12152981 
2483.568 12129470 12107324 12089232 12077547 12073766 12077547 12086813 
2486.943 12098738 12111037 12122451 12133252 12144121 12155979 12168655 
2490.318 12181229 12193020 12203618 12214183 12227030 12244105 12267315 
2493.694 12296458 12330715 12367873 12406466 12445266 12483935 12522060 
2497.069 12559030 12593615 12624484 12650683 12672244 12690495 12707383 
2500.444 12724340 12742151 12760065 12776272 12789547 12799785 12808145 
2503.819 12817393 12830259 12848483 12872580 12901626 12933678 12967473 
2507.195 13001647 13035551 13068807 13099779 13126758 13147761 13161456 
2510.570 13167638 13167877 13164428 13159066 13152918 13145678 13135910 
2513.945 13122489 13104834 13083900 13061159 13038555 13016772 12996185 
2517.320 12975974 12955867 12936238 12918556 12904254 12894731 12889748 
2520.696 12888075 12887495 12886470 12884252 12882204 12881828 12885106 
2524.071 12892853 12904527 12918078 12931903 12944874 12957164 12969760 
2527.446 12983860 12999974 13017523 13035756 13053886 13072018 13091106 
2530.821 13112824 13138028 13166921 13198207 13230452 13262085 13293070 
2534.197 13324535 13357747 13394139 13433712 13475509 13517790 13559254 
2537.572 13599936 13641168 13684525 13731443 13781991 13834632 13887074 
2540.947 13937024 13983661 14027668 14070687 14114428 14159475 14205350 
2544.322 14250200 14292077 14330054 14363959 14394714 14423417 14450820 
2547.698 14476718 14500836 14523584 14545854 14569497 14596498 14627852 
2551.073 14663048 14699480 14733791 14763819 14788502 14809037 14828133 
2554.448 14848704 14872328 14898834 14926336 14951919 14974006 14991531 
2557.823 15005045 15015952 15025385 15032999 15038178 15039482 15036087 
2561.198 15027888 15015918 15001374 14985632 14969719 14953805 14938029 
2564.574 14922872 14908915 14897051 14887999 14881381 14876272 14871505 
2567.949 14865814 14859128 14852065 14846030 14842670 14842807 14846373 
2571.324 14852613 14860842 14870134 14880592 14892422 14905658 14919855 
2574.699 14934395 14948250 14960493 14971605 14982065 14993246 15006039 
2578.075 15020548 15036326 15052414 15067816 15082224 15095775 15109566 
2581.450 15124181 15140341 15158044 15177362 15198087 15220701 15245512 
2584.825 15273207 15303650 15336430 15370619 15405119 15439622 15474266 
2588.200 15509496 15545965 15583606 15621661 15659444 15695892 15730901 
2591.576 15765119 15799962 15836557 15875289 15915466 15955614 15994320 
2594.951 16030625 16064627 16097773 16131610 16167684 16206479 16247891 
2598.326 16291268 16336095 16382301 16430853 16482163 16536612 16594270 
2601.701 16654070 16715428 16777928 16842026 16908646 16979100 17053840 
2605.077 17131972 17212460 17293170 17372446 17449392 17523556 17594940 
2608.452 17663678 17729596 17792416 17851968 17908730 17963426 18017164 
2611.827 18070492 18123310 18173682 18219602 18258372 18288680 18309968 
2615.202 18323102 18329840 18331568 18329358 18323998 18315498 18304578 
2618.578 18292446 18280972 18272022 18266976 18266148 18268980 18274130 
2621.953 18280212 18286502 18292826 18299738 18307996 18318400 18331396 
2625.328 18347364 18366442 18389188 18416256 18447750 18483670 18523364 
2628.703 18565828 18610198 18656198 18703864 18754026 18807306 18864332 
2632.079 18924998 18988892 19055392 19123670 19193966 19266248 19340516 
2635.454 19416772 19494704 19573518 19652830 19732262 19811742 19891412 
2638.829 19971302 20050756 20129186 20205440 20279070 20350144 20419250 
2642.204 20487568 20556070 20625172 20694670 20763794 20832236 20899646 
2645.580 20966508 21033590 21101586 21171020 21241858 21313716 21386384 
2648.955 21459972 21535418 21613556 21695090 21779912 21867330 21955846 
2652.330 22044240 22131884 22219060 22307264 22397718 22491574 22589256 
2655.705 22690000 22792582 22895920 22999214 23102670 23206852 23312248 
2659.081 23419696 23528748 23638978 23749168 23858580 23966060 24070906 
2662.456 24172728 24271174 24366278 24458460 24548206 24636778 24724810 
2665.831 24813032 24901098 24988478 25073948 25156940 25236856 25314224 
2669.206 25389992 25465384 25541178 25617932 25695474 25773066 25850248 
2672.582 25926740 26002510 26077938 26152852 26226900 26299060 26368202 
2675.957 26433166 26493456 26548786 26600004 26648126 26694634 26741040 
2679.332 26788580 26838378 26891146 26947374 27007312 27071314 27139804 
2682.707 27213772 27294494 27383240 27481712 27590586 27709624 27837842 
2686.083 27973416 28114262 28258690 28405786 28555158 28707168 28861920 
2689.458 29019244 29178962 29340584 29503756 29669010 29837166 30009188 
2692.833 30185894 30367540 30553458 30743010 30935102 31129344 31326022 
2696.208 31525888 31729660 31937950 32150802 32367538 32587636 32810274 
2699.583 33035352 33263158 33493694 33727184 33963092 34200420 34437692 
2702.959 34673412 34906064 35134240 35356716 35571972 35778836 35975832 
2706.334 36161900 36335868 36497184 36645220 36779352 36898840 37002920 
2709.709 37090896 37162032 37216644 37254948 37277872 37285816 37279244 
2713.084 37258016 37221700 37170120 37103168 37021616 36926296 36818048 
2716.460 36697532 36565084 36420896 36265044 36098452 35922492 35739044 
2719.835 35549960 35357112 35161836 34965244 34768596 34573656 34382460 
2723.210 34197336 34020528 33853432 33696388 33549104 33410918 33281472 
2726.585 33160828 33049834 32949518 32861166 32785192 32721416 32669182 
2729.961 32627962 32596816 32575350 32563422 32561064 32567710 32582958 
2733.336 32606422 32637640 32676544 32723020 32777008 32837722 32904088 
2736.711 32974150 33046436 33119452 33192478 33265482 33338822 33412636 
2740.086 33486824 33560664 33632728 33701796 33766900 33827428 33883736 
2743.462 33936720 33987416 34036796 34085680 34134356 34183212 34231892 
2746.837 34280080 34327412 34373352 34417752 34460508 34501904 34542764 
2750.212 34584132 34627372 34673628 34724052 34779404 34840180 34906928 
2753.587 34979716 35059236 35145416 35239192 35341332 35452952 35575240 
2756.963 35709152 35855372 36013916 36183144 36360796 36543676 36728256 
2760.338 36911072 37089164 37260292 37422708 37574676 37714624 37840696 
2763.713 37951192 38044564 38119724 38176520 38215056 38236040 38240416 
2767.088 38229276 38203908 38165992 38117808 38061708 38000404 37936544 
2770.464 37871936 37808020 37745740 37685568 37627968 37573736 37523412 
2773.839 37477536 37436256 37399596 37366916 37337884 37312172 37289644 
2777.214 37270076 37253036 37237260 37220760 37200800 37173836 37137092 
2780.589 37088012 37025148 36948480 36858984 36758652 36650268 36536864 
2783.965 36421580 36307120 36195860 36089088 35987928 35892692 35803376 
2787.340 35719908 35642712 35571792 35507528 35449928 35398988 35354380 
2790.715 35315848 35282856 35255224 35232296 35213644 35198408 35185440 
2794.090 35173548 35161944 35150012 35137944 35125728 35113660 35100724 
2797.466 35085784 35066780 35041492 35008016 34965244 34912672 34850984 
2800.841 34780876 34703096 34618436 34527156 34429912 34327052 34219632 
2804.216 34108584 33994908 33879328 33762816 33646296 33531170 33419080 
2807.591 33312310 33212542 33121276 33039178 32965750 32900478 32842546 
2810.967 32792016 32749534 32716628 32695118 32686476 32691692 32711126 
2814.342 32744422 32790766 32849588 32920100 33001676 33093814 33195984 
2817.717 33307768 33429134 33559700 33700112 33850888 34012824 34186828 
2821.092 34373492 34573188 34786256 35012220 35250764 35500696 35760812 
2824.468 36029468 36305352 36586968 36873304 37163656 37457132 37752896 
2827.843 38049520 38344892 38636848 38923344 39202380 39473104 39734992 
2831.218 39988680 40235068 40475520 40711776 40946012 41181028 41420364 
2834.593 41668148 41928804 42206492 42504708 42826356 43173376 43547120 
2837.969 43949380 44382328 44848876 45353628 45901092 46497452 47148436 
2841.344 47859660 48636124 49482036 50399920 51390984 52454556 53588248 
2844.719 54787636 56045760 57353744 58699812 60069852 61448464 62817296 
2848.094 64157888 65451272 66677548 67818120 68854832 69769888 70547512 
2851.469 71173096 71634216 71922192 72032232 71964336 71723824 71320872 
2854.845 70769896 70086920 69290448 68399016 67430448 66402764 65333256 
2858.220 64237708 63131928 62029532 60942584 59882044 58856756 57875180 
2861.595 56945228 56073732 55266824 54530152 53867604 53282248 52776172 
2864.970 52350444 52005240 51739508 51550940 51435292 51386436 51396728 
2868.346 51456556 51555192 51681620 51823464 51968304 52103924 52218292 
2871.721 52301296 52345140 52345624 52302864 52221620 52110536 51981336 
2875.096 51846980 51721256 51615640 51540420 51502252 51505164 51550528 
2878.471 51637472 51763880 51927412 52125856 52357472 52621524 52916952 
2881.847 53242544 53595820 53973056 54369280 54777488 55190704 55601260 
2885.222 56001920 56386688 56751440 57094280 57416328 57721356 58015916 
2888.597 58307876 58606252 58920124 59257580 59626844 60036368 60495256 
2891.972 61015560 61611788 62300492 63101812 64036644 65124756 66384428 
2895.348 67827072 69453952 71249456 73178664 75182464 77174376 79054776 
2898.723 80711976 82037200 82948448 83395024 83370856 82911744 82092840 
2902.098 81013696 79776864 78486016 77227968 76066352 75048104 74199800 
2905.473 73533784 73052648 72752136 72624632 72660192 72848912 73181488 
2908.849 73649224 74245208 74962800 75794680 76733192 77768448 78888968 
2912.224 80082952 81337240 82638968 83976368 85336968 86708520 88079112 
2915.599 89435544 90765488 92056792 93297688 94477384 95586256 96614968 
2918.974 97555816 98402160 99148720 99791992 100330200 100762312 101088288 
2922.350 101308760 101425096 101439696 101355584 101177536 100910680 
2925.243 100561032 100135088 99638952 99079616 98463584 97797296 97086896 
2928.618 96337296 95551816 94732112 93878584 92990104 92065032 91101408 
2931.993 90097032 89049256 87955384 86813280 85621864 84381872 83097432 
2935.368 81775888 80427096 79063952 77700328 76349656 75025888 73741840 
2938.744 72508680 71337496 70237976 69217936 68284032 67440320 66688208 
2942.119 66026428 65450384 64952060 64519808 64139760 63795456 63468920 
2945.494 63144304 62808148 62451544 62072112 61673684 61266124 60861804 
2948.869 60474996 60118328 59799976 59523240 59286024 59081816 58900504 
2952.245 58731332 58563972 58389320 58200536 57992968 57763248 57509064 
2955.620 57228604 56920108 56582500 56214908 55817524 55391440 54938468 
2958.995 54461112 53961576 53441776 52903104 52346068 51771496 51180160 
2962.370 50573584 49954472 49326292 48693608 48061252 47434252 46816676 
2965.746 46212400 45624236 45054624 44505760 43980176 43480536 43009856 
2969.121 42570856 42165780 41795884 41461624 41162448 40897552 40666000 
2972.496 40466828 40298724 40159468 40045036 39948612 39860784 39768724 
2975.871 39658208 39514728 39324428 39077252 38768264 38398208 37973932 
2979.247 37507480 37015656 36515636 36025040 35559204 35129212 34742180 
2982.622 34401036 34104460 33848200 33625672 33429314 33250280 33081296 
2985.997 32916706 32753822 32593566 32440156 32300040 32179668 32082870 
2989.372 32009818 31955034 31908922 31858216 31790298 31694942 31567362 
2992.748 31408756 31226886 31034132 30844204 30670536 30523846 30410076 
2996.123 30330834 30283938 30264824 30268128 30288946 30323908 30370702 
2999.498 30427952 30494520 30568460 30647352 30728004 30807316 30882766 
3002.873 30952786 31016802 31074778 31127242 31174374 31216064 31251490 
3006.249 31280260 31301484 31314768 31320002 31317152 31306114 31286884 
3009.624 31259358 31223326 31179286 31127742 31069686 31006340 30938908 
3012.999 30868892 30797570 30726474 30656952 30590500 30528006 30470388 
3016.374 30417716 30369920 30326714 30287774 30253102 30222694 30196764 
3019.750 30174990 30157302 30142954 30131376 30122214 30115252 30110742 
3023.125 30108788 30109428 30112448 30117136 30122852 30129422 30136702 
3026.500 30146008 30158368 30175204 30197368 30225110 30257862 30294880 
3029.875 30335242 30378200 30423402 30470494 30518868 30567998 30616634 
3033.250 30663816 30708834 30751688 30793016 30834422 30877714 30924678 
3036.626 30976698 31034488 31098020 31166934 31240488 31317938 31398426 
3040.001 31481280 31565436 31650248 31734866 31818748 31901434 31983246 
3043.376 32064464 32145772 32227520 32309894 32392886 32476074 32558992 
3046.751 32641608 32723378 32804844 32886290 32968070 33050548 33134044 
3050.127 33218268 33303116 33388268 33473152 33557084 33639352 33719304 
3053.502 33796372 33870696 33942560 34013180 34083640 34155108 34228524 
3056.877 34303564 34379700 34455952 34531532 34605952 34679800 34753844 
3060.252 34829228 34906676 34986144 35066888 35148004 35228556 35308340 
3063.628 35387632 35467512 35549280 35633720 35721168 35811112 35903092 
3067.003 35995956 36089628 36183756 36278660 36374740 36472356 36571612 
3070.378 36672548 36775708 36881384 36990152 37102552 37218884 37338824 
3073.753 37461824 37587972 37716864 37848940 37984820 38124716 38268716 
3077.129 38415728 38564420 38713272 38860980 39007580 39153792 39301068 
3080.504 39450572 39603248 39758812 39916100 40073560 40229688 40383692 
3083.879 40535572 40686156 40836792 40988868 41143616 41302244 41465272 
3087.254 41632992 41804932 41980080 42156872 42333072 42506540 42676120 
3090.630 42841164 43002500 43161664 43320812 43481560 43644784 43810708 
3094.005 43978968 44149088 44321372 44496512 44676092 44861808 45054992 
3097.380 45256280 45465528 45681584 45903156 46129008 46358408 46591500 
3100.755 46828748 47071216 47319880 47575308 47837500 48105668 48378592 
3104.131 48654728 48932560 49210828 49488532 49764484 50037856 50306568 
3107.506 50568296 50820388 51060032 51285000 51494044 51687292 51865464 
3110.881 52030152 52182760 52324056 52454144 52572120 52676696 52766372 
3114.256 52839708 52895808 52934208 52955132 52959248 52947944 52923016 
3117.632 52886376 52839896 52785076 52722520 52652380 52574252 52487756 
3121.007 52393208 52292100 52186344 52079348 51973904 51872744 51777396 
3124.382 51688672 51606944 51532320 51465472 51407392 51359392 51322436 
3127.757 51297004 51282988 51279632 51286044 51301520 51325756 51358872 
3131.133 51401016 51452412 51513036 51582616 51660644 51746672 51840412 
3134.508 51941080 52047744 52159072 52273676 52389956 52506940 52624328 
3137.883 52742424 52862012 52983876 53108624 53236292 53366580 53498816 
3141.258 53633084 53769300 53907928 54049188 54193348 54340216 54488868 
3144.634 54638696 54788876 54939336 55089996 55241084 55392752 55544964 
3148.009 55697228 55849208 56000712 56152044 56303692 56456640 56611148 
3151.384 56767072 56923240 57078256 57230268 57378248 57522040 57662588 
3154.759 57801404 57940260 58080644 58223000 58367224 58512484 58657824 
3158.135 58802804 58947296 59092368 59239124 59388468 59541060 59696940 
3161.510 59854888 60013772 60171796 60327560 60479872 60628656 60773912 
3164.885 60916584 61057588 61198024 61338204 61478428 61618312 61757672 
3168.260 61895740 62032552 62168108 62302404 62435820 62568172 62699108 
3171.635 62828212 62954784 63078636 63199720 63318692 63435980 63551912 
3175.011 63666300 63778416 63886844 63990688 64089140 64182816 64272432 
3178.386 64359852 64446740 64534492 64623924 64714828 64806908 64899200 
3181.761 64990700 65080872 65168984 65254612 65337644 65418064 65496384 
3185.136 65573408 65650060 65726960 65803944 65880560 65955332 66026852 
3188.512 66094084 66156864 66215940 66272752 66329336 66387244 66447788 
3191.887 66511192 66577152 66644788 66713168 66780976 66846944 66908940 
3195.262 66965768 67015984 67059092 67095988 67128312 67158168 67187952 
3198.637 67218352 67248944 67278432 67304544 67325472 67340912 67351976 
3202.013 67360800 67370280 67382776 67399728 67421352 67446712 67474104 
3205.388 67501624 67527672 67550240 67568280 67580592 67587096 67588640 
3208.763 67587328 67585584 67586240 67591320 67601384 67615008 67629840 
3212.138 67642880 67651760 67655664 67655552 67653384 67652096 67653456 
3215.514 67658568 67667008 67677264 67687728 67696752 67703368 67707400 
3218.889 67709176 67709216 67708632 67708520 67710112 67714872 67723776 
3222.264 67737448 67756120 67779008 67804760 67831872 67858984 67885056 
3225.639 67909656 67932984 67955416 67977624 68000288 68023968 68049544 
3229.015 68077248 68107680 68140976 68177064 68215520 68255880 68297688 
3232.390 68340336 68383696 68427016 68470192 68513104 68555312 68597136 
3235.765 68638896 68681312 68725096 68770704 68818224 68867648 68918632 
3239.140 68970824 69024344 69079696 69137192 69197152 69258864 69321240 
3242.516 69382848 69442408 69499256 69554048 69607984 69663296 69721576 
3245.891 69783784 69849584 69918008 69987480 70056864 70125472 70193384 
3249.266 70261392 70329872 70399152 70468976 70538624 70607264 70674208 
3252.641 70739208 70802424 70864208 70925136 70985576 71045632 71105376 
3256.017 71164464 71221968 71276976 71328520 71375424 71417168 71453768 
3259.392 71485992 71515088 71542712 71570184 71598232 71626520 71654536 
3262.767 71680760 71704136 71723824 71739584 71751544 71760056 71765688 
3266.142 71769016 71770264 71769992 71768424 71765656 71761704 71755720 
3269.518 71746656 71732744 71712264 71683808 71646056 71598976 71542552 
3272.893 71477592 71405216 71326680 71243408 71156824 71068768 70981240 
3276.268 70895960 70814088 70736208 70661968 70590008 70518552 70445632 
3279.643 70369928 70290760 70208256 70123440 70037360 69951400 69866360 
3283.019 69783120 69701960 69623352 69547080 69473128 69400968 69330056 
3286.394 69259440 69188904 69118392 69048776 68981504 68918440 68860816 
3289.769 68809416 68763368 68721016 68680152 68639248 68597416 68555120 
3293.144 68514032 68475784 68441992 68412672 68387072 68363960 68341960 
3296.520 68320640 68300432 68283104 68270192 68263136 68262544 68268096 
3299.895 68279536 68296792 68320560 68352360 68393552 68445176 68506544 
3303.270 68575144 68647392 68718960 68785920 68845432 68896344 68938904 
3306.645 68973976 69003376 69029160 69053552 69079000 69107976 69142712 
3310.021 69184560 69234336 69291464 69354584 69422656 69494584 69570800 
3313.396 69651552 69737792 69829704 69926288 70025552 70124688 70221120 
3316.771 70313040 70399848 70482152 70561472 70638960 70715584 70791312 
3320.146 70865616 70938136 71008328 71076144 71142144 71206784 71270536 
3323.521 71333208 71394240 71452560 71506776 71555568 71598040 71633520 
3326.897 71662080 71684240 71701160 71713512 71722224 71726992 71727072 
3330.272 71721368 71708784 71689048 71662712 71630936 71595688 71557560 
3333.647 71516696 71471576 71420568 71361280 71292360 71213112 71124032 
3337.022 71025960 70919368 70804224 70679400 70544008 70397120 70238872 
3340.398 70070216 69892632 69707760 69516592 69319872 69117648 68909656 
3343.773 68696144 68477648 68254752 68028224 67798680 67566496 67332208 
3347.148 67096948 66862292 66630268 66402456 66180168 65963476 65751360 
3350.523 65542540 65335720 65130300 64926976 64727060 64532228 64343752 
3353.899 64162344 63988000 63820444 63659696 63506036 63360944 63225700 
3357.274 63101924 62990368 62890516 62801064 62719972 62644988 62573836 
3360.649 62504804 62437200 62371288 62308060 62249436 62197736 62155184 
3364.024 62123184 62102580 62092640 62092524 62100172 62114624 62134464 
3367.400 62159312 62188484 62221104 62255284 62289092 62319576 62344704 
3370.775 62363176 62374576 62379624 62379624 62375804 62368536 62357824 
3374.150 62342292 62320456 62289972 62248136 62191656 62117528 62022196 
3377.525 61902884 61757140 61583684 61381900 61151756 60893520 60607512 
3380.901 60293752 59952408 59583816 59188960 58769568 58328340 57868628 
3384.276 57394204 56908888 56416492 55920472 55423660 54928732 54437484 
3387.651 53951068 53470336 52994812 52524032 52056336 51590228 51123988 
3391.026 50656716 50188800 49721608 49257884 48801036 48353888 47918448 
3394.402 47494940 47082220 46678304 46281064 45889236 45503168 45123880 
3397.777 44752668 44389592 44033272 43679628 43323488 42959588 42583648 
3401.152 42194224 41792892 41384024 40972736 40564456 40163028 39770248 
3404.527 39386244 39009536 38638552 38271864 37908596 37548376 37191344 
3407.903 36837776 36488208 36143316 35803880 35470892 35144696 34825280 
3411.278 34511768 34202212 33894552 33586904 33278860 32971148 32666612 
3414.653 32369040 32081910 31807836 31547762 31300240 31062640 30831326 
3418.028 30603052 30375110 30146292 29916174 29685330 29454676 29225280 
3421.404 28998486 28775738 28558308 28347952 28145618 27951400 27764650 
3424.779 27583348 27405086 27227248 27048250 26867210 26684944 26502648 
3428.154 26322082 26144794 25971516 25802038 25635472 25470410 25305654 
3431.529 25140754 24975494 24810436 24646388 24483874 24323594 24165686 
3434.905 24009900 23855816 23702940 23550680 23399274 23248624 23099280 
3438.280 22951528 22805640 22661408 22518096 22374866 22231230 22086980 
3441.655 21942846 21800258 21661340 21527618 21399924 21277246 21157488 
3445.030 21036860 20912300 20781416 20643692 20501080 20357436 20217450 
3448.406 20084972 19962144 19849130 19743634 19642430 19541906 19439502 
3451.781 19333900 19225032 19113768 19001632 18889628 18778346 18668270 
3455.156 18559984 18453524 18349368 18247936 18149186 18052532 17956900 
3458.531 17860978 17763388 17663436 17561196 17457636 17354066 17252070 
3461.906 17153238 17058562 16968488 16882844 16801006 16722143 16645014 
3465.282 16568763 16492283 16415127 16337058 16258348 16179342 16100248 
3468.657 16021170 15942104 15862744 15783021 15703278 15624340 15547064 
3472.032 15472481 15401034 15332379 15265691 15199426 15132312 15063666 
3475.407 14993486 14922427 14851722 14782433 14715487 14651225 14589439 
3478.783 14530060 14472471 14416669 14362178 14308959 14257083 14206821 
3482.158 14158997 14114360 14074555 14040672 14013295 13992284 13976270 
3485.533 13963199 13950710 13936716 13920293 13900998 13880060 13859125 
3488.908 13839934 13824370 13813082 13807029 13806105 13810380 13819615 
3492.284 13833606 13851736 13873697 13898774 13926759 13957108 13989924 
3495.659 14025410 14064389 14107994 14157183 14213257 14277251 14349677 
3499.034 14430747 14519576 14615037 14715385 14819082 14924793 15032141 
3502.409 15141816 15255326 15375013 15503487 15642751 15794497 15959119 
3505.785 16135735 16322127 16515892 16713224 16911472 17108638 17304684 
3509.160 17501686 17703504 17914046 18136750 18372562 18620020 18876030 
3512.535 19135962 19395844 19653176 19907262 20158790 20409074 20659226 
3515.910 20909276 21158394 21405598 21649254 21888272 22121180 22345738 
3519.286 22558788 22755358 22930080 23077932 23194794 23278756 23329868 
3522.661 23350112 23342316 23309136 23252364 23172776 23069650 22941398 
3526.036 22786226 22602382 22389344 22148028 21881094 21592732 21287512 
3529.411 20970298 20644944 20314240 19979802 19642672 19304004 18964664 
3532.787 18625346 18286054 17946160 17604636 17260276 16913056 16564323 
3536.162 16217003 15875289 15543183 15223583 14917420 14623912 14341047 
3539.537 14066682 13799093 13537752 13282616 13033912 12791628 12554699 
3542.912 12321511 12090187 11858917 11626715 11393821 11161766 10933232 
3546.288 10712054 10501849 10306030 10126477 9962797 9812565 9670923 9532545 
3550.145 9391570 9244073 9087695 8923527 8754991 8586656 8423488 8269565 
3554.002 8126872 7996275 7877020 7767815 7666564 7570832 7478154 7385800 
3557.860 7291477 7194042 7093227 6990247 6886719 6784764 6686366 6592397 
3561.717 6503728 6420593 6342887 6270170 6201296 6133442 6062641 5983689 
3565.575 5891349 5782946 5659429 5526920 5394687 5272890 5169167 5086488 
3569.432 5022897 4973023 4929857 4887466 4841695 4790334 4733519 4672056 
3573.290 4607822 4541891 4475567 4409455 4344490 4280907 4219274 4159356 
3577.147 4100951 4043423 3986439 3930364 3875634 3823184 3774316 3729665 
3581.004 3689697 3654711 3624739 3599915 3580204 3565003 3552342 3538813 
3584.862 3519906 3489811 3443786 3379500 3298062 3204790 3108568 3018706 
3588.719 2942774 2885066 2845442 2820962 2806522 2796784 2787147 2773708 
3592.577 2753901 2726926 2693451 2654978 2614375 2574310 2536980 2503087 
3596.434 2472928 2445038 2418148 2390528 2361177 2329429 2295985 2261544 
3600.292 2228005 2197666 2172090 2152810 2140190 2133197 2130134 2128469 
3604.149 2125972 2120611 2111622 2098703 2082522 2063678 2042938 2020801 
3608.006 1997200 1972668 1947938 1923875 1900845 1878782 1856320 1831896 
3611.864 1803580 1771009 1735112 1698720 1665524 1638550 1619426 1607254 
3615.721 1598773 1589462 1574198 1548759 1510487 1459086 1397221 1329914 
3619.579 1263115 1203802 1156558 1124067 1105930 1099950 1102641 1110414 
3623.436 1120945 1133768 1149747 1170578 1196792 1226330 1253378 1268365 
3627.293 1259194 1216694 1137887 1031427 916094 814236 741708 702844 691726 
3631.633 697268 707557 713331 709614 696140 676162 654127 634118 618190 
3635.973 605913 595893 586669 577147 567526 558103 548913 539425 528146 
3640.312 514146 496996 478155 460044 446545 440806 445284 460475 484988 
3644.652 515938 549842 582057 608369 624263 625988 609729 573464 516435 
3648.991 441005 353253 261937 178562 113797 74823 64185 78634 111112 151250 
3653.813 188208 212540 217015 200009 165138 121884 81119 51195 36051 34195 
3658.635 40292 47980 52951 52122 45230 33632 19350 4605 -8946 -19780 -26307 
3663.939 -27500 -22066 -9575 9277 32969 58651 82743 100739 108428 101269 
3668.761 76612 34957 -17759 -70702 -110620 -126255 -112707 -72491 -15804 
3673.100 42181 85162 96265 65245 -6726 -103962 -201441 -277309 -320188 
3677.440 -332604 -324691 -309394 -296084 -288898 -287872 -289759 -290852 
3681.297 -288932 -284329 -278501 -272640 -266382 -257441 -242738 -220550 
3685.155 -191373 -159544 -131025 -113303 -111647 -128309 -160405 -201772 
3689.012 -245288 -285422 -320619 -351476 -379219 -404312 -425001 -438804 
3692.870 -444067 -440856 -431621 -419936 -409939 -404510 -404146 -407456 
3696.727 -410932 -411131 -405768 -394281 -378755 -363063 -351840 -349357 
3700.584 -358594 -379219 -408714 -441386 -470447 -490471 -497487 -490868 
3704.442 -472433 -445689 -414441 -381768 -349787 -318500 -287442 -255785 
3708.299 -223795 -193393 -168122 -152787 -152290 -169149 -203527 -250719 
3712.157 -303600 -353131 -391931 -415467 -423279 -418546 -406331 -392758 
3716.014 -383555 -382264 -389713 -404245 -421426 -436255 -444530 -444497 
3719.872 -437149 -425630 -413878 -405305 -401365 -401299 -403021 -404411 
3723.729 -404411 -403782 -404709 -409476 -419241 -432746 -446450 -454824 
3727.586 -453401 -439267 -412852 -377497 -338829 -303434 -276647 -261746 
3731.444 -259030 -265157 -275488 -285057 -293236 -301779 -316149 -341444 
3735.301 -379980 -428973 -481170 -526313 -556394 -567612 -560134 -537168 
3739.159 -502716 -459657 -410204 -355780 -299196 -246016 -204852 -187630 
3743.016 -205448 -263865 -355846 -460153 -546930 -592694 -590775 -549875 
3746.874 -487062 -420433 -366043 -334359 -330287 -352204 -393917 -447344 
3750.731 -504901 -561159 -611918 -652449 -677261 -682223 -665881 -631373 
3754.588 -585315 -536274 -492324 -459756 -440988 -435229 -439333 -449561 
3758.446 -463231 -479284 -496924 -514763 -529457 -536638 -532303 -515326 
3762.303 -488187 -456545 -427980 -409078 -403981 -411958 -428410 -445953 
3766.161 -458101 -461676 -457671 -450852 -446516 -449859 -463364 -486069 
3770.018 -514002 -542065 -565494 -581278 -588724 -588724 -583165 -574098 
3773.875 -562814 -550504 -536804 -521614 -504636 -486433 -468957 -455155 
3777.733 -448105 -450223 -461510 -479615 -499043 -514267 -521283 -519231 
3781.590 -510494 -499572 -491662 -490107 -495534 -506125 -518337 -528828 
3785.448 -535414 -538028 -538359 -538392 -539451 -541668 -543687 -544647 
3789.305 -544150 -542429 -540477 -539087 -537796 -535414 -529655 -518966 
3793.163 -503246 -484944 -467964 -457108 -455983 -465019 -481468 -498745 
3797.020 -509666 -508938 -494508 -469321 -440459 -418016 -411859 -429536 
3800.877 -472565 -533395 -596665 -644806 -665748 -655724 -620157 -570359 
3804.735 -521283 -486631 -476570 -494707 -536373 -588657 -636072 -666377 
3808.592 -674681 -663466 -639115 -608610 -577175 -546566 -516517 -485407 
3812.450 -452805 -420433 -393222 -376670 -377166 -397227 -434236 -478721 
3816.307 -517775 -539352 -537333 -512711 -473392 -431555 -399743 -390077 
3820.165 -410469 -460418 -530119 -601727 -657477 -685267 -683017 -656551 
3824.022 -616749 -575124 -540874 -519429 -511056 -512148 -515822 -516120 
3827.879 -509699 -496527 -479516 -462437 -449363 -441717 -439830 -441386 
3831.737 -443769 -444034 -439797 -429999 -414507 -394844 -373491 -354654 
3835.594 -343199 -343695 -359355 -389878 -431191 -475941 -515690 -544183 
3839.452 -559042 -561556 -556659 -549577 -544812 -544647 -550041 -559439 
3843.309 -571087 -582304 -590742 -594613 -593091 -585547 -572642 -555203 
3847.167 -533792 -508773 -479350 -444133 -401465 -350979 -294693 -238863 
3851.024 -193029 -169580 -181271 -235486 -328664 -443372 -554541 -639843 
3854.881 -688741 -703991 -694695 -671439 -641431 -608676 -574793 -540311 
3858.739 -506092 -474021 -446781 -426225 -413084 -405967 -402292 -400008 
3862.596 -398783 -400637 -408284 -423643 -445060 -466938 -481535 -481899 
3866.454 -465681 -436520 -403120 -376372 -366705 -379848 -413614 -458134 
3870.311 -498646 -524096 -530019 -520985 -506191 -496064 -497752 -513174 
3874.168 -537796 -563079 -579359 -579359 -560630 -525883 -481204 -434567 
3878.026 -394182 -367268 -358726 -369552 -395705 -430131 -461874 -481435 
3881.883 -483024 -466309 -436123 -401200 -372333 -359256 -367897 -397592 
3885.741 -440194 -483653 -514531 -525122 -514267 -486896 -451382 -417751 
3889.598 -394943 -388753 -400736 -427748 -462636 -497355 -524096 -538756 
3893.456 -540212 -529655 -509435 -482296 -451018 -417652 -384813 -354919 
3897.313 -330022 -312242 -302607 -300951 -305852 -315387 -327505 -340947 
3901.170 -356342 -374915 -398353 -427384 -461080 -496064 -528100 -552357 
3905.028 -565693 -567711 -560266 -546665 -530648 -515094 -501525 -490206 
3908.885 -480707 -471705 -462801 -453533 -443471 -432713 -420532 -406165 
3912.743 -388786 -368195 -345450 -322109 -301580 -286448 -279064 -280554 
3916.600 -290024 -305123 -322870 -340418 -355515 -366903 -374154 -376471 
3920.458 -374054 -366374 -354091 -338299 -321380 -306646 -297011 -294528 
3924.315 -299196 -309328 -321479 -331412 -336478 -335153 -328201 -317672 
3928.172 -306381 -296746 -290389 -287971 -289362 -293965 -301216 -310057 
3932.030 -319923 -329558 -337438 -342338 -343530 -341312 -336941 -332472 
3935.887 -329955 -330849 -335253 -342040 -349125 -353992 -355151 -352370 
3939.745 -346642 -339756 -333995 -330849 -330485 -332141 -333796 -333068 
3943.602 -328168 -318533 -304428 -287640 -270720 -255984 -245586 -241049 
3947.459 -242109 -248036 -257010 -267276 -277309 -286051 -293402 -299594 
3951.317 -304660 -308103 -309129 -307044 -301017 -291481 -278965 -265355 
3955.174 -251845 -239128 -227107 -215052 -201606 -186239 -169215 -151826 
3959.032 -136391 -124599 -118007 -117079 -120756 -127613 -135629 -143281 
3962.889 -149441 -153383 -154675 -153019 -148150 -140035 -128839 -115655 
3966.747 -101113 -86504 -73087 -60995 -50228 -40521 -31376 -22563 -14280 
3971.086 -6461 463 6229 11066 14844 18058 20808 23227 25480 27866 31345 
3976.390 35885 42082 49770 58651 67764 76480 84102 90167 94972 98286 100606 
3981.694 101766 101766 100440 97822 94044 89471 84665 79992 75883 72370 
3986.516 69421 66969 65212 64052 63489 63820 64815 66438 68692 71277 73795 
3991.820 76148 77573 77341 75187 71078 65312 58883 52719 47516 44070 42082 
3997.124 41055 40524 40127 39663 39166 38867 38669 38404 
##END=
