
##TITLE=mdmaHCL00399_6
##JCAMP-DX=5.01  $$ Nicolet v. 1
##DATATYPE=INFRARED SPECTRUM
##ORIGIN=UniL
##OWNER=Nicolet
##LONGDATE=2011/08/24
##TIME=10:43:42
##SPECTROMETER/DATA SYSTEM=Nicolet iS5
##DATA PROCESSING=
Ratio against background
%Transmittance->Absorbance
Truncated
ElementMultiply or ElementDivide
##COMMENTS=
Number of sample scans: 32
Collection length: 51.19 sec
Sample gain: 2.0
Background collected on: Mer Aout 24 10:42:00 2011 (GMT+02:00);
Number of background scans: 32
Background gain: 2.0
Sample spacing:  1.000
Number of scan points: 12415
Resolution points: 8192
Number of FFT points: 65536
Apodization: N-B fort;
Phase correction: Mertz;
Laser frequency: 15798.0 cm-1
Number of rejected sample scans: 0
Number of rejected background scans: 0
Bench serial number: ASB1000141;
##RESOLUTION=4.000
##XUNITS=1/CM
##YUNITS=ABSORBANCE
##FIRSTX=649.893372
##LASTX=4000.122314
##FIRSTY=0.125232
##MAXX=4000.122314
##MINX=649.893372
##MAXY=0.315524
##MINY=-0.001979
##XFACTOR=1.000000
##YFACTOR=1.000000E-009
##NPOINTS=6950
##DELTAX=0.482117
##ZPD=6100
##XYDATA=(X++(Y..Y))
649.893 125232440 124223848 123332456 122559040 121891584 121315904 
652.786 120823208 120413400 120094136 119875752 119765992 119767904 
655.679 119878024 120087672 120384768 120754472 121182120 121651192 
658.571 122143064 122640904 123131576 123610016 124080840 124559008 
661.464 125063208 125609800 126208080 126854840 127536728 128231064 
664.357 128912088 129554944 130132080 130618216 130993560 131256344 
667.250 131437256 131609440 131868600 132277968 132845640 133523736 
670.142 134240016 134921376 135511520 135982736 136331232 136577248 
673.035 136748992 136870864 136949552 136973456 136921584 136777328 
675.928 136540768 136229696 135871456 135489392 135094320 134680896 
678.820 134234688 133742376 133201032 132619304 132012504 131393120 
681.713 130766584 130131048 129483504 128825736 128168704 127527984 
684.606 126917856 126342832 125796032 125263168 124733048 124205152 
687.498 123693712 123222736 122815712 122486328 122232536 122040104 
690.391 121890432 121772888 121687936 121649528 121675352 121781568 
693.284 121976520 122261160 122634968 123103024 123679040 124384384 
696.177 125239704 126253728 127415016 128690016 130028728 131370440 
699.069 132661448 133864064 134959648 135949664 136850288 137687440 
701.962 138490416 139288592 140109152 140970768 141881200 142833344 
704.855 143808816 144779904 145718704 146606352 147435136 148208752 
707.747 148937184 149630128 150291440 150921120 151519024 152091136 
710.640 152652176 153225632 153835312 154498528 155221104 155994944 
713.533 156802000 157617872 158418192 159179024 159876736 160490176 
716.425 161003216 161411408 161728640 161992848 162262512 162599264 
719.318 163060784 163680240 164459360 165371488 166369680 167401008 
722.211 168409088 169342400 170152384 170791808 171223408 171429920 
725.104 171426032 171261984 171019152 170794368 170667216 170689888 
727.996 170877584 171217904 171687952 172273968 172980512 173826688 
730.889 174834368 176011856 177349440 178824624 180417952 182127520 
733.782 183978752 186016304 188291840 190840608 193670832 196763712 
736.674 200085536 203599856 207275632 211087168 215002224 218975296 
739.567 222958896 226921104 230878528 234904288 239114304 243597520 
742.460 248326480 253059328 257299744 260376416 261505728 260059600 
745.352 255759600 248764192 239648000 229230720 218434160 208031536 
748.245 198589552 190452704 183732144 178385664 174271856 171213520 
751.138 169024832 167538064 166628896 166214048 166264288 166800688 
754.031 167880304 169562864 171869728 174742352 178015376 181430192 
756.923 184635936 187273600 189040544 189726352 189269120 187748544 
759.816 185371392 182409440 179163504 175924112 172911792 170285312 
762.709 168132016 166472544 165279440 164490288 164028672 163810528 
765.601 163759024 163816144 163938688 164103120 164300336 164530400 
768.494 164796560 165102816 165456272 165871280 166377408 167026144 
771.387 167881904 169008000 170440592 172156288 174047856 175912688 
774.279 177495552 178512144 178722896 178006448 176378448 173995520 
777.172 171090080 167925888 164716272 161577488 158531152 155515808 
780.065 152432496 149179104 145693920 141968064 138045280 134004072 
782.958 129938168 125944432 122099832 118463688 115077968 111967064 
785.850 109144848 106615720 104375920 102414552 100715936 99264464 98047712 
789.225 97060264 96304536 95787392 95517096 95499392 95737696 96233736 
792.600 96989008 98004568 99275712 100784000 102484616 104304384 106135992 
795.975 107837816 109259120 110241672 110636352 110331544 109254816 
798.867 107389624 104778376 101522824 97774432 93708296 89525280 85419160 
802.242 81551432 78054088 75005848 72435624 70334088 68664816 67380568 
805.617 66430024 65767588 65351508 65140732 65096692 65180920 65353012 
808.992 65576032 65810964 66017164 66155552 66187040 66077768 65806992 
812.367 65368728 64775252 64052776 63239388 62374884 61493772 60625572 
815.742 59791080 59005592 58282376 57631748 57060800 56571892 56161588 
819.116 55821892 55543496 55320300 55150864 55038880 54990404 55010860 
822.491 55103196 55268216 55506784 55822756 56222904 56714968 57300920 
825.866 57970892 58695868 59428740 60108968 60665464 61033140 61161708 
829.241 61021400 60611168 59956940 59109984 58134804 57104256 56090512 
832.616 55150864 54327000 53640316 53092488 52671348 52357844 52133664 
835.990 51983168 51895260 51861768 51873044 51917592 51982756 52055924 
839.365 52128172 52195912 52259476 52321740 52385320 52451416 52519952 
842.740 52591120 52667608 52754732 52860104 52991068 53152624 53346684 
846.115 53572840 53830772 54121920 54450068 54820340 55236948 55700544 
849.490 56208120 56753632 57329960 57932500 58558660 59207604 59878812 
852.865 60570180 61277572 61996664 62723920 63458988 64205244 64968644 
856.239 65754712 66567420 67408200 68276088 69170416 70092288 71046136 
859.614 72039704 73082632 74184008 75351784 76589216 77894376 79256112 
862.989 80652968 82051296 83402576 84651000 85738544 86612816 87241336 
866.364 87617552 87768632 87750784 87649008 87568704 87613904 87889864 
869.739 88488752 89479640 90912272 92807656 95154936 97902560 100953400 
873.113 104167816 107347232 110258888 112655472 114284184 114945312 
876.006 114515352 112967504 110379128 106917944 102821792 98343848 93739752 
879.381 89238592 85008456 81170168 77792344 74898552 72484488 70526312 
882.756 68989280 67829160 66996188 66438592 66100800 65932544 65892512 
886.131 65948932 66084288 66293368 66581748 66962444 67452936 68072568 
889.505 68837984 69761568 70848728 72097864 73502224 75052712 76743824 
892.880 78576608 80561448 82715080 85058472 87606080 90356104 93276200 
896.255 96291968 99283712 102070536 104433904 106142088 106966464 106744032 
899.630 105402336 102980360 99623160 95564168 91096712 86505080 82053408 
903.005 77952688 74333232 71266280 68766632 66811548 65356708 64347820 
906.379 63732408 63458332 63480884 63767060 64292804 65046968 66028348 
909.754 67241872 68692608 70380248 72292640 74402128 76659616 78987320 
913.129 81287176 83436224 85297088 86747688 87688504 88068880 87898672 
916.504 87250248 86250600 85051016 83821048 82715328 81850216 81307872 
919.879 81122672 81286256 81751888 82444384 83272712 84136400 84951320 
923.254 85660320 86244096 86727216 87173608 87679176 88346152 89276360 
926.628 90552416 92221152 94287104 96697384 99342104 102033816 104519416 
930.003 106516208 107713520 107845672 106744200 104363496 100810496 96322200 
933.378 91246632 85957504 80804880 76087904 72000440 68647552 66056936 
936.753 64198448 63010060 62415352 62342256 62719972 63476280 64535728 
940.128 65800824 67151552 68457392 69574464 70375304 70772864 70728840 
943.502 70266688 69461968 68433152 67308528 66205100 65217616 64401044 
946.877 63777840 63345528 63087256 62979988 62999672 63124344 63331960 
950.252 63599588 63906416 64232328 64561024 64882420 65191472 65487988 
953.627 65775684 66061064 66352768 66661016 66997772 67374648 67801384 
957.002 68284776 68827696 69430160 70090264 70806760 71580176 72412760 
960.377 73307976 74269344 75299840 76401480 77576632 78829216 80164632 
963.751 81590688 83116688 84751272 86502696 88376776 90377520 92505344 
967.126 94757504 97126680 99598360 102151008 104754384 107366712 109940680 
970.501 112422768 114755872 116889416 118778968 120391232 121707536 
973.394 122722168 123442992 123888824 124090624 124089176 123929232 
976.286 123662344 123339496 123006504 122708496 122486200 122377664 
979.179 122423648 122665776 123146176 123909576 124997144 126447144 
982.072 128293064 130559448 133259832 136389600 139921712 143792992 
984.964 147892752 152069264 156111200 159762928 162765424 164857664 
987.857 165831376 165567440 164045936 161360944 157700080 153339472 
990.750 148590432 143759856 139141488 134962272 131380752 128495200 
993.643 126339736 124905824 124155232 124036528 124492584 125467704 
996.535 126915592 128795208 131072416 133720280 136712512 140021088 
999.428 143613632 147440352 151429040 155483232 159467168 163218864 
1002.321 166567296 169335008 171379472 172610544 173005488 172618368 
1005.213 171576320 170074000 168331808 166585968 165063360 163941872 
1008.106 163358096 163398784 164102592 165477648 167512048 170187296 
1010.999 173485040 177393216 181907952 187030816 192768784 199132160 
1013.891 206128992 213758576 221998048 230773584 239944240 249275936 
1016.784 258411920 266921872 274319360 280128352 284003360 285778336 
1019.677 285531776 283563808 280380672 276610368 272861568 269711808 
1022.570 267603488 266799216 267412128 269401440 272620704 276836512 
1025.462 281780000 287177696 292737824 298186176 303260256 307698336 
1028.355 311278784 313828320 315245792 315523776 314747648 313086016 
1031.249 310746400 307965216 304973920 301959872 299070560 296385216 
1034.142 293905568 291551840 289168160 286555424 283479584 279729056 
1037.035 275152192 269665472 263274096 256056256 248148848 239717424 
1039.928 230941808 222009872 213089920 204334752 195876688 187812528 
1042.821 180218880 173155824 166668640 160802560 155601408 151100656 
1045.714 147328896 144299376 142007440 140433312 139545056 139305488 
1048.607 139671632 140600944 142050944 143975408 146328144 149063216 
1051.500 152132848 155495184 159111296 162942592 166949728 171081088 
1054.393 175262400 179399328 183365120 187007888 190173440 192704432 
1057.286 194466928 195371312 195377760 194512592 192866960 190604960 
1060.179 187942336 185120288 182404080 180034272 178212928 177106000 
1063.072 176820304 177413344 178895040 181231040 184344272 188113120 
1065.965 192390464 196993552 201717712 206366672 210744784 214679312 
1068.858 218035824 220702880 222597936 223664112 223862016 223175552 
1071.751 221612976 219209920 216028832 212156944 207713568 202841488 
1074.645 197710064 192522848 187487952 182818096 178717856 175349024 
1077.538 172839312 171272544 170682688 171059232 172340080 174417248 
1080.431 177118464 180211840 183432048 186467776 189017136 190838032 
1083.324 191766080 191765040 190927296 189471696 187694448 185927984 
1086.217 184518880 183753632 183850016 184936944 187036016 190066160 
1089.110 193843312 198117296 202569216 206845664 210621728 213595104 
1092.003 215535184 216306672 215860464 214239152 211554608 207980800 
1094.896 203719488 198969200 193921328 188727024 183495376 178304032 
1097.789 173198576 168206784 163347728 158633504 154072992 149672784 
1100.682 145438592 141379856 137514384 133867952 130478008 127389432 
1103.575 124645752 122290888 120363032 118891136 117900272 117408448 
1106.468 117427632 117964480 119019328 120586440 122652768 125199064 
1109.361 128198296 131611016 135387424 139460128 143736800 148107904 
1112.254 152434848 156553808 160298608 163497696 165996336 167681456 
1115.147 168480032 168372912 167390288 165610672 163148624 160136224 
1118.041 156721568 153041584 149209232 145316304 141423760 137570992 
1120.934 133787272 130097208 126527208 123109176 119875488 116859664 
1123.827 114095800 111614536 109448016 107629664 106190320 105160864 
1126.720 104568064 104430912 104760912 105559568 106817592 108511320 
1129.613 110602328 113038120 115743080 118625496 121579816 124482608 
1132.506 127215248 129673464 131779816 133504704 134870464 135953648 
1135.399 136865360 137740816 138716112 139894128 141337280 143048160 
1138.292 144970800 146990016 148947136 150671488 151982416 152724736 
1141.185 152788672 152106512 150663936 148490464 145654384 142250400 
1144.078 138390784 134206624 129826456 125375656 120972072 116709392 
1146.971 112663976 108893696 105434520 102307736 99520192 97066184 94930712 
1150.346 93093024 91531672 90225488 89157096 88312816 87680312 87248584 
1153.722 87006864 86945096 87054800 87330456 87769640 88372592 89140864 
1157.097 90076568 91181640 92457704 93907168 95532912 97338232 99324944 
1160.472 101491856 103831576 106327440 108954248 111672376 114429008 
1163.365 117162112 119794104 122240480 124416632 126234216 127615360 
1166.258 128498272 128838928 128620696 127853736 126575544 124841648 
1169.151 122721416 120292488 117628984 114804424 111889336 108944328 
1172.044 106025168 103179104 100440880 97838760 95393304 93119664 91030600 
1175.420 89135816 87440504 85945992 84648384 83540672 82614232 81861616 
1178.795 81277744 80859520 80604456 80509088 80566480 80766920 81097240 
1182.170 81541480 82083552 82706544 83393416 84129600 84902320 85702336 
1185.545 86525824 87373560 88249472 89157872 90099480 91067328 92045528 
1188.921 93006448 93914904 94732528 95420176 95947216 96294736 96458792 
1192.296 96451560 96300360 96046936 95738152 95424840 95155144 94965720 
1195.671 94882760 94918592 95072568 95333504 95680664 96085880 96510104 
1199.046 96904008 97211312 97365888 97303120 96969408 96327000 95366184 
1202.422 94106864 92599120 90912848 89130160 87340224 85621536 84043224 
1205.797 82659728 81504336 80592928 79923680 79481656 79241600 79173560 
1209.172 79248232 79435816 79708744 80042664 80413576 80800848 81188736 
1212.547 81566584 81931992 82290144 82653600 83038576 83462840 83943928 
1215.923 84495248 85126752 85843992 86647232 87532304 88489768 89506960 
1219.298 90567928 91655640 92755560 93855632 94949104 96033960 97113544 
1222.673 98194696 99286416 100399720 101545688 102733928 103972240 105263784 
1226.048 106605392 107985560 109385392 110779200 112135912 113426016 
1228.941 114622496 115704064 116658408 117480440 118173120 118746736 
1231.834 119220456 119623824 119993712 120377768 120827672 121391704 
1234.728 122114752 123029512 124154392 125494240 127039568 128767656 
1237.621 130641224 132611128 134616064 136580064 138423776 140064272 
1240.514 141420512 142426016 143025776 143179360 142862432 142063408 
1243.407 140785664 139048560 136890208 134367056 131546064 128507944 
1246.300 125336840 122114752 118929352 115864680 112997888 110399720 
1249.193 108118320 106173992 104553304 103209744 102068056 101032088 
1252.086 100008472 98912936 97686080 96303960 94776960 93148368 91480296 
1255.461 89848512 88325968 86967272 85806280 84847536 84069160 83424656 
1258.836 82852400 82285456 81653144 80895480 79967264 78840456 77510400 
1262.212 75993800 74328832 72565768 70763584 68982048 67269488 65664476 
1265.587 64192228 62865660 61690376 60666376 59789824 59053268 58445836 
1268.962 57955104 57567168 57270264 57056188 56919580 56857748 56868168 
1272.337 56946740 57088348 57287160 57539060 57842508 58199092 58612356 
1275.713 59086064 59623080 60224356 60889748 61618620 62410576 63264072 
1279.088 64175904 65138192 66138572 67158136 68173264 69158680 70086184 
1282.463 70928496 71661456 72262080 72712336 72999680 73116784 73063896 
1285.838 72848008 72482680 71985032 71374752 70673320 69900880 69079544 
1289.214 68234520 67392760 66586152 65847360 65204256 64677180 64273088 
1292.589 63982816 63779728 63622648 63461708 63240728 62910044 62434064 
1295.964 61796484 61005880 60094124 59113588 58122684 57179920 56334360 
1299.339 55616176 55039444 54602472 54293924 54095612 53985924 53943380 
1302.715 53944016 53963788 53981648 53978196 53940416 53861828 53741364 
1306.090 53581988 53388796 53167976 52926420 52672880 52419152 52178500 
1309.465 51965576 51793412 51671392 51605080 51597396 51650532 51768400 
1312.840 51957064 52223000 52572720 53009108 53531984 54138692 54826768 
1316.216 55595688 56448108 57389136 58424232 59557520 60789804 62118672 
1319.591 63537984 65038688 66607052 68221640 69852968 71458608 72982632 
1322.966 74364848 75541712 76459088 77086128 77420896 77497136 77375752 
1326.341 77143032 76891768 76702904 76641432 76741184 77004032 77403160 
1329.717 77892632 78420792 78938640 79414736 79838496 80221784 80593408 
1333.092 80994088 81469400 82058656 82793496 83693792 84764600 85996352 
1336.467 87364040 88832144 90351328 91864504 93313544 94637912 95785616 
1339.842 96718832 97416016 97874248 98104816 98128112 97966200 97640368 
1343.218 97170024 96572464 95864072 95060568 94174984 93217064 92194920 
1346.593 91116248 89994504 88852672 87723856 86654112 85698016 84910824 
1349.968 84350688 84071616 84119992 84536616 85351488 86580384 88223776 
1353.343 90264440 92666792 95371512 98301088 101356840 104415784 107348416 
1356.719 110016784 112283032 114031296 115165560 115622984 115381416 
1359.612 114460704 112922640 110858352 108395376 105684688 102886496 
1362.505 100174152 97702720 95584888 93880640 92586080 91644920 90962928 
1365.880 90434360 89956840 89440192 88823360 88074152 87190016 86192568 
1369.255 85120136 84019384 82933808 81904664 80967216 80148936 79475960 
1372.630 78973296 78664528 78572560 78712624 79085856 79674624 80443848 
1376.006 81348304 82338000 83370256 84413784 85449416 86472408 87489464 
1379.381 88515568 89566904 90656264 91785576 92941224 94089136 95173048 
1382.756 96124200 96861016 97302168 97380112 97042984 96270664 95084280 
1386.131 93564592 91849440 90109840 88526736 87233680 86295184 85709920 
1389.507 85429536 85384680 85500736 85713360 85964248 86198024 86365632 
1392.882 86420696 86328120 86074720 85674768 85169352 84607792 84033536 
1396.257 83467144 82906728 82337272 81747008 81140208 80544304 80003352 
1399.632 79561912 79251576 79078024 79024520 79059744 79150224 79266968 
1403.008 79388632 79504928 79614768 79725456 79848616 79998256 80186400 
1406.383 80419800 80699928 81023680 81386392 81784848 82220144 82699128 
1409.758 83232656 83831744 84502888 85245232 86049392 86900976 87782584 
1413.133 88680088 89584336 90490672 91398824 92309240 93220928 94131272 
1416.509 95036152 95933824 96828968 97738160 98690800 99719200 100853296 
1419.884 102104856 103462872 104902936 106395752 107916992 109448184 
1422.777 110980608 112514800 114056368 115614336 117196048 118803488 
1425.670 120429712 122057696 123658248 125195264 126623216 127891584 
1428.563 128955424 129777360 130335200 130623816 130655600 130460608 
1431.456 130083216 129584016 129028784 128473328 127957776 127494960 
1434.349 127074184 126673160 126279816 125914272 125642808 125557024 
1437.242 125734552 126200184 126911952 127778664 128681688 129506992 
1440.135 130144728 130502568 130521016 130168440 129445208 128375712 
1443.028 127002496 125378760 123559944 121605640 119568536 117488000 
1445.921 115395768 113320712 111303984 109416048 107750968 106410744 
1448.814 105480568 105001712 104973352 105364536 106134808 107242880 
1451.708 108646408 110300664 112142392 114088088 116046000 117901616 
1454.601 119526688 120787376 121546240 121713984 121300664 120457432 
1457.494 119414520 118373376 117439272 116616376 115862992 115137960 
1460.387 114424264 113727368 113062408 112436288 111843720 111269520 
1463.280 110701808 110147256 109640368 109230952 108964256 108852744 
1466.173 108868584 108950800 109026944 109034616 108922016 108652152 
1469.066 108192872 107505128 106541104 105252096 103614608 101663792 
1471.959 99520192 97384296 95463560 93904776 92751776 91963096 91458944 
1475.334 91166600 91045752 91084616 91287360 91655072 92177224 92830880 
1478.709 93591592 94439616 95367176 96376880 97475520 98667520 99950576 
1482.085 101315168 102748456 104237360 105768632 107328352 108897064 
1484.978 110443768 111929720 113303592 114502496 115456624 116080624 
1487.871 116273344 115929456 114948648 113274128 110930128 108039736 
1490.764 104805168 101444096 98139496 94987488 91997240 89121336 86284024 
1494.139 83416672 80485432 77503632 74533416 71670168 69006592 66606312 
1497.514 64490592 62652640 61071736 59728228 58608184 57697968 56981228 
1500.890 56439016 56052660 55807008 55690264 55687476 55772460 55900348 
1504.265 55994496 55951828 55656664 55011160 53994480 52691808 51266468 
1507.640 49868012 48569972 47368100 46224232 45103548 43994732 42908784 
1511.015 41874180 40922160 40072536 39333824 38702188 38168996 37725032 
1514.391 37361028 37066212 36824792 36619736 36439740 36286840 36178608 
1517.766 36138920 36185196 36315872 36507816 36719924 36912764 37064628 
1521.141 37190656 37336224 37554480 37870744 38269804 38706644 39129680 
1524.516 39504348 39821600 40103100 40388312 40719016 41117936 41583288 
1527.892 42098384 42646952 43224944 43842484 44515824 45257344 46066852 
1531.267 46933648 47843828 48792436 49793168 50878872 52086668 53431252 
1534.642 54899668 56454488 58057540 59676984 61298864 62929428 64582012 
1538.017 66273256 68011832 69786744 71562872 73289264 74929144 76469400 
1541.393 77924144 79324872 80696496 82051368 83386672 84689456 85941424 
1544.768 87127168 88239160 89274976 90228704 91083232 91798472 92313504 
1548.143 92562216 92484472 92057696 91308456 90306496 89125448 87803792 
1551.518 86325248 84628856 82645176 80343488 77769080 75049328 72363792 
1554.894 69860520 67612688 65593564 63694844 61752824 59587960 57070700 
1558.269 54197024 51167300 48334112 46013952 44321224 43180512 42430432 
1561.644 41915960 41521632 41165288 40797992 40398784 39974332 39553160 
1565.019 39173080 38866016 38639600 38476260 38337224 38179888 37967100 
1568.395 37680292 37326112 36934052 36546196 36197728 35909788 35685696 
1571.770 35517812 35392196 35290764 35191332 35064012 34875688 34599096 
1575.145 34227304 33788672 33346084 32977152 32734956 32632176 32646146 
1578.520 32741100 32885466 33061132 33265162 33503932 33786276 34117688 
1581.896 34497596 34921432 35384108 35880776 36406516 36953712 37508168 
1585.271 38051472 38566448 39042124 39481016 39899428 40326244 40794204 
1588.646 41335592 41978984 42745104 43649328 44700660 45898628 47227740 
1592.021 48651836 50117620 51554632 52888360 54057144 55014548 55738216 
1595.396 56227764 56500604 56585708 56516300 56329416 56058768 55732640 
1598.772 55372656 54989500 54582296 54139896 53646764 53089716 52465324 
1602.147 51784752 51073820 50369076 49707192 49120848 48633084 48256160 
1605.522 47996820 47857404 47836652 47926104 48105704 48345404 48605660 
1608.897 48850980 49059708 49229568 49377968 49533356 49727104 49980716 
1612.273 50302140 50687472 51126520 51607764 52121000 52659304 53217264 
1615.648 53792516 54388360 55020828 55716668 56500448 57388984 58378860 
1619.023 59448268 60561000 61677924 62767556 63808472 64799056 65755060 
1622.398 66703276 67667392 68658104 69671432 70693936 71713984 72728864 
1625.774 73743768 74766200 75800872 76847472 77905120 78979528 80087928 
1629.149 81260608 82530728 83921128 85436712 87061888 88770192 90528752 
1632.524 92317272 94136128 96005448 97964088 100056904 102322120 104769144 
1635.899 107381136 110134272 113004208 115984928 119080656 122291280 
1638.792 125603688 128988160 132412416 135839968 139244400 142613792 
1641.686 145937328 149194704 152351232 155344704 158102688 160560752 
1644.579 162672784 164430816 165864144 167039104 168029760 168909152 
1647.472 169747808 170603552 171527344 172555264 173697520 174925952 
1650.365 176162160 177287680 178134016 178537088 178432576 177979696 
1653.258 177548720 177481104 177892000 178640160 179492880 180239296 
1656.151 180753664 180989808 180952000 180674192 180190224 179515424 
1659.044 178640208 177537440 176177776 174542064 172627088 170444272 
1661.937 168017888 165387216 162612800 159774240 156958192 154233216 
1664.830 151622736 149095200 146560672 143888320 140924752 137532064 
1667.723 133624720 129202176 124361392 119278240 114166600 109218512 
1670.616 104569160 100284576 96366832 92767288 89396880 86139960 82876544 
1673.991 79524144 76087512 72692040 69558712 66903220 64849952 63387124 
1677.367 62409348 61779368 61388884 61185396 61167700 61364040 61798852 
1680.742 62468344 63342384 64386056 65591520 67009256 68753392 70967592 
1684.117 73726960 76981952 80577936 84351536 88223208 92203856 96351360 
1687.492 100717440 105305880 110064344 114869080 119567360 124024664 
1690.385 128145952 131901056 135308416 138409776 141244624 143834560 
1693.279 146174960 148245104 150015824 151472384 152630752 153550928 
1696.172 154310448 154944512 155411392 155574240 155228880 154116544 
1699.065 152011008 148852544 144893456 140683488 136790816 133522776 
1701.958 130829768 128460768 126115888 123560336 120657216 117376312 
1704.851 113786664 110026640 106258960 102607552 99135688 95847664 92710552 
1708.226 89672064 86671952 83654104 80574256 77414480 74187224 70937192 
1711.601 67724664 64599848 61596704 58720068 55954276 53282212 50701960 
1714.977 48233536 45912992 43772412 41823724 40050376 38429628 36953276 
1718.352 35643896 34546352 33697712 33102858 32725952 32501820 32355688 
1721.727 32230374 32098856 31974792 31898868 31919050 32061398 32317568 
1725.102 32649360 33009860 33366262 33708600 34048336 34403620 34782812 
1728.478 35175736 35557080 35900104 36194596 36452208 36701500 36970128 
1731.853 37271556 37597040 37924284 38236512 38548272 38907944 39379604 
1735.228 39999728 40756976 41607828 42499488 43394444 44272936 45140712 
1738.603 46019364 46930804 47878636 48839780 49770392 50626336 51379720 
1741.979 52024588 52572456 53038200 53426528 53725428 53907400 53941016 
1745.354 53805640 53496756 53027488 52417356 51683260 50827132 49834160 
1748.729 48679596 47343420 45823764 44146744 42364344 40542156 38743088 
1752.104 37010284 35362036 33796480 32297864 30844168 29410072 27969846 
1755.479 26503776 25007572 23499680 22022696 20631010 19368370 18254536 
1758.855 17277102 16399505 15572787 14756244 13932644 13115215 12340976 
1762.230 11652037 11074811 10607906 10227185 9899335 9597816 9308929 9031195 
1766.087 8768751 8524780 8296144 8075527 7856135 7637967 7428840 7238781 
1769.945 7072582 6923178 6771672 6594718 6379099 6131190 5878385 5653387 
1773.802 5478397 5353055 5258536 5167725 5059871 4928014 4780753 4634848 
1777.660 4505798 4397572 4300550 4197327 4072588 3923677 3763120 3612310 
1781.517 3488642 3396965 3326008 3256398 3169743 3059580 2934134 2812058 
1785.375 2711655 2640143 2591842 2552678 2509619 2458400 2404888 2360977 
1789.232 2336125 2329662 2329062 2314205 2268605 2189007 2090513 1997466 
1793.089 1932395 1902010 1896486 1896752 1886169 1859048 1820849 1784682 
1796.947 1761061 1752810 1751646 1743263 1715319 1665590 1603862 1547795 
1800.804 1511684 1499980 1504037 1508858 1501310 1477970 1446320 1419692 
1804.662 1409487 1417897 1437078 1453701 1457025 1443694 1420357 1398185 
1808.519 1386518 1386351 1389276 1382363 1356636 1313163 1263613 1223439 
1812.376 1203935 1206162 1220283 1231614 1229121 1211611 1188153 1173468 
1816.234 1178518 1205032 1243244 1278368 1297776 1299205 1290730 1286875 
1820.091 1298873 1328584 1367172 1400612 1416933 1411814 1390307 1363018 
1823.949 1339519 1322303 1306416 1283619 1250089 1208886 1170212 1144266 
1827.806 1135495 1138153 1139216 1123768 1085102 1029633 975201 940134 
1831.664 933361 950329 975567 992105 988817 966733 937644 918120 919215 
1836.003 941363 973640 1001703 1015020 1014190 1009607 1016216 1044413 
1839.861 1093573 1153103 1207624 1245669 1264079 1269562 1274048 1288271 
1843.718 1314891 1347861 1378141 1401310 1422485 1453036 1503305 1576060 
1847.575 1663262 1750216 1820550 1865005 1885803 1894056 1903042 1919915 
1851.433 1941148 1954861 1948371 1915089 1859481 1794797 1736376 1692500 
1855.290 1660635 1628805 1583775 1518367 1437045 1352481 1279731 1226762 
1859.148 1191077 1160777 1122274 1069158 1005488 944650 900522 880766 881464 
1863.487 890262 892885 881497 858622 835250 823398 828013 842885 853310 
1867.827 843915 808161 753989 700156 666770 662722 682135 707590 721562 
1872.167 713298 684525 646362 613678 595130 589755 587432 576251 550672 
1876.506 515142 481804 462764 464091 479183 494409 493911 469763 425749 
1880.846 375007 332295 305835 293600 284979 268203 237967 199048 164806 
1885.185 148499 155658 179855 206010 218341 207203 174949 133318 97922 78932 
1890.007 76049 80755 83472 80026 74889 77706 97093 134445 181513 223646 
1894.829 248178 251725 242111 235149 244863 276061 322182 369236 403063 
1899.168 418518 421271 424720 441403 475435 518923 557672 578142 575953 
1903.508 558501 541781 540951 562682 600936 640787 667268 673076 662390 
1907.848 647557 641783 651207 670719 687611 689470 672047 641849 612284 
1912.187 595860 597552 611222 624661 625092 607738 577048 544368 518890 
1916.527 503166 489400 465583 422664 362306 296916 244564 218341 219502 
1920.866 237437 254411 256732 240188 213203 190728 186186 201534 227823 
1925.206 248874 252289 236575 212175 195335 199181 225734 264026 295987 
1929.546 306332 290914 259417 229348 214562 219203 233989 243039 232829 
1933.885 201402 158774 122911 108693 118636 142798 164243 169679 156652 
1938.225 136069 124502 135307 168850 212010 244863 252919 234320 203987 
1942.564 183866 191457 229049 282758 329676 351628 345394 323342 307592 
1946.904 315815 353186 408237 460774 492120 495968 480974 464986 463825 
1951.244 481837 510066 532525 535975 518326 490030 467176 460741 468436 
1955.583 475534 462532 418353 348046 273209 220563 210286 242343 297048 
1959.923 343968 360250 341050 302154 268767 261439 283554 320856 348444 
1964.262 345659 308023 249372 193943 161326 157382 170309 181413 176242 
1968.602 154862 132722 130402 159403 214993 275497 314788 316678 283355 
1972.942 236077 202297 203258 240089 298375 356735 402334 441204 494906 
1977.281 584679 719372 883389 1043517 1163235 1220383 1216229 1173269 
1981.139 1121875 1082511 1060389 1043018 1013592 961287 892055 824759 783066 
1985.478 780809 814236 864299 908192 930007 931036 927151 938142 976629 
1989.818 1039000 1106827 1156558 1174697 1162704 1138385 1123935 1135163 
1993.675 1171010 1216728 1251850 1262284 1248992 1225134 1208487 1210414 
1997.533 1228590 1250222 1258130 1243676 1211611 1178751 1164498 1178551 
2001.390 1216030 1258496 1284782 1282721 1255538 1219984 1196559 1197921 
2005.248 1219452 1243210 1248294 1223938 1177389 1130080 1106295 1119450 
2009.105 1163933 1218455 1257034 1265607 1247696 1222542 1213405 1234305 
2012.962 1280993 1334633 1369599 1368535 1331841 1275444 1222044 1188984 
2016.820 1179914 1185263 1191575 1190479 1186426 1193104 1225500 1287872 
2020.677 1371061 1453967 1515840 1546066 1550222 1542973 1542541 1556341 
2024.535 1577723 1589262 1574231 1527112 1458455 1390606 1343873 1328152 
2028.392 1335630 1347097 1341480 1310471 1261221 1214236 1190811 1200580 
2032.250 1237927 1285446 1323532 1341978 1344571 1344404 1355207 1381798 
2036.107 1417033 1446653 1460849 1459452 1456094 1468927 1511451 1583210 
2039.964 1668850 1744460 1789740 1799288 1783252 1762824 1757036 1774136 
2043.822 1806176 1836554 1847568 1833726 1803381 1775300 1767582 1788242 
2047.679 1831363 1880113 1915988 1927403 1914789 1886768 1854689 1824143 
2051.537 1794331 1760928 1721007 1678463 1643439 1628040 1639315 1674571 
2055.394 1720508 1758799 1775966 1768846 1745591 1720874 1708433 1713689 
2059.251 1732251 1753010 1765419 1766018 1760063 1757235 1766151 1788375 
2063.109 1817022 1841911 1854090 1852992 1845572 1843908 1856153 1883174 
2066.966 1916254 1942679 1952331 1943145 1921079 1897850 1882875 1878049 
2070.824 1877583 1871294 1851927 1820050 1785015 1758965 1752711 1767848 
2074.681 1797159 1827371 1847202 1852327 1846869 1840514 1841446 1852992 
2078.539 1871194 1887600 1895354 1893956 1888299 1887667 1898882 1922744 
2082.396 1952864 1979957 1996168 1999497 1994570 1989244 1990309 1998598 
2086.253 2009017 2013111 2005488 1985716 1959987 1936788 1922677 1918018 
2090.111 1917186 1910896 1893158 1864173 1831264 1804179 1791569 1795828 
2093.968 1811898 1831363 1845771 1852726 1855188 1859414 1869697 1886036 
2097.826 1903075 1914124 1914789 1906702 1896386 1891993 1898382 1914091 
2101.683 1931630 1942513 1941614 1930864 1918184 1913625 1923709 1947772 
2105.541 1978526 2004623 2018770 2019236 2010914 2002626 2000795 2006853 
2109.398 2016673 2023464 2022398 2014043 2004223 1999896 2005788 2020767 
2113.255 2038311 2050628 2052759 2045402 2034982 2030488 2036879 2054124 
2117.113 2075963 2094175 2102698 2101766 2096006 2093709 2100667 2117415 
2120.970 2139291 2159736 2173988 2182114 2188607 2198865 2215749 2237164 
2124.828 2255815 2263609 2256414 2235199 2206557 2178051 2153609 2130867 
2128.685 2102532 2059950 1998698 1921778 1839050 1762924 1702346 1659537 
2132.542 1629038 1603928 1577723 1550821 1528110 1516406 1517736 1527744 
2136.400 1535458 1530238 1506963 1468828 1425576 1389143 1366441 1355439 
2140.257 1347628 1332406 1304522 1266770 1229420 1203404 1194998 1201277 
2144.115 1212707 1217758 1210414 1193204 1175295 1166890 1171741 1184964 
2147.972 1196194 1195596 1181708 1163003 1154199 1168152 1206992 1258430 
2151.830 1299371 1308676 1273516 1197091 1095765 991474 900522 826685 763980 
2156.169 703541 645002 601567 595230 646528 761623 923200 1098854 1251385 
2160.509 1356436 1410185 1427338 1427671 1428834 1436813 1446985 1452903 
2164.366 1452703 1451939 1463076 1495858 1550654 1616466 1674904 1710263 
2168.224 1715851 1698953 1674937 1661167 1666655 1686812 1708633 1718745 
2172.081 1709830 1687876 1667786 1666222 1693198 1745957 1810202 1867567 
2175.938 1905438 1920580 1920015 1914823 1913791 1917419 1920880 1915921 
2179.796 1898948 1873557 1848001 1830931 1825474 1826372 1823777 1809170 
2183.653 1780590 1745458 1717448 1709265 1725798 1762691 1807440 1847834 
2187.511 1876918 1897085 1916686 1946041 1990076 2046700 2107759 2164898 
2191.368 2214084 2257780 2302680 2354280 2412084 2469396 2515718 2541713 
2195.226 2545512 2533048 2516651 2507852 2511985 2526515 2543313 2552945 
2199.083 2550579 2537947 2521983 2509352 2503320 2501054 2496988 2485925 
2202.940 2468197 2449136 2437341 2440239 2459033 2489557 2524383 2556778 
2206.798 2586042 2616975 2655745 2706654 2766672 2826699 2874359 2900776 
2210.655 2903545 2889735 2870790 2857249 2853680 2857749 2861351 2857082 
2214.513 2841873 2817794 2791315 2768073 2748499 2729026 2703386 2667480 
2218.370 2623075 2578143 2542913 2525582 2527749 2543313 2561844 2574176 
2222.228 2575343 2567243 2554945 2543546 2533448 2521150 2499821 2465464 
2226.085 2419048 2367873 2322000 2289789 2273934 2271136 2273568 2273834 
2229.942 2268239 2258446 2248887 2243592 2243925 2247255 2250353 2251618 
2233.800 2253783 2262676 2284726 2322933 2373603 2428111 2475628 2509019 
2237.657 2527215 2535981 2544313 2561044 2589975 2629609 2674881 2721157 
2241.515 2766572 2812458 2861918 2915920 2972131 3024879 3068189 3098456 
2245.372 3117879 3132129 3148917 3172480 3201819 3230493 3250489 3256231 
2249.229 3246917 3228023 3207761 3193408 3188101 3190404 3195844 3200851 
2253.087 3204556 3209330 3219043 3235066 3254929 3272355 3280034 3272856 
2256.944 3251023 3219377 3184863 3153556 3127890 3105898 3084007 3059614 
2260.802 3033187 3008997 2992315 2985843 2989146 2997753 3005594 3008096 
2264.659 3005160 2999889 2997853 3002925 3015269 3031118 3045432 3053474 
2268.517 3054242 3050070 3044965 3042229 3042863 3044331 3043097 3037157 
2272.374 3026180 3013134 3001890 2994851 2992415 2993049 2994017 2994384 
2276.231 2995418 2999922 3010098 3026313 3045332 3062183 3072561 3074730 
2280.089 3070959 3067355 3070225 3083339 3106866 3136768 3168007 3196178 
2283.946 3219945 3240875 3262373 3287245 3316058 3347244 3378097 3406415 
2287.804 3431963 3455910 3480057 3505342 3531230 3556050 3577765 3596140 
2291.661 3612444 3629517 3649732 3673891 3700624 3727092 3750252 3769102 
2295.519 3784611 3799551 3816432 3836254 3857414 3876537 3890611 3897833 
2299.376 3898802 3896061 3892651 3889976 3887703 3883958 3876403 3864903 
2303.233 3850695 3836722 3825557 3818437 3813925 3809512 3802460 3791797 
2307.091 3779330 3768534 3762251 3762017 3766161 3770640 3771308 3765459 
2310.948 3753260 3737084 3720675 3706305 3694542 3683682 3671251 3655513 
2314.806 3636935 3617022 3598278 3581874 3567375 3552910 3536341 3516733 
2318.663 3495622 3475849 3460786 3452436 3450799 3453471 3456811 3457713 
2322.521 3453672 3443085 3425518 3399703 3365174 3321600 3270586 3215472 
2326.378 3161432 3113941 3076498 3049970 3032186 3019106 3007295 2995284 
2330.235 2984909 2979570 2983107 2996886 3019440 3047301 3076231 3103462 
2334.093 3128792 3153522 3179523 3207694 3236769 3264477 3288614 3309013 
2337.950 3327343 3346409 3368748 3394794 3422779 3449296 3471307 3488174 
2341.808 3501635 3515063 3531430 3552309 3576763 3603123 3631221 3663165 
2345.665 3703799 3759009 3832276 3923075 4026100 4132795 4233761 4320327 
2349.522 4387330 4432451 4456419 4461775 4451866 4430476 4400886 4367048 
2353.380 4333178 4303060 4279569 4263306 4252365 4243197 4232624 4218906 
2357.237 4203583 4189899 4182138 4183242 4193613 4211010 4231754 4253335 
2361.095 4273846 4293657 4314036 4336023 4360053 4385925 4413136 4442258 
2364.952 4474630 4511456 4553576 4599685 4647373 4693492 4736299 4775627 
2368.810 4812714 4849569 4886930 4923858 4957706 4985759 5007311 5024405 
2372.667 5042104 5066609 5103418 5155554 5222719 5302607 5391835 5487994 
2376.524 5589713 5697095 5809977 5927557 6048227 6169704 6290508 6410438 
2380.382 6530704 6652820 6777898 6904931 7030992 7152137 7264354 7364972 
2384.239 7453379 7530542 7598278 7657863 7709868 7754019 7790349 7819057 
2388.097 7841425 7858767 7872026 7880596 7882688 7876143 7858969 7830899 
2391.954 7793722 7750343 7703831 7657121 7610889 7565606 7520934 7477345 
2395.812 7435952 7398674 7366826 7341315 7321939 7307921 7298958 7295285 
2399.669 7298250 7309336 7329689 7358704 7395001 7436188 7480649 7527542 
2403.526 7577271 7630953 7689531 7752771 7819901 7889605 7961447 8035797 
2407.384 8114078 8197909 8288039 8383658 8483017 8583682 8684235 8784270 
2411.241 8884802 8987184 9091890 9197705 9301753 9400914 9492140 9574240 
2415.099 9647174 9711615 9767865 9815209 9851609 9875031 9884454 9881099 
2418.956 9867879 9849033 9828426 9807990 9788096 9767187 9743297 9715240 
2422.813 9683255 9648461 9612755 9578169 9545754 9516863 9492953 9475682 
2426.671 9467012 9468536 9480795 9502809 9533425 9570209 9612484 9660386 
2430.528 9714800 9777015 9846966 9923742 10005075 10088731 10173521 10259515 
2434.386 10348274 10442178 10542585 10650214 10765070 10886820 11015775 
2437.761 11153301 11300868 11459474 11629132 11807366 11991737 12179390 
2441.136 12369168 12562304 12761600 12970239 13190522 13422912 13665719 
2444.511 13916290 14172005 14430679 14691906 14955520 15221387 15488619 
2447.887 15756255 16023336 16289204 16554683 16820360 17086650 17353066 
2451.262 17617160 17875548 18125072 18363056 18588134 18800352 18999174 
2454.637 19183714 19351636 19499208 19622636 19719120 19786424 19823672 
2458.012 19830956 19807372 19751542 19662328 19538822 19381188 19191782 
2461.388 18973592 18730190 18464032 18175962 17865846 17533354 17179436 
2464.763 16806446 16418947 16022580 15622932 15224441 14831527 14447223 
2468.138 14075479 13720397 13385869 13075501 12791117 12532462 12298060 
2471.513 12085962 11894195 11722222 11569475 11435525 11318417 11215314 
2474.889 11122264 11035759 10953552 10875133 10801007 10731887 10667770 
2478.264 10607193 10548492 10489765 10430978 10373487 10319738 10272271 
2481.639 10232409 10200148 10173691 10151745 10133260 10118541 10108570 
2485.014 10104365 10105687 10111216 10118608 10125866 10132311 10138619 
2488.390 10146352 10156799 10170231 10184918 10198893 10209918 10217517 
2491.765 10223385 10231221 10244011 10264739 10293476 10328763 10367922 
2495.140 10408272 10448117 10486675 10523981 10559864 10593952 10625596 
2498.515 10654288 10680300 10704752 10728797 10753183 10777740 10801143 
2501.891 10821830 10838578 10851691 10862835 10874895 10889980 10909584 
2505.266 10933504 10960349 10988452 11016862 11045173 11073622 11102174 
2508.641 11130150 11156122 11178255 11195424 11206950 11213682 11216266 
2512.016 11215280 11210112 11199470 11182641 11159692 11132938 11105403 
2515.392 11080793 11061080 11046125 11033278 11019377 11001468 10978903 
2518.767 10953416 10928543 10907818 10893649 10885801 10882811 10882369 
2522.142 10882811 10883559 10885224 10888723 10894464 10902042 10910570 
2525.517 10918792 10926607 10934966 10945261 10958513 10975267 10994535 
2528.893 11015571 11037288 11059856 11084227 11111658 11142286 11175705 
2532.268 11209806 11242447 11272269 11299814 11327157 11357052 11392087 
2535.643 11433348 11480194 11531092 11584176 11638626 11694276 11751566 
2539.018 11810430 11869268 11926037 11978044 12023859 12063443 12099011 
2542.394 12133490 12169098 12207163 12246934 12286948 12325567 12362214 
2545.769 12397908 12434083 12472170 12511795 12551527 12588738 12621415 
2549.144 12648943 12672789 12695579 12720007 12747985 12779276 12812035 
2552.519 12844081 12873535 12899714 12923335 12945899 12968600 12992498 
2555.895 13017523 13043472 13070139 13097286 13124709 13151689 13176689 
2559.270 13197353 13211357 13217335 13214671 13204766 13189428 13170986 
2562.645 13151039 13130446 13109409 13088169 13067203 13047637 13030156 
2566.020 13015577 13003218 12992258 12981163 12969487 12957642 12946684 
2569.396 12938662 12934974 12935964 12941119 12949210 12958973 12969555 
2572.771 12980992 12993180 13006666 13020868 13035072 13048559 13061227 
2576.146 13073622 13087315 13103263 13122386 13144107 13167092 13189600 
2579.521 13210333 13228539 13244526 13259317 13273529 13287946 13302944 
2582.896 13318933 13336734 13357610 13382896 13413275 13448577 13487403 
2586.272 13527635 13567083 13604654 13639904 13673481 13705795 13737462 
2589.647 13768105 13797520 13825499 13853001 13881668 13913588 13950197 
2593.022 13991531 14036189 14081811 14125861 14166938 14205521 14242874 
2596.397 14281051 14321869 14365533 14411668 14459111 14507208 14556031 
2599.773 14606332 14659484 14716070 14776469 14839653 14904766 14971022 
2603.148 15038247 15106993 15177979 15251380 15327265 15404776 15483331 
2606.523 15562071 15641034 15720146 15799101 15877420 15953792 16027255 
2609.898 16097188 16163969 16228663 16292369 16355705 16417537 16475694 
2613.274 16527148 16569141 16600261 16620882 16632689 16638337 16639953 
2616.649 16638886 16635651 16630245 16623016 16614649 16606251 16598849 
2620.024 16593101 16588969 16585905 16583495 16582118 16582876 16587248 
2623.399 16596921 16612377 16633276 16658409 16686676 16716942 16749036 
2626.775 16783302 16819880 16858766 16899724 16941718 16984856 17029786 
2630.150 17077964 17131384 17191534 17258622 17331410 17407658 17485126 
2633.525 17561782 17637520 17712614 17788480 17866226 17946298 18028492 
2636.900 18112082 18196382 18281076 18366098 18451448 18536780 18621576 
2640.276 18704730 18785820 18864678 18941958 19018420 19094826 19171006 
2643.651 19246088 19318968 19388498 19454852 19518894 19582528 19647698 
2647.026 19716034 19787848 19862760 19940286 20019668 20100692 20183886 
2650.401 20269626 20358200 20449466 20542902 20637820 20734356 20832828 
2653.777 20933892 21037938 21144790 21253516 21362682 21471182 21578630 
2657.152 21685476 21793464 21904196 22018828 22137638 22259654 22382996 
2660.527 22506092 22627514 22746454 22862984 22977204 23088974 23198114 
2663.902 23304346 23407110 23506710 23603328 23697236 23789066 23878674 
2667.278 23965710 24050138 24132058 24211858 24290726 24369608 24449206 
2670.653 24529904 24611320 24692892 24774232 24855166 24935836 25016452 
2674.028 25097114 25177304 25256382 25333122 25406678 25476488 25542478 
2677.403 25604998 25664540 25721734 25777214 25831680 25886260 25942252 
2680.779 26001066 26064392 26133356 26209020 26291844 26382038 26480180 
2684.154 26586018 26700200 26822624 26953296 27091450 27236704 27388286 
2687.529 27545500 27707682 27874232 28044344 28217108 28391670 28567614 
2690.904 28744760 28923788 29105934 29292128 29483294 29679510 29880398 
2694.280 30085210 30293104 30503904 30717618 30934854 31156362 31382256 
2697.655 31612404 31845916 32082160 32320100 32559458 32800094 33042182 
2701.030 33285766 33530560 33776248 34021964 34266708 34509076 34747672 
2704.405 34980900 35207180 35425232 35633432 35830760 36016692 36190276 
2707.781 36350352 36495996 36625500 36737484 36830848 36905300 36961140 
2711.156 36999352 37020892 37026736 37016996 36991376 36949528 36891088 
2714.531 36816244 36725584 36619768 36499636 36365912 36218872 36059280 
2717.906 35888084 35706776 35517456 35321960 35122100 34918740 34712820 
2721.281 34505060 34296540 34089372 33886280 33690120 33503108 33326584 
2724.657 33160362 33003644 32855090 32714092 32580924 32456294 32341908 
2728.032 32239116 32148734 32071348 32006964 31955746 31917408 31891878 
2731.407 31879074 31878114 31887848 31907104 31934776 31969622 32011564 
2734.782 32060292 32115802 32177456 32244578 32316066 32390814 32468256 
2738.158 32547996 32629964 32714092 32799556 32885720 32970752 33053086 
2741.533 33131466 33204604 33272136 33334062 33390668 33442662 33490832 
2744.908 33536430 33580640 33624528 33669140 33714792 33761384 33808552 
2748.283 33855904 33903260 33950800 33999604 34050380 34104100 34161092 
2751.659 34221784 34286392 34355204 34428728 34508040 34593964 34687048 
2755.034 34788268 34897912 35016600 35144912 35284116 35434724 35597288 
2758.409 35770708 35953372 36142488 36334788 36526916 36715888 36899276 
2761.784 37074660 37239788 37392084 37529156 37648960 37750080 37831952 
2765.160 37894640 37938968 37965328 37974584 37966992 37943232 37904616 
2768.535 37853716 37792948 37726188 37656264 37585548 37515428 37446728 
2771.910 37379772 37315240 37253576 37195636 37142256 37093568 37050120 
2775.285 37011584 36978172 36949996 36926836 36908256 36892528 36876948 
2778.661 36858120 36832220 36796012 36747436 36685380 36610216 36522556 
2782.036 36423704 36314720 36197048 36072636 35944084 35814708 35688036 
2785.411 35567472 35454892 35351900 35258132 35173008 35095516 35024680 
2788.786 34960144 34901252 34847576 34798752 34754204 34713504 34676680 
2792.162 34643876 34615528 34591884 34573012 34558440 34547644 34539320 
2795.537 34532252 34525116 34515928 34502656 34483212 34455664 34418360 
2798.912 34371056 34314216 34248924 34176576 34098476 34014760 33925400 
2802.287 33830184 33728796 33621448 33508870 33392060 33272136 33149670 
2805.663 33025376 32900122 32774900 32651574 32532282 32419306 32313996 
2809.038 32217388 32129716 32050554 31979822 31918086 31866562 31827054 
2812.413 31801100 31790118 31794682 31814362 31848696 31896726 31957458 
2815.788 32029792 32112554 32204538 32304964 32413486 32530494 32657434 
2819.164 32795626 32946944 33112228 33291776 33484892 33691052 33909204 
2822.539 34139048 34380520 34633684 34898344 35173656 35458560 35751388 
2825.914 36050672 36355320 36663892 36975288 37287476 37597944 37903968 
2829.289 38202608 38491752 38770256 39038428 39297260 39548224 39792944 
2832.665 40032680 40269060 40504216 40741360 40984496 41238264 41507304 
2836.040 41795192 42104956 42438140 42796660 43182268 43598148 44048564 
2839.415 44539168 45075796 45664392 46310556 47018376 47791448 48632012 
2842.790 49541788 50521100 51569296 52684440 53863064 55099552 56386648 
2846.166 57714088 59069552 60438172 61802176 63142388 64438976 65670952 
2849.541 66819080 67865464 68793032 69587528 70235800 70726032 71049104 
2852.916 71197920 71169696 70965912 70593864 70066016 69397656 68608784 
2856.291 67720136 66751808 65724684 64657300 63566104 62466124 61369992 
2859.667 60288460 59231908 58209284 57229852 56302600 55435440 54635392 
2863.042 53907816 53255880 52681408 52185072 51767056 51427236 51165288 
2866.417 50979800 50867992 50825044 50844080 50915828 51029512 51173416 
2869.792 51334036 51498112 51652660 51784600 51883088 51940144 51951276 
2873.167 51916920 51841604 51734620 51607428 51473604 51347052 51239812 
2876.543 51162380 51122456 51124956 51171736 51262516 51395344 51567320 
2879.918 51775380 52017228 52290868 52594972 52928368 53289292 53674396 
2883.293 54079208 54497468 54921436 55343184 55754376 56148276 56520260 
2886.668 56868432 57194132 57502216 57800076 58096588 58401412 58723976 
2890.044 59072324 59454880 59880028 60357444 60899692 61522712 62244120 
2893.419 63085720 64069784 65217264 66546836 68069888 69785800 71676032 
2896.794 73701672 75798192 77872768 79820056 81522648 82867712 83770984 
2900.169 84181688 84095824 83552920 82633320 81442584 80088608 78680848 
2903.545 77310344 76044208 74930952 73998600 73259416 72715544 72362424 
2906.920 72191920 72193600 72357096 72672840 73131688 73725432 74446016 
2910.295 75284432 76230968 77274440 78401864 79600752 80858160 82161936 
2913.670 83501112 84864536 86241152 87619336 88986376 90328848 91634152 
2917.046 92889224 94082672 95204192 96244776 97196760 98054392 98812800 
2920.421 99468904 100020320 100465392 100803520 101034472 101159216 
2923.314 101180128 101101456 100929032 100669432 100330200 99918336 99440608 
2926.689 98903200 98311568 97670976 96986272 96261568 95499800 94702936 
2930.064 93871096 93003120 92096816 91148984 90156240 89114784 88021808 
2933.440 86875360 85675416 84424168 83127320 81793168 80432200 79057312 
2936.815 77682728 76322112 74989856 73699560 72463496 71293256 70198952 
2940.190 69188016 68266504 67437536 66701576 66055932 65494732 65009056 
2943.565 64586052 64211204 63867652 63537948 63207000 62862256 62496004 
2946.941 62106632 61698016 61279288 60862336 60460484 60086252 59747996 
2950.316 59450320 59192184 58968472 58769568 58584676 58402548 58212692 
2953.691 58007168 57780508 57529300 57252116 56948552 56618588 56262276 
2957.066 55879656 55470492 55034932 54573320 54086264 53575128 53041380 
2960.442 52486824 51913220 51322400 50716592 50097760 49468408 48831400 
2963.817 48189996 47548172 46910280 46280328 45662848 45061828 44480800 
2967.192 43923204 43391768 42889072 42416988 41976760 41569104 41194180 
2970.567 40851864 40542192 40265676 40023196 39815276 39641360 39499560 
2973.943 39384720 39288808 39201400 39108940 38996812 38850836 38657276 
2977.318 38405776 38090356 37710468 37271304 36784328 36266232 35735628 
2980.693 35212244 34714220 34254696 33842112 33479664 33165618 32894618 
2984.068 32658752 32449652 32258746 32078556 31904216 31733866 31569212 
2987.444 31414702 31276986 31161736 31072072 31006340 30957980 30915034 
2990.819 30863128 30788962 30682272 30539060 30362032 30160606 29949368 
2994.194 29743410 29557912 29404362 29288582 29211460 29169324 29155858 
2997.569 29163654 29186546 29220568 29263772 29315946 29377418 29447762 
3000.945 29524998 29606186 29687388 29765234 29837344 29902828 29961790 
3004.320 30015152 30063122 30105592 30141356 30169486 30188948 30199924 
3007.695 30203226 30199960 30191222 30177298 30157516 30130630 30095224 
3011.070 30050304 29996086 29933782 29865170 29792556 29717794 29642722 
3014.446 29568338 29495918 29426062 29360118 29299040 29243818 29195440 
3017.821 29154016 29119540 29091018 29067778 29048540 29032564 29019174 
3021.196 29008262 28999866 28993952 28990516 28989098 28988922 28989240 
3024.571 28989276 28989418 28990410 28994198 29002488 29017154 29038976 
3027.947 29067884 29102568 29141578 29183144 29226380 29270576 29315698 
3031.322 29361996 29409468 29457870 29506592 29555288 29603524 29651414 
3034.697 29699166 29747208 29796248 29846430 29898428 29953024 30011176 
3038.072 30074272 30143772 30220312 30303832 30393268 30486666 30581258 
3041.448 30674804 30765488 30852634 30936418 31018296 31099622 31181814 
3044.823 31265482 31350844 31437430 31524390 31611156 31697578 31783954 
3048.198 31870980 31959564 32050196 32142666 32236014 32328918 32419946 
3051.573 32507676 32591496 32671328 32747746 32821390 32893044 32962996 
3054.948 33032030 33100214 33168480 33237510 33308234 33381258 33456794 
3058.324 33534676 33614180 33694776 33776316 33858696 33942600 34028376 
3061.699 34115928 34204864 34294600 34384180 34473636 34563288 34654176 
3065.074 34747060 34842692 34940468 35039588 35138340 35236068 35332096 
3068.449 35427532 35523964 35623220 35726956 35835544 35949124 36066728 
3071.825 36187864 36311984 36439416 36570456 36705540 36844880 36987988 
3075.200 37134348 37283036 37433440 37585080 37737792 37891312 38045288 
3078.575 38199572 38353836 38507936 38662600 38818372 38976444 39137692 
3081.950 39302228 39469768 39639476 39809940 39979820 40148452 40315084 
3085.326 40480356 40644968 40810516 40978488 41150136 41326152 41506176 
3088.701 41689152 41873048 42055892 42236000 42412640 42586280 42758452 
3092.076 42931060 43105640 43283216 43463764 43646652 43831052 44016808 
3095.451 44204332 44395096 44591192 44794176 45005004 45224104 45450852 
3098.827 45684564 45924592 46170832 46423628 46683504 46950444 47224268 
3102.202 47503736 47787564 48074504 48363444 48653988 48946096 49239996 
3105.577 49535284 49831184 50125876 50416816 50700768 50974956 51236156 
3108.952 51482404 51712260 51924984 52120776 52300136 52463904 52612700 
3112.328 52747292 52867512 52972836 53062420 53135248 53190220 53227188 
3115.703 53245992 53247528 53233068 53204040 53161796 53107648 53042240 
3119.078 52965948 52879224 52782532 52676436 52562508 52442776 52319756 
3122.453 52196436 52075608 51959676 51850532 51749212 51656200 51571836 
3125.829 51496244 51430296 51375020 51331652 51301256 51284328 51280748 
3129.204 51289736 51309948 51340152 51379196 51426264 51481252 51544224 
3132.579 51615676 51695800 51784788 51882416 51988168 52101576 52221544 
3135.954 52347528 52478784 52614344 52753352 52894532 53036740 53178464 
3139.330 53318512 53456096 53591324 53724828 53858228 53993276 54131976 
3142.705 54275448 54424452 54578580 54736780 54897784 55060168 55222760 
3146.080 55384772 55545832 55705704 55864660 56023028 56181272 56340360 
3149.455 56501244 56664564 56830592 56998988 57168544 57337524 57504260 
3152.831 57667504 57826648 57982668 58136624 58290636 58446140 58603860 
3156.206 58763612 58924636 59085612 59245464 59403780 59560904 59717736 
3159.581 59875124 60033896 60194328 60356684 60520584 60685920 60852960 
3162.956 61021896 61192720 61365260 61538668 61711456 61882480 62050404 
3166.332 62214640 62375268 62533008 62688388 62841804 62993356 63142276 
3169.707 63287840 63429376 63566604 63699872 63830076 63958324 64085648 
3173.082 64212812 64340100 64466840 64592584 64715908 64835952 64951448 
3176.457 65062432 65169028 65272248 65373504 65474272 65575296 65677196 
3179.833 65779500 65881252 65981680 66080316 66177280 66273332 66369256 
3183.208 66465588 66562400 66658808 66753856 66846364 66935724 67022168 
3186.583 67106500 67189416 67271728 67353296 67433592 67511768 67587136 
3189.958 67659416 67728736 67795776 67861240 67925624 67989480 68052832 
3193.333 68115624 68178184 68240144 68301208 68360736 68417360 68469960 
3196.709 68517328 68558960 68595592 68628608 68659616 68690320 68721488 
3200.084 68752848 68783552 68812280 68838024 68860304 68879496 68896536 
3203.459 68912960 68929776 68948032 68968184 68990248 69013552 69037088 
3206.834 69059848 69080400 69097880 69112560 69124960 69137000 69150600 
3210.210 69167152 69186968 69209040 69230840 69249256 69261888 69267448 
3213.585 69266512 69261464 69255400 69251624 69252024 69257344 69266904 
3216.960 69278912 69291744 69303824 69314552 69324184 69333088 69342104 
3220.335 69351984 69363296 69376864 69392608 69410840 69431288 69453760 
3223.711 69477512 69502248 69527520 69553504 69580016 69607480 69635600 
3227.086 69664040 69692312 69720056 69747368 69775224 69805496 69840088 
3230.461 69880872 69928744 69983160 70042528 70104096 70164760 70222048 
3233.836 70274288 70320912 70362992 70402424 70441312 70481840 70525920 
3237.212 70574328 70627272 70684304 70744632 70807536 70872440 70939336 
3240.587 71008208 71079032 71151392 71224544 71297472 71369208 71439120 
3243.962 71507592 71575216 71643560 71713432 71785632 71859904 71935520 
3247.337 72011664 72087616 72163392 72239656 72316824 72395576 72475480 
3250.713 72555512 72634384 72710688 72783672 72853488 72921096 72987960 
3254.088 73055264 73123408 73192192 73260784 73328136 73393264 73455728 
3257.463 73515768 73573384 73629080 73682792 73734656 73784288 73831848 
3260.838 73877720 73922504 73966696 74010424 74052984 74093216 74129136 
3264.214 74158848 74181024 74195168 74201888 74203224 74201024 74197520 
3267.589 74194424 74191664 74188208 74182080 74170400 74150552 74120488 
3270.964 74079344 74027320 73966112 73897672 73824312 73748048 73669992 
3274.339 73590696 73510240 73428656 73345992 73263064 73180816 73099928 
3277.715 73021048 72943784 72867168 72790016 72710920 72628864 72543640 
3281.090 72455944 72366728 72277408 72189216 72102960 72019096 71937744 
3284.465 71858616 71781016 71704448 71628160 71551816 71475480 71399832 
3287.840 71326528 71257648 71194760 71139288 71090936 71048360 71008712 
3291.216 70969464 70928304 70884536 70839008 70793888 70751568 70713944 
3294.591 70681352 70652808 70626488 70600368 70573360 70545488 70518432 
3297.966 70494232 70475680 70464728 70462512 70469720 70486744 70513640 
3301.341 70551024 70599320 70658032 70726344 70802040 70881920 70962440 
3304.717 71039968 71111616 71175552 71230944 71277920 71317632 71351872 
3308.092 71383040 71413696 71446696 71484432 71528960 71581624 71642656 
3311.467 71711760 71788128 71870928 71959296 72052456 72149624 72249784 
3314.842 72352128 72455664 72559664 72663408 72766632 72868776 72969384 
3318.218 73067416 73161720 73251688 73336608 73416920 73493792 73568600 
3321.593 73642904 73717688 73793200 73868648 73943360 74015808 74084456 
3324.968 74148480 74206176 74256528 74298128 74329976 74351640 74363672 
3328.343 74367640 74365592 74359344 74350736 74339960 74326864 74310120 
3331.719 74288416 74260144 74224376 74180424 74128152 74067760 73999896 
3335.094 73925328 73845472 73761000 73672264 73578488 73477664 73366704 
3338.469 73243288 73104712 72950408 72780896 72598160 72404544 72202240 
3341.844 71992224 71775072 71550448 71318368 71079112 70834256 70585400 
3345.219 70334512 70083416 69833432 69585504 69340048 69097488 68858216 
3348.595 68622480 68389904 68160232 67933144 67708368 67486104 67267400 
3351.970 67053564 66845364 66643356 66447364 66256084 66068820 65884844 
3355.345 65704912 65530560 65364524 65209264 65066860 64938368 64823912 
3358.720 64722292 64632148 64551832 64479872 64415032 64356236 64302592 
3362.096 64253612 64209244 64169564 64135572 64107844 64087064 64073584 
3365.471 64067060 64067216 64073852 64086608 64105228 64129660 64159000 
3368.846 64191728 64226180 64260028 64291568 64319848 64344628 64365880 
3372.221 64383984 64398736 64408616 64411500 64404540 64384444 64348668 
3375.597 64294948 64221992 64128852 64014912 63879512 63721740 63540444 
3378.972 63334144 63100972 62839508 62548308 62227256 61876520 61497628 
3382.347 61092632 60663784 60213356 59743928 59258112 58758604 58248952 
3385.722 57733124 57215336 56699412 56188812 55685024 55189008 54699500 
3389.098 54214856 53732252 53249660 52765060 52277712 51788184 51298312 
3392.473 50811040 50329748 49857572 49396528 48947392 48509616 48081680 
3395.848 47662452 47251200 46848160 46453976 46069356 45693584 45324056 
3399.223 44956388 44585136 44204628 43811000 43402828 42981432 42550752 
3402.599 42115324 41680000 41248572 40823252 40405184 39994676 39591816 
3405.974 39196832 38809820 38430752 38058560 37692288 37330192 36970776 
3409.349 36613388 36258564 35907304 35561108 35221228 34887752 34560344 
3412.724 34237592 33918092 33601148 33287056 32977256 32673866 32379322 
3416.100 32095070 31821526 31557814 31301484 31049900 30800310 30550544 
3419.475 30299748 30048600 29798378 29551420 29310490 29077094 28852678 
3422.850 28637012 28429096 28227360 28029642 27833992 27639172 27444720 
3426.225 27250744 27058124 26868162 26681526 26499056 26320356 26144794 
3429.601 25971096 25797818 25623696 25447924 25270606 25092552 24915132 
3432.976 24740206 24568858 24401676 24238308 24077070 23916414 23754454 
3436.351 23590314 23424104 23257048 23090790 22926552 22765694 22607862 
3439.726 22452006 22297322 22143006 21989688 21838584 21691956 21551366 
3443.102 21417504 21288938 21162812 21035190 20902218 20761466 20612664 
3446.477 20457870 20300352 20144732 19994720 19852388 19718078 19590536 
3449.852 19467812 19348032 19229742 19112694 18997098 18883436 18772224 
3453.227 18663080 18555210 18447612 18339276 18229656 18118508 18006700 
3456.603 17895056 17784442 17675860 17569718 17465706 17363686 17262966 
3459.978 17162820 17062490 16961392 16859420 16756337 16652865 16550140 
3463.353 16449263 16351610 16258312 16169645 16085325 16004357 15925022 
3466.728 15845768 15765326 15682530 15597515 15510423 15422044 15333683 
3470.104 15246301 15161064 15078862 15000208 14925239 14853436 14784045 
3473.479 14716001 14647867 14578851 14508339 14436400 14363718 14290981 
3476.854 14219078 14149377 14082358 14018325 13957758 13900211 13844860 
3480.229 13790815 13736573 13680559 13622740 13563287 13504288 13448338 
3483.604 13398410 13356551 13323477 13298126 13277492 13258429 13237660 
3486.980 13213236 13185262 13155548 13126894 13102101 13083081 13070856 
3490.355 13065086 13065051 13069559 13078403 13091311 13108727 13130685 
3493.730 13156572 13185433 13215935 13246917 13278038 13309810 13344046 
3497.105 13382793 13428858 13484225 13549922 13626022 13711745 13805113 
3500.481 13904282 14007409 14113128 14220996 14331493 14445819 14566173 
3503.856 14695060 14834750 14986970 15152486 15330560 15519283 15716059 
3507.231 15918044 16122876 16329661 16539229 16753616 16975620 17207530 
3510.606 17450116 17702260 17961492 18224404 18488132 18751084 19013022 
3513.982 19275150 19538788 19804632 20072270 20340144 20606376 20869294 
3517.357 21127642 21380468 21626722 21864332 22089804 22298264 22484422 
3520.732 22643884 22773444 22872064 22940176 22979160 22990480 22974864 
3524.107 22932562 22863020 22765520 22639208 22483550 22298334 22083876 
3527.483 21841580 21573998 21284414 20977602 20657660 20328478 19992812 
3530.858 19652380 19308230 18961306 18612308 18261516 17909212 17554746 
3534.233 17197670 16837272 16474180 16110392 15749486 15396056 15053752 
3537.608 14724914 14409785 14106385 13812399 13525378 13243843 12967917 
3540.984 12698922 12437697 12184944 11940137 11701561 11466483 11232485 
3544.359 10997661 10761131 10522929 10284859 10049360 9819954 9600119 
3547.734 9393431 9201868 9025511 8862111 8708134 8558437 8408353 8254437 
3551.592 8095646 7933471 7770987 7612069 7460052 7317120 7183903 7059953 
3555.449 6944288 6835520 6731860 6631691 6532890 6433439 6331859 6227547 
3559.306 6120538 6012681 5906162 5803630 5707065 5617873 5536283 5461386 
3563.164 5391164 5322363 5250789 5171246 5079046 4970442 4845146 4706722 
3567.021 4563220 4425254 4302290 4200371 4121154 4061183 4014128 3973631 
3570.879 3934009 3891414 3844477 3792900 3737385 3678670 3617456 3554213 
3574.736 3489811 3425284 3361334 3298596 3237169 3176385 3115543 3054308 
3578.594 2993249 2934000 2878495 2828600 2784946 2747132 2713389 2682182 
3582.451 2651778 2621242 2590442 2558911 2525382 2487258 2441072 2383065 
3586.308 2311507 2227572 2136061 2044636 1961651 1893291 1842078 1806741 
3590.166 1783285 1766817 1752012 1735112 1713223 1684749 1649492 1608152 
3594.023 1562426 1514909 1468462 1425543 1387781 1355539 1327886 1302628 
3597.881 1277305 1249624 1218389 1183435 1146093 1108521 1073443 1043517 
3601.738 1020566 1005555 998215 997717 1002035 1008677 1014622 1016315 
3605.595 1010337 993798 964741 923200 871603 814236 757408 706926 666671 
3609.935 637303 616166 598448 578574 552331 517795 476695 433576 393578 
3614.275 361410 338927 324768 314953 304144 287599 261638 224839 178695 
3618.614 126756 74193 26044 -13419 -41713 -58510 -65169 -64043 -57450 -47644 
3623.436 -35352 -20277 -1855 20874 46655 71542 88907 89073 62064 2650 -87034 
3628.740 -193260 -295620 -373425 -416195 -425828 -413249 -393288 -378457 
3632.597 -377265 -392394 -420598 -455056 -488386 -515458 -534950 -548783 
3636.455 -560895 -574693 -591966 -612183 -633425 -653276 -670281 -684043 
3640.312 -695092 -703925 -710607 -714113 -713452 -707398 -696349 -681727 
3644.170 -666245 -652912 -644806 -644343 -653077 -671571 -700848 -740675 
3648.027 -791347 -852166 -920448 -991298 -1057344 -1109664 -1141093 -1147967 
3651.885 -1130948 -1095717 -1050568 -1005844 -971297 -954800 -961181 -990108 
3655.742 -1035594 -1086827 -1132369 -1163664 -1177344 -1175692 -1164292 
3659.117 -1149487 -1135905 -1126453 -1121496 -1120075 -1121132 -1123281 
3662.492 -1126652 -1130617 -1135013 -1138218 -1138483 -1133294 -1121793 
3665.868 -1104244 -1083522 -1064517 -1053973 -1058831 -1085042 -1134385 
3669.243 -1203746 -1282248 -1354360 -1404828 -1423884 -1410938 -1373187 
3672.618 -1324796 -1282115 -1260410 -1272238 -1321757 -1401955 -1493629 
3675.993 -1572771 -1621663 -1635197 -1620144 -1589278 -1556000 -1528992 
3679.369 -1512219 -1504691 -1502676 -1501587 -1497987 -1490756 -1479958 
3682.744 -1466617 -1450899 -1432273 -1409980 -1383823 -1355549 -1329124 
3686.119 -1309832 -1303622 -1315018 -1345640 -1392872 -1450106 -1509379 
3689.494 -1563395 -1607798 -1640907 -1662891 -1675004 -1678008 -1673090 
3692.870 -1661868 -1646486 -1629816 -1614400 -1601823 -1593041 -1586967 
3696.245 -1581850 -1576073 -1567885 -1557617 -1546260 -1536058 -1529917 
3699.620 -1530742 -1539657 -1557518 -1582378 -1610736 -1637342 -1657478 
3702.995 -1667314 -1665300 -1652724 -1632292 -1608260 -1584227 -1563065 
3706.371 -1545435 -1530940 -1517898 -1504360 -1490195 -1476722 -1467080 
3709.746 -1465363 -1474873 -1496667 -1528992 -1566234 -1601262 -1627869 
3713.121 -1641931 -1643020 -1633480 -1618163 -1601658 -1588288 -1581025 
3716.496 -1580563 -1586604 -1596607 -1608260 -1619088 -1627803 -1634008 
3719.872 -1638762 -1643185 -1648037 -1653550 -1659062 -1663518 -1666192 
3723.247 -1667776 -1669591 -1673816 -1682596 -1696722 -1715072 -1734247 
3726.622 -1749164 -1754147 -1745699 -1722333 -1686821 -1643713 -1600436 
3729.997 -1564716 -1542694 -1538204 -1551278 -1578252 -1612354 -1646420 
3733.373 -1676952 -1703422 -1728703 -1755698 -1785859 -1816744 -1843008 
3736.748 -1858152 -1858812 -1845021 -1820011 -1788136 -1752827 -1715897 
3740.123 -1677216 -1636121 -1594527 -1556891 -1532393 -1533251 -1570097 
3743.498 -1646651 -1752035 -1861352 -1942275 -1972951 -1950587 -1889131 
3746.874 -1809419 -1731739 -1672529 -1640874 -1638597 -1660349 -1696986 
3750.249 -1738471 -1778137 -1813346 -1843008 -1865476 -1877221 -1874252 
3753.624 -1854226 -1818757 -1772825 -1724148 -1679592 -1645397 -1624469 
3756.999 -1616843 -1620177 -1631698 -1648433 -1668568 -1690154 -1710419 
3760.375 -1725765 -1732465 -1728472 -1715138 -1696656 -1679196 -1668931 
3763.750 -1669030 -1679328 -1694874 -1708670 -1714082 -1708109 -1692530 
3767.125 -1673189 -1657015 -1649358 -1652790 -1665465 -1683091 -1700056 
3770.500 -1712036 -1717548 -1717713 -1714610 -1710782 -1707713 -1705699 
3773.875 -1704313 -1702399 -1699230 -1693917 -1686755 -1678206 -1669987 
3777.251 -1664277 -1663353 -1668337 -1678965 -1692597 -1704775 -1710749 
3780.626 -1707614 -1695468 -1677678 -1659260 -1645595 -1640280 -1643845 
3784.001 -1653847 -1666027 -1675532 -1679559 -1677843 -1672430 -1666588 
3787.376 -1662924 -1662462 -1665168 -1669492 -1673816 -1677414 -1679757 
3790.752 -1680780 -1680219 -1677051 -1670714 -1660976 -1649160 -1638234 
3794.127 -1631797 -1633282 -1644175 -1663056 -1684972 -1703257 -1712036 
3797.502 -1708637 -1694973 -1676721 -1662924 -1662891 -1683652 -1727515 
3800.877 -1788796 -1855677 -1910574 -1939339 -1935875 -1903679 -1852741 
3804.253 -1796385 -1748009 -1718010 -1711871 -1728373 -1759889 -1794009 
3807.628 -1818262 -1825686 -1815919 -1793811 -1765697 -1736887 -1709462 
3811.003 -1682629 -1654573 -1623445 -1589806 -1557915 -1534638 -1526714 
3814.378 -1539855 -1574719 -1625228 -1678602 -1720089 -1738735 -1731475 
3817.754 -1703620 -1666291 -1633183 -1616777 -1626317 -1664706 -1726689 
3821.129 -1798002 -1859867 -1897180 -1902689 -1879596 -1837597 -1789258 
3824.504 -1746326 -1716426 -1702663 -1702663 -1710122 -1716888 -1716558 
3827.879 -1706756 -1689791 -1671044 -1656586 -1651734 -1658600 -1675301 
3831.255 -1697085 -1717515 -1730122 -1730650 -1717746 -1693323 -1662330 
3834.630 -1630608 -1605949 -1594857 -1601724 -1627505 -1668865 -1718208 
3838.005 -1765235 -1801137 -1820737 -1823904 -1814533 -1798761 -1782196 
3841.380 -1768601 -1759559 -1754147 -1750913 -1748174 -1744411 -1738801 
3844.756 -1731046 -1721013 -1708769 -1694511 -1678470 -1661405 -1643548 
3848.131 -1624601 -1603638 -1579638 -1552302 -1523511 -1498219 -1484878 
3851.506 -1493728 -1534407 -1610373 -1713950 -1824135 -1915720 -1969224 
3854.881 -1979317 -1953721 -1906450 -1851454 -1797936 -1751276 -1713059 
3858.257 -1682629 -1658699 -1640247 -1626746 -1618131 -1613674 -1612188 
3861.632 -1612288 -1613113 -1615225 -1620243 -1629783 -1644175 -1660547 
3865.007 -1674080 -1678668 -1670879 -1651272 -1625591 -1603275 -1593471 
3868.382 -1603506 -1634405 -1679757 -1726326 -1759328 -1769690 -1756754 
3871.758 -1727713 -1693455 -1663914 -1645364 -1638300 -1638333 -1638696 
3875.133 -1632754 -1617140 -1592943 -1564320 -1537643 -1518724 -1512054 
3878.508 -1520143 -1542562 -1575346 -1612188 -1645132 -1666753 -1671803 
3881.883 -1659953 -1634834 -1603771 -1575214 -1557749 -1557551 -1575412 
3885.259 -1606213 -1639158 -1662330 -1665861 -1647146 -1609911 -1562768 
3888.634 -1515917 -1478869 -1458857 -1458560 -1476821 -1507398 -1542661 
3892.009 -1574587 -1597729 -1610241 -1612354 -1605883 -1593207 -1576040 
3895.384 -1556000 -1534902 -1514728 -1498021 -1487190 -1484053 -1489204 
3898.760 -1501752 -1519318 -1538666 -1557287 -1574026 -1589113 -1604794 
3902.135 -1623214 -1645100 -1670053 -1695171 -1716888 -1730947 -1734940 
3905.510 -1728109 -1712036 -1689230 -1662693 -1634933 -1607699 -1582048 
3908.885 -1558575 -1537544 -1518922 -1502610 -1488181 -1474906 -1461796 
3912.260 -1448025 -1433065 -1417213 -1401426 -1387588 -1377910 -1374013 
3915.636 -1377217 -1387026 -1401988 -1419789 -1437755 -1453507 -1465825 
3919.011 -1474014 -1478307 -1478670 -1475831 -1469788 -1461664 -1452517 
3922.386 -1443897 -1437359 -1434519 -1435377 -1439340 -1444195 -1447002 
3925.761 -1444987 -1436665 -1422266 -1403705 -1384054 -1366581 -1354789 
3929.137 -1350594 -1354789 -1366746 -1384714 -1406182 -1427914 -1447728 
3932.512 -1463051 -1472231 -1474906 -1471439 -1463249 -1451757 -1439010 
3935.887 -1426196 -1414175 -1402417 -1390428 -1377283 -1362981 -1347853 
3939.262 -1333649 -1322319 -1316009 -1316009 -1322781 -1334904 -1350429 
3942.638 -1366581 -1380421 -1389801 -1394160 -1393070 -1387918 -1379958 
3946.013 -1371040 -1362684 -1355978 -1351817 -1350033 -1350231 -1351817 
3949.388 -1353964 -1355648 -1356375 -1355252 -1351618 -1344979 -1334739 
3952.763 -1321295 -1305571 -1289218 -1274616 -1264176 -1259221 -1259848 
3956.139 -1264540 -1270850 -1275508 -1276169 -1271610 -1262161 -1249474 
3959.514 -1235598 -1222415 -1211181 -1202457 -1195849 -1191124 -1188150 
3962.889 -1186762 -1186630 -1187588 -1188414 -1188051 -1184945 -1178171 
3966.264 -1167762 -1153949 -1138416 -1122322 -1106822 -1092677 -1079654 
3969.640 -1067524 -1055757 -1044651 -1034041 -1025116 -1018339 -1014571 
3973.015 -1013976 -1015959 -1019727 -1023628 -1025876 -1024818 -1019265 
3976.390 -1009215 -995067 -978570 -961544 -945708 -932119 -921043 -912050 
3980.248 -903982 -896443 -889201 -882886 -878752 -877926 -881398 -888672 
3984.105 -898923 -910859 -922366 -932086 -939327 -943493 -945113 -943956 
3987.962 -940749 -935591 -928879 -920878 -912248 -903354 -895286 -888937 
3991.820 -885068 -884175 -886556 -891880 -899187 -906925 -913901 -918662 
3995.677 -920712 -920613 -919853 -919754 -921903 -927127 -935194 -945113 
3999.535 -955230 -964321 -971562 
##END=
