
##TITLE=mdmaHCL00399_4
##JCAMP-DX=5.01  $$ Nicolet v. 1
##DATATYPE=INFRARED SPECTRUM
##ORIGIN=UniL
##OWNER=Nicolet
##LONGDATE=2011/08/24
##TIME=10:36:49
##SPECTROMETER/DATA SYSTEM=Nicolet iS5
##DATA PROCESSING=
Ratio against background
%Transmittance->Absorbance
Truncated
ElementMultiply or ElementDivide
##COMMENTS=
Number of sample scans: 32
Collection length: 51.20 sec
Sample gain: 2.0
Background collected on: Mer Aout 24 10:34:24 2011 (GMT+02:00);
Number of background scans: 32
Background gain: 2.0
Sample spacing:  1.000
Number of scan points: 12415
Resolution points: 8192
Number of FFT points: 65536
Apodization: N-B fort;
Phase correction: Mertz;
Laser frequency: 15798.0 cm-1
Number of rejected sample scans: 0
Number of rejected background scans: 0
Bench serial number: ASB1000141;
##RESOLUTION=4.000
##XUNITS=1/CM
##YUNITS=ABSORBANCE
##FIRSTX=649.893372
##LASTX=4000.122314
##FIRSTY=0.123221
##MAXX=4000.122314
##MINX=649.893372
##MAXY=0.305346
##MINY=-0.000917
##XFACTOR=1.000000
##YFACTOR=1.000000E-009
##NPOINTS=6950
##DELTAX=0.482117
##ZPD=6100
##XYDATA=(X++(Y..Y))
649.893 123220888 122200576 121278360 120447416 119698888 119033064 
652.786 118458112 117989344 117638496 117410440 117299040 117290880 
655.679 117369200 117519744 117732952 118003824 118329168 118704752 
658.571 119123768 119576600 120054040 120550048 121062096 121591656 
661.464 122141224 122711528 123300816 123904680 124516504 125128048 
664.357 125728664 126304240 126830384 127277880 127615584 127827184 
667.250 127934288 128009376 128160952 128471776 128964752 129597144 
670.142 130294144 130972776 131565568 132035136 132369280 132582128 
673.035 132702680 132761192 132774648 132745552 132665992 132529336 
675.928 132338312 132105992 131848144 131575480 131285296 130962968 
678.820 130589936 130151616 129646568 129085288 128485800 127862320 
681.713 127224264 126574920 125916584 125256896 124610520 123992352 
684.606 123413408 122872384 122356104 121845600 121327080 120799192 
687.498 120277448 119786544 119350232 118983200 118685632 118445280 
690.391 118249160 118090792 117975744 117920312 117943744 118060656 
693.284 118276608 118589584 118994576 119491696 120089112 120801640 
696.177 121644088 122621608 123722128 124913688 126152040 127382144 
699.069 128555552 129638136 130613256 131483224 132266056 132991568 
701.962 133693768 134407952 135165872 135986688 136875120 137817392 
704.855 138785936 139744816 140659808 141509552 142287872 143003760 
707.747 143672848 144310928 144926112 145518784 146085952 146627904 
710.640 147153056 147680416 148233600 148833936 149494912 150217680 
713.533 150989840 151787760 152582624 153342064 154033344 154630912 
716.425 155118288 155496416 155786448 156032112 156292736 156627120 
719.318 157086064 157696800 158459360 159349232 160325216 161339520 
722.211 162337920 163266448 164071840 164700576 165111872 165290288 
725.104 165255280 165064032 164803344 164571872 164447312 164477456 
727.996 164672272 165015792 165483472 166062144 166756672 167588352 
730.889 168580480 169744576 171076096 172558768 174178528 175937088 
733.782 177858048 179979952 182344800 184978640 187884016 191041888 
736.674 194423696 198001440 201752208 205655984 209682048 213783456 
739.567 217912080 222038128 226185616 230439344 234929264 239755232 
742.460 244892368 250088448 254820528 258376304 259917376 258760896 
745.352 254586192 247532096 238181616 227385488 216111792 205181696 
748.245 195204896 186561952 179386352 173649616 169215824 165907552 
751.138 163536176 161929536 160958400 160532752 160615904 161220448 
754.031 162395360 164193648 166631392 169644816 173062336 176616080 
756.923 179942496 182668528 184478896 185155264 184635632 183006480 
759.816 180488304 177368976 173965008 170579232 167441344 164715152 
762.709 162491312 160791296 159586336 158809808 158379104 158201344 
765.601 158192208 158289184 158449312 158653280 158898896 159192544 
768.494 159540464 159945632 160409712 160940784 161563408 162327552 
771.387 163299600 164547664 166112080 167970384 170011504 172022240 
774.279 173733120 174842688 175096400 174363584 172660336 170154640 
777.172 167098976 163785360 160456704 157253824 154217328 151292608 
780.065 148376080 145351632 142138096 138706272 135081552 131329504 
782.958 127536384 123795128 120182616 116760112 113573352 110651360 
785.850 108013264 105668504 103615784 101843968 100334424 99067248 98025784 
789.225 97202432 96600360 96230600 96106840 96240352 96638192 97303208 
792.600 98235744 99434200 100891744 102588336 104478576 106488680 108510048 
795.975 110397928 111996568 113140008 113670368 113467024 112448352 
798.867 110590104 107930288 104569240 100662248 96392192 91972304 87611592 
802.242 83486136 79742696 76471136 73707048 71444552 69648360 68269808 
805.617 67255568 66557728 66131324 65931036 65914572 66038108 66257240 
808.992 66531776 66819972 67078852 67267248 67341840 67264544 67010416 
812.367 66570052 65954604 65192236 64325228 63399204 62454644 61525920 
815.742 60636580 59803284 59038920 58352936 57752164 57238660 56809064 
819.116 56456184 56170936 55947228 55783196 55682428 55649772 55690412 
822.491 55806892 55999772 56270312 56622852 57063900 57600988 58235240 
825.866 58955608 59732600 60518908 61254332 61868080 62294292 62479016 
829.241 62386740 62008548 61362740 60495372 59470044 58364648 57261192 
832.616 56228448 55319924 54565128 53969192 53518380 53188684 52955920 
835.990 52798884 52703032 52658816 52656832 52686608 52736776 52796004 
839.365 52856700 52916016 52974968 53035952 53100348 53166968 53233216 
842.740 53297868 53363992 53438480 53532136 53655240 53814268 54010800 
846.115 54242676 54507012 54803576 55136076 55511076 55935504 56412568 
849.490 56940544 57513152 58122724 58762552 59428664 60119548 60834396 
852.865 61570584 62323400 63087136 63857132 64632072 65415064 66212164 
856.239 67029708 67872000 68740080 69632640 70548600 71489744 72461776 
859.614 73475032 74541480 75671848 76874480 78151184 79497880 80900832 
862.989 82336440 83769528 85150128 86420536 87519696 88389688 88992192 
866.364 89313960 89376240 89230904 88961240 88672360 88470640 88464992 
869.739 88752832 89408760 90489776 92024400 94009472 96402200 99115080 
873.113 102018688 104927872 107623720 109873984 111438736 112126088 
876.006 111813112 110464416 108142112 104992888 101232160 97092864 92813688 
879.381 88611000 84645320 81034256 77847120 75111672 72830056 70986048 
882.756 69551592 68487536 67745584 67273360 67012080 66907740 66917060 
886.131 67007400 67162584 67380216 67668680 68042760 68520624 69121344 
889.505 69860360 70748808 71791408 72985336 74322304 75791520 77384664 
892.880 79099728 80944104 82932240 85082896 87410152 89913144 92563360 
896.255 95294176 97997752 100510792 102636128 104163192 104883032 104644072 
899.630 103375464 101106520 97964960 94161648 89965560 85641112 81436232 
903.005 77550800 74110160 71183640 68788256 66905460 65496116 64512128 
906.379 63905804 63628972 63639364 63904500 64400548 65115980 66049644 
909.754 67206744 68593104 70209624 72045728 74076440 76256632 78515352 
913.129 80762296 82883752 84751720 86250272 87283664 87800760 87807160 
916.504 87368256 86601896 85649992 84673024 83817352 83194048 82881664 
919.879 82913672 83282744 83943520 84821832 85825016 86848608 87802784 
923.254 88624128 89288856 89821176 90289160 90797016 91457960 92385352 
926.628 93672984 95375184 97501648 100001712 102764528 105598736 108242392 
930.003 110399552 111740128 111975728 110915456 108493880 104806552 
932.896 100090024 94702776 89037504 83468624 78322576 73817120 70077768 
936.271 67147768 65006016 63593908 62833876 62650004 62965392 63702016 
939.646 64778404 66090844 67511648 68900848 70102176 70974184 71416856 
943.020 71380536 70883248 70000952 68858408 67594296 66336944 65192744 
946.395 64225800 63464620 62910504 62547816 62353308 62300952 62366352 
949.770 62524320 62749220 63018328 63310608 63610636 63909412 64202712 
953.145 64490592 64775212 65060704 65352968 65660008 65992556 66362268 
956.520 66779472 67251768 67782488 68371360 69016696 69717640 70475488 
959.894 71294312 72178928 73133880 74161760 75263424 76439448 77692240 
963.269 79026632 80451816 81978968 83619512 85384232 87281112 89314488 
966.644 91485168 93789664 96219384 98758392 101382448 104058760 106742128 
970.019 109381864 111921016 114299528 116464192 118368416 119976984 
972.912 121269376 122238288 122890456 123244392 123331400 123193744 
975.804 122878056 122437792 121925976 121390128 120877176 120429880 
978.697 120088152 119894616 119891736 120121136 120626416 121446480 
981.590 122616648 124168504 126125184 128500152 131290896 134473520 
984.482 137991184 141742304 145587168 149330672 152736016 155562160 
987.375 157564368 158544576 158385584 157060304 154647760 151315136 
990.268 147313440 142929056 138446336 134139376 130221024 126842048 
993.160 124098032 122025704 120622568 119858112 119688768 120063864 
996.053 120931976 122249528 123976888 126080664 128535288 131316272 
998.946 134398368 137752272 141333152 145075552 148891936 152658336 
1001.839 156226832 159439184 162129568 164161632 165445248 165950464 
1004.731 165718976 164861696 163554624 162001216 160422384 159032576 
1007.624 158001520 157461616 157498800 158153952 159439184 161346880 
1010.517 163861952 166967888 170653024 174912864 179748176 185166416 
1013.409 191179616 197799984 205032496 212862576 221228592 230006304 
1016.302 238983760 247833376 256155520 263493264 269390944 273507040 
1019.195 275659680 275891104 274454176 271802112 268512864 265158896 
1022.087 262292032 260343584 259576592 260113184 261928112 264893568 
1024.980 268798176 273395168 278431776 283636672 288754240 293538144 
1027.873 297742080 301155968 303613888 305015200 305345568 304676224 
1030.766 303156416 300974176 298348416 295498304 292605440 289817472 
1033.659 287219744 284823104 282560800 280291776 277830912 274957120 
1036.552 271467136 267210784 262098016 256120896 249339808 241872256 
1039.446 233866768 225490240 216921776 208325696 199853600 191638160 
1042.339 183777680 176349952 169416736 163024864 157220704 152049280 
1045.232 147546272 143740576 140645104 138255232 136552288 135506224 
1048.125 135082240 135240448 135940240 137140944 138797296 140864480 
1051.018 143298336 146054544 149095408 152386944 155895744 159587248 
1053.911 163414768 167310400 171187280 174928688 178393856 181439152 
1056.804 183915136 185691040 186675264 186819824 186138720 184708528 
1059.697 182676096 180239504 177623568 175077072 172826976 171065376 
1062.590 169951728 169590864 170043024 171324704 173411168 176236784 
1065.483 179693840 183649088 187935504 192364464 196754800 200924448 
1068.376 204711328 207987376 210644672 212601360 213799568 214197744 
1071.269 213775984 212536592 210505776 207733504 204292096 200284384 
1074.162 195837184 191105888 186281584 181563344 177156432 173259616 
1077.055 170030432 167593616 166031984 165380528 165633232 166736240 
1079.948 168592672 171045328 173880400 176851280 179666832 182043168 
1082.842 183750592 184630320 184642224 183866464 182501632 180821696 
1085.735 179136832 177774384 177008736 177051168 178031904 179978848 
1088.628 182823152 186396416 190466480 194733104 198860864 202537488 
1091.521 205470032 207430432 208280816 207965888 206519488 204045616 
1094.414 200710080 196708048 192233328 187473456 182576784 177650512 
1097.307 172769712 167976960 163295744 158738784 154311024 150014000 
1100.200 145847760 141813200 137917760 134178904 130624312 127293600 
1103.093 124233864 121490184 119107896 117126440 115576712 114486016 
1105.986 113874976 113757424 114141344 115026880 116407736 118269960 
1108.879 120594792 123357592 126523448 130049024 133874344 137914944 
1111.772 142068560 146204288 150165664 153793248 156920816 159397584 
1114.665 161110816 161984624 161993232 161158880 159550080 157272816 
1117.558 154451952 151230368 147742576 144100848 140397600 136695168 
1120.451 133033736 129442704 125944880 122564096 119328080 116264632 
1123.344 113402832 110772568 108401072 106318032 104554536 103139528 
1126.238 102102848 101470880 101263616 101495616 102172808 103291016 
1129.131 104833336 106767840 109047216 111601592 114344104 117173832 
1132.024 119971920 122623416 125025512 127099816 128812400 130178672 
1134.917 131266472 132179216 133046344 134001000 135146496 136547984 
1137.810 138212688 140090208 142071824 144005872 145728576 147065552 
1140.703 147866528 148023344 147467248 146178832 144181152 141534368 
1143.596 138325392 134660512 130665568 126465680 122183368 117934184 
1146.489 113810208 109886736 106221720 102851648 99799656 97074224 94671088 
1149.864 92576200 90769248 89228664 87933760 86867632 86017840 85373752 
1153.240 84925448 84663200 84576680 84657120 84898176 85296560 85852024 
1156.615 86566224 87441232 88479248 89682128 91052456 92593216 94307856 
1159.990 96198832 98265480 100501016 102890152 105408840 108019848 110673328 
1163.365 113310728 115859056 118238192 120367712 122162736 123548096 
1166.258 124463056 124864032 124732864 124077840 122932672 121349248 
1169.151 119392496 117136248 114651312 112008056 109274760 106509688 
1172.044 103766432 101090128 98514096 96064960 93763104 91623440 89659560 
1175.420 87882032 86297360 84908496 83712960 82705544 81879424 81228728 
1178.795 80749528 80439096 80294728 80311872 80482528 80795856 81238512 
1182.170 81795088 82450632 83189432 83995344 84853824 85751136 86676808 
1185.545 87625336 88595600 89590648 90613728 91665088 92737256 93813192 
1188.921 94863592 95851056 96734608 97471792 98028816 98383784 98530344 
1192.296 98479304 98258128 97910112 97485104 97038216 96622376 96278440 
1195.671 96035576 95908160 95896424 95989648 96167744 96405048 96666088 
1199.046 96906744 97077000 97116824 96967424 96578840 95915552 94967488 
1202.422 93751632 92313584 90717064 89038432 87360720 85757720 84294688 
1205.797 83023656 81975968 81166888 80593968 80241840 80085296 80094304 
1209.172 80239360 80490496 80819848 81202840 81615200 82035960 82449112 
1212.547 82844176 83218816 83578544 83936328 84309408 84716880 85178424 
1215.923 85710328 86325656 87033752 87838600 88739016 89728200 90795096 
1219.298 91924976 93101192 94309304 95536624 96775008 98020928 99275208 
1222.673 100542320 101829352 103145784 104501632 105906032 107365608 
1225.566 108881776 110448560 112050768 113665720 115263672 116810104 
1228.459 118273128 119623784 120839760 121907856 122822488 123586632 
1231.352 124210968 124716400 125135288 125508176 125887840 126331312 
1234.245 126891624 127618032 128546744 129698560 131079672 132680552 
1237.138 134477808 136430896 138487312 140580304 142627504 144543728 
1240.031 146239968 147629760 148642816 149221040 149322160 148920800 
1242.925 148005488 146581184 144669728 142312928 139571104 136515456 
1245.818 133230344 129802912 126317800 122865696 119534280 116404880 
1248.711 113553256 111031904 108864368 107038912 105508272 104194184 
1251.604 102995272 101811880 100552928 99152672 97583032 95852504 94005688 
1254.979 92108360 90242008 88485992 86900448 85523888 84364128 83401528 
1258.354 82591760 81875616 81189096 80463984 79641824 78677080 77539320 
1261.729 76219592 74729528 73101888 71382408 69626304 67890440 66221424 
1265.105 64656144 63218884 61921956 60770788 59765640 58903008 58176096 
1268.480 57574696 57086836 56699788 56403136 56190432 56058428 56005876 
1271.855 56031132 56130288 56297244 56525284 56808652 57145640 57537396 
1275.230 57988312 58502700 59084280 59735032 60455380 61245752 62106480 
1278.606 63037484 64036304 65095804 66203520 67340064 68480480 69598112 
1281.981 70662632 71644656 72516976 73253024 73831224 74234600 74452352 
1285.356 74481496 74326904 74000640 73519224 72902400 72171688 71347376 
1288.731 70452496 69513448 68558960 67623648 66743268 65948740 65264204 
1292.107 64700292 64251496 63895868 63596784 63309304 62981368 62566644 
1295.482 62030680 61356368 60549876 59639272 58672200 57702508 56784408 
1298.857 55963248 55266560 54706640 54281268 53979248 53783704 53674320 
1302.232 53630760 53629856 53647552 53662252 53654264 53609952 53522916 
1305.608 53392428 53221832 53016708 52783472 52529264 52263136 51997584 
1308.983 51746672 51525608 51347720 51222028 51153060 51142664 51192052 
1312.358 51304648 51486660 51745292 52087228 52515464 53029288 53625020 
1315.733 54298988 55050240 55881468 56798416 57807272 58912836 60116504 
1319.109 61415676 62804236 64273552 65810732 67396056 69001744 70588168 
1322.484 72101896 73485120 74676312 75622816 76293600 76684960 76826192 
1325.859 76772728 76603808 76405904 76255248 76214608 76318048 76569464 
1329.234 76944960 77401608 77889696 78361624 78786744 79155384 79480576 
1332.610 79792864 80134232 80551328 81083776 81763608 82610544 83630080 
1335.985 84813904 86138392 87569352 89058936 90551152 91989184 93314776 
1339.360 94478544 95445768 96197056 96730296 97055328 97189008 97149096 
1342.735 96951760 96612120 96143304 95559048 94872496 94094520 93233448 
1346.111 92296256 91290464 90229936 89139320 88053216 87019504 86094480 
1349.486 85333744 84796176 84536216 84600304 85030624 85857400 87097200 
1352.861 88750152 90798160 93204704 95909776 98836344 101887200 104942264 
1356.236 107875536 110552448 112838032 114618616 115799224 116316648 
1359.129 116147384 115307432 113852672 111866480 109466776 106795512 
1362.022 104005872 101268352 98739960 96539736 94737304 93338144 92294704 
1365.398 91519768 90913176 90376952 89824760 89197336 88461944 87611184 
1368.773 86659456 85634856 84573496 83510144 82479640 81513968 80640080 
1372.148 79885928 79280248 78851816 78631136 78641696 78892704 79373720 
1375.523 80053304 80887376 81824728 82820400 83841544 84868568 85897736 
1378.899 86937640 88005008 89117352 90287448 91516208 92787888 94064816 
1382.274 95285096 96373120 97237704 97787288 97945192 97651608 96881968 
1385.649 95657656 94064608 92251096 90401064 88708936 87318704 86300280 
1389.024 85653624 85328904 85254672 85354112 85561616 85818680 86070112 
1392.400 86267496 86365472 86330144 86149048 85836280 85430376 84977592 
1395.775 84517544 84067632 83624016 83170496 82694192 82197408 81704176 
1399.150 81254656 80890376 80641480 80514584 80495720 80556464 80666048 
1402.525 80796296 80925304 81040928 81140648 81230200 81321976 81431592 
1405.901 81573504 81756856 81984368 82253504 82559096 82897432 83269584 
1409.276 83682744 84148824 84680512 85285952 85965816 86712408 87512160 
1412.651 88348712 89208480 90082400 90965216 91855448 92751944 93652184 
1416.026 94552552 95448616 96338416 97227096 98131224 99080904 100109552 
1419.402 101249440 102515448 103899840 105380792 106930776 108526216 
1422.295 110148024 111787400 113444264 115123488 116833480 118580040 
1425.188 120363032 122172440 123986976 125772696 127488952 129085872 
1428.081 130508792 131709952 132649792 133304056 133665696 133745208 
1430.974 133571896 133191216 132667912 132073920 131472048 130908760 
1433.867 130400824 129938752 129500568 129074456 128683432 128400384 
1436.760 128324240 128538672 129070176 129873600 130852192 131881360 
1439.653 132841584 133618040 134113696 134263840 134030640 133407984 
1442.546 132414400 131087776 129478336 127641496 125639320 123528200 
1445.439 121352792 119151096 116958592 114823976 112826344 111068408 
1448.332 109658200 108683808 108184792 108154864 108556416 109343120 
1451.225 110470136 111894136 113571720 115442360 117424728 119428352 
1454.118 121339040 123028104 124362632 125206544 125472608 125171232 
1457.011 124450256 123533128 122612432 121786352 121054864 120374448 
1459.905 119703648 119026088 118347840 117684680 117043832 116419960 
1462.798 115797840 115166040 114533848 113940616 113443184 113095080 
1465.691 112916104 112883576 112939824 113014184 113044440 112978424 
1468.584 112776896 112404904 111819160 110967640 109798200 108283760 
1471.477 106457184 104436688 102420896 100615744 99167824 98121424 97436712 
1474.852 97035816 96848016 96834312 96983704 97300384 97785432 98427672 
1478.227 99204176 100090776 101067968 102128624 103275888 104517136 
1481.120 105857368 107294712 108819800 110419504 112079768 113785488 
1484.013 115520992 117264224 118982112 120633552 122164712 123508512 
1486.906 124589648 125314368 125570552 125241544 124216448 122433096 
1489.800 119917888 116804728 113312752 109677392 106095344 102670168 
1492.693 99411864 96270088 93165240 90025200 86816272 83555488 80312232 
1496.068 77190960 74292624 71685528 69392136 67403944 65697236 64249852 
1499.443 63045764 62069628 61303520 60726696 60318648 60062356 59943660 
1502.818 59944648 60034468 60162204 60242248 60160760 59791496 59029732 
1506.194 57856476 56371028 54756288 53177828 51715060 50361408 49073436 
1509.569 47811424 46562104 45336928 44166844 43086208 42117256 41270176 
1512.944 40542012 39923548 39405328 38977204 38627288 38337908 38090320 
1516.319 37871972 37684700 37546896 37484040 37514636 37636604 37824796 
1519.695 38034980 38224608 38370592 38489364 38629896 38849060 39173840 
1523.070 39587240 40040380 40477376 40861256 41182408 41464908 41751780 
1526.445 42089148 42501788 42987940 43528844 44105368 44711716 45356496 
1529.820 46055872 46821956 47654204 48541964 49471304 50438884 51461892 
1533.196 52577992 53828636 55230248 56767712 58399708 60083704 61785140 
1536.571 63488588 65201944 66940100 68723424 70563848 72453752 74360328 
1539.946 76233528 78035768 79751496 81390624 82980976 84543752 86089056 
1543.321 87612928 89101888 90538056 91905240 93194848 94402232 95518384 
1546.697 96523512 97373968 98005016 98346760 98335080 97945112 97204176 
1550.072 96184528 94963944 93582304 92022432 90219368 88099528 85631024 
1553.447 82863624 79935832 77041728 74341336 71913032 69727872 67667704 
1556.822 65555380 63196844 60454204 57327616 54039696 50975332 48475348 
1560.198 46658344 45437164 44634228 44080948 43653176 43263632 42861348 
1563.573 42424952 41962708 41505880 41095208 40764796 40523204 40351588 
1566.948 40209116 40049940 39834128 39540896 39175948 38770112 38367480 
1570.323 38006804 37711332 37485844 37321852 37204084 37111828 37019992 
1573.698 36895308 36701896 36410844 36015320 35547372 35075724 34684360 
1577.074 34430520 34327664 34351368 34463376 34629416 34830304 35062468 
1580.449 35332348 35649112 36018308 36439704 36908292 37418124 37963016 
1583.824 38536396 39128156 39721920 40297704 40837556 41331652 41784212 
1587.199 42214124 42652944 43136376 43698716 44370912 45175972 46131772 
1590.575 47249868 48531400 49960940 51499756 53089940 54654252 56110192 
1593.950 57388720 58437080 59228564 59761040 60052692 60135264 60046564 
1597.325 59829068 59521720 59156380 58756936 58333912 57885212 57397532 
1600.700 56853292 56238100 55548880 54797788 54012904 53233404 52498116 
1604.076 51841868 51289436 50854584 50544960 50363604 50308988 50371120 
1607.451 50527392 50744484 50979464 51193728 51364540 51489720 51588024 
1610.826 51690800 51832384 52036948 52315196 52664652 53076120 53538020 
1614.201 54038792 54570048 55123436 55694216 56284720 56912252 57607232 
1617.577 58398684 59306456 60327788 61438808 62599896 63767672 64907776 
1620.952 65996564 67032180 68031328 69022984 70032488 71071464 72136200 
1624.327 73212192 74287000 75357256 76428384 77508264 78602072 79710576 
1627.702 80834528 81981736 83171656 84436808 85811408 87317208 88957224 
1631.078 90713144 92555736 94451360 96380768 98347632 100378136 102517880 
1634.453 104818360 107322288 110038296 112944688 116010640 119205200 
1637.346 122519760 125958160 129520696 133194048 136946560 140743680 
1640.239 144545200 148321008 152056624 155737648 159339808 162822928 
1643.132 166118400 169147344 171840832 174151904 176076064 177650160 
1646.025 178950528 180059536 181055504 182011680 182986880 184033072 
1648.918 185187472 186460192 187820352 189182144 190417376 191343504 
1651.811 191784320 191674016 191189920 190735248 190677120 191133728 
1654.704 191946928 192862464 193652272 194181584 194402416 194321216 
1657.597 193975696 193403056 192620112 191616064 190361696 188825632 
1660.490 186987616 184843872 182406816 179701520 176771264 173683040 
1663.384 170526080 167398080 164375648 161485888 158694560 155903472 
1666.277 152970240 149729200 146033216 141792352 137009104 131790816 
1669.170 126327632 120847944 115554760 110589760 106020680 101848072 
1672.063 98019056 94437888 90980912 87520384 83967760 80328776 76736904 
1675.438 73427592 70629456 68474192 66948564 65940448 65303908 64924664 
1678.813 64747288 64770596 65023796 65531252 66287540 67259904 68412440 
1682.188 69739784 71301184 73224544 75668336 78713224 82302320 86264792 
1685.564 90421872 94689008 99081320 103664496 108496432 113581096 118859336 
1688.939 124192184 129408328 134356624 138929920 143093904 146868816 
1691.832 150301520 153436736 156299056 158883408 161164544 163106368 
1694.725 164686160 165916080 166860496 167609264 168209808 168625456 
1697.618 168711840 168247248 166947824 164565344 161036144 156641184 
1700.511 151986400 147695040 144100928 141146688 138555728 135998832 
1703.404 133219272 130066720 126506912 122612784 118532544 114440992 
1706.297 110471544 106693448 103112048 99693016 96380528 93109728 89820600 
1709.673 86465328 83024936 79513600 75980144 72489960 69097136 65837792 
1713.048 62715916 59713744 56811636 54007048 51321432 48794176 46460648 
1716.423 44334252 42397220 40624664 39006456 37565356 36348260 35394924 
1719.798 34711024 34258892 33969612 33763888 33580924 33392240 33212222 
1723.174 33083908 33057484 33159218 33378572 33672968 33991364 34298440 
1726.549 34583952 34861364 35150804 35462228 35784340 36089520 36348476 
1729.924 36549732 36705680 36847696 37005160 37191992 37396020 37588624 
1733.299 37745992 37880212 38044596 38315288 38740480 39315724 39997908 
1736.675 40730552 41470740 42194772 42906080 43625952 44378068 45168288 
1740.050 45975936 46758556 47473980 48096304 48622856 49067944 49448804 
1743.425 49770468 50019492 50166632 50178720 50035556 49734424 49290476 
1746.800 48724708 48053332 47276024 46375952 45327660 44112524 42731688 
1750.176 41212684 39604956 37966340 36348728 34784896 33287804 31855934 
1753.551 30479414 29143954 27831908 26521878 25194824 23842900 22478560 
1756.926 21138632 19873720 18726800 17719758 16842886 16061705 15328878 
1760.301 14604174 13870209 13139428 12447994 11835797 11327362 10919403 
1763.677 10586991 10297480 10026743 9764306 9512359 9277651 9064587 8869144 
1767.534 8682139 8494471 8305432 8122686 7958207 7817944 7695433 7570157 
1771.391 7416167 7217489 6979203 6729538 6504233 6328834 6205329 6115766 
1775.249 6032335 5933503 5810884 5672454 5534337 5411159 5306330 5209574 
1779.106 5102647 4970912 4813216 4644392 4487954 4362362 4272040 4204118 
1782.964 4137444 4052152 3941598 3814961 3692771 3594670 3528458 3487439 
1786.821 3456143 3419974 3373756 3323504 3281503 3257700 3251791 3250756 
1790.678 3233831 3184763 3101326 3000155 2907681 2847110 2824664 2828933 
1794.536 2838672 2835403 2812892 2776976 2741263 2717390 2708754 2707254 
1798.393 2698785 2671247 2622909 2564144 2513085 2483292 2478193 2487724 
1802.251 2496055 2490390 2468863 2440140 2419048 2416816 2433675 2459133 
1806.108 2477327 2476461 2454601 2421447 2392060 2379200 2385031 2400156 
1809.966 2408353 2397325 2364741 2320934 2281762 2260345 2259379 2270570 
1813.823 2279730 2276166 2258213 2235132 2221178 2227306 2254649 2292587 
1817.680 2326497 2343587 2342621 2332793 2329329 2343687 2376735 2418581 
1821.538 2453768 2470129 2464531 2444338 2422446 2410252 2410418 2416183 
1825.395 2416382 2404055 2380866 2356479 2341155 2339922 2347285 2348984 
1829.253 2329462 2281828 2213551 2144852 2097105 2081557 2094474 2120179 
1833.110 2140356 2142221 2125905 2102632 2088881 2096139 2124574 2163000 
1836.968 2196966 2216282 2222177 2226273 2244391 2286691 2351549 2426345 
1840.825 2493556 2540246 2563277 2570676 2576576 2594675 2629143 2674014 
1844.682 2718457 2756068 2790115 2831434 2890303 2970596 3064485 3157360 
1848.540 3232362 3280000 3301735 3309380 3317360 3333220 3354690 3370050 
1852.397 3366377 3336625 3284674 3223216 3167540 3126022 3095753 3064585 
1856.255 3018873 2951948 2867555 2779310 2701719 2643244 2600508 2561177 
1860.112 2511385 2444505 2365474 2288357 2228238 2193170 2179483 2174821 
1863.969 2164531 2140989 2107393 2075963 2060050 2065776 2087549 2110489 
1867.827 2118447 2103264 2070403 2036247 2018437 2024030 2046400 2068706 
1871.684 2075131 2057353 2020002 1975630 1939751 1920015 1912560 1904639 
1875.542 1882442 1839915 1783085 1727029 1687643 1673174 1679261 1691868 
1879.399 1694429 1677764 1644171 1605525 1575096 1559932 1556440 1552916 
1883.257 1537553 1505167 1462444 1423881 1404135 1408889 1431494 1455463 
1887.114 1464771 1450509 1416135 1375449 1345468 1336228 1345701 1362452 
1890.971 1373754 1373787 1366707 1363749 1375881 1406761 1449977 1491801 
1894.829 1519298 1528243 1526081 1528143 1547628 1589395 1646000 1702911 
1898.686 1745225 1767482 1775333 1782819 1803813 1843010 1893890 1942280 
1902.544 1974965 1986581 1984617 1983153 1996567 2030121 2077029 2122276 
1906.401 2151578 2158504 2148315 2133264 2126505 2132132 2144419 2150080 
1910.259 2137726 2105029 2061115 2021500 1999663 1999630 2013877 2028257 
1914.116 2029189 2011913 1981955 1951133 1928734 1915655 1902476 1875886 
1917.973 1826838 1759897 1691169 1642375 1628073 1647962 1686778 1721473 
1921.831 1732983 1714221 1674604 1632729 1607919 1607553 1625845 1647098 
1925.688 1657674 1652818 1639747 1632264 1641743 1668784 1702911 1727461 
1929.546 1729091 1707468 1675070 1651721 1652186 1678762 1718379 1751380 
1933.403 1760196 1740834 1703743 1668784 1652585 1659637 1679926 1695560 
1937.260 1692234 1667586 1633095 1608351 1609515 1639814 1687510 1732551 
1941.118 1757934 1759398 1748452 1743096 1759730 1799821 1849931 1890129 
1944.975 1905471 1895321 1875354 1868931 1892792 1950101 2026360 2099202 
1948.833 2148714 2170192 2173722 2179650 2203493 2247722 2299049 2337491 
1952.690 2345919 2321734 2277898 2234766 2208855 2203027 2204493 2193803 
1956.548 2157572 2096605 2028191 1975897 1956525 1968907 1994370 2005987 
1960.405 1984384 1930898 1866136 1818520 1808771 1839449 1892858 1942280 
1964.262 1966610 1961817 1943944 1937554 1959121 2008717 2066608 2106461 
1968.120 2110356 2080957 2039376 2016340 2032152 2086218 2156273 2212219 
1971.977 2230636 2209555 2168161 2136028 2138492 2182114 2254150 2331927 
1975.835 2400023 2458333 2522816 2612342 2734528 2875126 3005327 3091782 
1979.692 3115943 3082805 3017138 2949913 2902311 2877361 2861285 2835170 
1983.550 2787114 2720591 2655378 2613775 2608675 2636143 2676348 2706020 
1987.407 2711688 2696551 2678315 2679748 2714622 2778743 2852946 2913051 
1991.264 2943774 2946410 2939304 2943341 2972498 3023777 3080202 3119614 
1995.122 3130060 3113373 3087177 3071426 3078067 3103862 3132363 3143410 
1998.979 3125988 3085542 3041428 3017038 3025312 3061983 3106198 3134098 
2002.837 3128658 3091148 3039360 2997787 2984508 3000989 3033521 3060815 
2006.694 3069558 3060014 3045499 3043397 3062483 3096988 3129526 3142175 
2010.552 3128491 3100191 3080870 3092883 3145879 3227656 3311751 3367612 
2014.409 3378398 3347143 3296727 3255730 3243545 3262140 3296760 3327009 
2018.266 3339831 3338061 3337627 3357995 3409287 3485635 3567175 3633026 
2022.124 3670115 3682011 3684283 3695478 3724351 3764924 3798114 3803763 
2025.981 3773614 3714493 3646625 3591930 3562331 3554246 3552710 3540617 
2029.839 3510052 3469536 3437307 3430961 3457112 3506946 3560293 3598546 
2033.696 3613213 3610172 3606464 3618291 3650267 3694075 3733375 3754630 
2037.553 3756268 3751054 3757204 3789557 3849425 3921738 3982861 4013525 
2041.411 4007205 3975504 3939425 3918762 3922273 3943371 3965105 3970923 
2045.268 3955909 3928391 3907328 3910504 3945143 4003828 4069243 4121288 
2049.126 4147078 4145908 4124131 4090114 4048507 3998143 3936215 3863933 
2052.983 3790861 3731971 3702796 3710650 3749183 3800120 3839664 3850060 
2056.841 3827830 3784143 3737820 3707375 3701226 3715161 3736082 3751255 
2060.698 3754630 3751255 3752090 3766896 3798649 3840867 3880916 3907996 
2064.555 3918863 3919230 3920701 3932738 3957548 3987040 4008777 4011285 
2068.413 3990351 3951529 3905623 3863632 3830772 3804632 3779062 3749684 
2072.270 3718269 3692604 3682679 3694208 3724986 3765058 3800855 3822615 
2076.128 3829970 3830538 3836020 3855108 3887836 3925683 3956043 3968649 
2079.985 3961092 3940127 3917926 3903984 3901978 3907361 3911206 3906024 
2083.843 3891380 3872959 3861092 3863833 3882220 3909300 3934744 3948654 
2087.700 3947383 3934309 3916154 3899772 3886365 3872090 3850795 3819440 
2091.557 3780433 3743033 3718670 3715228 3733241 3766362 3802727 3832777 
2095.415 3853236 3866875 3880147 3897565 3918562 3937118 3946480 3942802 
2099.272 3929261 3914382 3908699 3918027 3940428 3966576 3984733 3987743 
2103.130 3975872 3956879 3942401 3940997 3953569 3973565 3990619 3996705 
2106.987 3990518 3977744 3967479 3967211 3978614 3996471 4012455 4020147 
2110.844 4018274 4011051 4005333 4005433 4010415 4014930 4012021 3998109 
2114.702 3976541 3955408 3945343 3952298 3975604 4007640 4038875 4062086 
2118.559 4076501 4087973 4104396 4131457 4168455 4208166 4240989 4260630 
2122.417 4266820 4265783 4266519 4276222 4294794 4316211 4330903 4330769 
2126.274 4314270 4285860 4252566 4220579 4190970 4158954 4118311 4065029 
2130.132 4000383 3931835 3869048 3818337 3780667 3751455 3723449 3693640 
2133.989 3664067 3641613 3634162 3644620 3667108 3689897 3701660 3695445 
2137.846 3674927 3651169 3635465 3634362 3644954 3655045 3651871 3629050 
2141.704 3589659 3547198 3517000 3509618 3524650 3553010 3579870 3594737 
2145.561 3595238 3588423 3583779 3588389 3601419 3614950 3620997 3615919 
2149.419 3604326 3597410 3605428 3629918 3661828 3683247 3676898 3633627 
2153.276 3557453 3462723 3367913 3286377 3219677 3163268 3113106 3073095 
2157.134 3061082 3102127 3214537 3397833 3627513 3861626 4056634 4186253 
2160.991 4246643 4254573 4234498 4205891 4177253 4147112 4111320 4071015 
2164.848 4036367 4022454 4041182 4092990 4163771 4229479 4270534 4275520 
2168.706 4249487 4209003 4174610 4158151 4159322 4167184 4166950 4150357 
2172.563 4120418 4088809 4071952 4080615 4114263 4163236 4214255 4256781 
2176.421 4288737 4315140 4341746 4371064 4399346 4417187 4418325 4402727 
2180.278 4379063 4361793 4362897 4384251 4416953 4445171 4454042 4437472 
2184.135 4403463 4366813 4345126 4348506 4374578 4412902 4451130 4481057 
2187.993 4504024 4527628 4561445 4609062 4667334 4725647 4773048 4804472 
2191.850 4822363 4835229 4852685 4879457 4911727 4942860 4963638 4970006 
2195.708 4965482 4956936 4951138 4950300 4950534 4945038 4928919 4903718 
2199.565 4877615 4861698 4864680 4886327 4918162 4946848 4961360 4957941 
2203.423 4943698 4930661 4932035 4954288 4994138 5041568 5085851 5119846 
2207.280 5143919 5163567 5184357 5208601 5232780 5249783 5253505 5243679 
2211.137 5225637 5209339 5202565 5207629 5218863 5227716 5224765 5207159 
2214.995 5178791 5148714 5124506 5109855 5101038 5090276 5070799 5040931 
2218.852 5004596 4971045 4948524 4939575 4941050 4945005 4942726 4929656 
2222.710 4906768 4878117 4848296 4819548 4788961 4753384 4710038 4661306 
2226.567 4613549 4574772 4549525 4537237 4532214 4526154 4513365 4494717 
2230.425 4475768 4465826 4471684 4493444 4525318 4559168 4587396 4607890 
2234.282 4624834 4645464 4675406 4716201 4762763 4807454 4843940 4870310 
2238.139 4889845 4909415 4934448 4965918 5001110 5033958 5060005 5079616 
2241.997 5097551 5120282 5152939 5195859 5244182 5290767 5329575 5359194 
2245.854 5383616 5409213 5440650 5478733 5519068 5554305 5578469 5589477 
2249.712 5590417 5587464 5586792 5590686 5597734 5604011 5605924 5602802 
2253.569 5597600 5595016 5598372 5607669 5618679 5625190 5621968 5606763 
2257.427 5581422 5550076 5516618 5482793 5448803 5413407 5376605 5341449 
2261.284 5312267 5292980 5285132 5285803 5289056 5289325 5283455 5272723 
2265.141 5262460 5258770 5264573 5278659 5295261 5306967 5308745 5300024 
2268.999 5284495 5268497 5257798 5253773 5254478 5255887 5253908 5247569 
2272.856 5238649 5230197 5225033 5223692 5224060 5223323 5220405 5216079 
2276.714 5213866 5217454 5228454 5245356 5264271 5280336 5290733 5295999 
2280.571 5299487 5305893 5319210 5339772 5365736 5393781 5421090 5446756 
2284.428 5472022 5498296 5525578 5552929 5577261 5595620 5606998 5613275 
2288.286 5618142 5625694 5638886 5657482 5679033 5700150 5718279 5733018 
2292.143 5745709 5758635 5773174 5789560 5806552 5822536 5836976 5850846 
2296.001 5865925 5883860 5904583 5926079 5945226 5959435 5967497 5970923 
2299.858 5972301 5974316 5977810 5981740 5982748 5978415 5967161 5950533 
2303.716 5931689 5913652 5898235 5885170 5872206 5856891 5838286 5817432 
2307.573 5796914 5779286 5765485 5754170 5742687 5727881 5708711 5686083 
2311.430 5663155 5642645 5626533 5614181 5602668 5589209 5571991 5551150 
2315.288 5528632 5507121 5487558 5469606 5451353 5430719 5407469 5383113 
2319.145 5361072 5344770 5336216 5334438 5336216 5337390 5333700 5322195 
2323.003 5301668 5271213 5230834 5180601 5121254 5055211 4986631 4921044 
2326.860 4863943 4818979 4786247 4762730 4744071 4725849 4706488 4687932 
2330.718 4674300 4670114 4678252 4698282 4727456 4761892 4798374 4835061 
2334.575 4871482 4907505 4941955 4973056 4998462 5017266 5030573 5041970 
2338.432 5055312 5073850 5097820 5124775 5150625 5172520 5189320 5203403 
2342.290 5218527 5238145 5263500 5294054 5328367 5366541 5411662 5469036 
2346.147 5544539 5641034 5756756 5884364 6013756 6134013 6235816 6313906 
2350.005 6366356 6394432 6400922 6389254 6362186 6322277 6272624 6217026 
2353.862 6159722 6105248 6056257 6013353 5975593 5941363 5910326 5884028 
2357.719 5865556 5858537 5865488 5885842 5917346 5956243 5999277 6044262 
2361.577 6090530 6137508 6184222 6228555 6268354 6302644 6332868 6361783 
2365.434 6394062 6432968 6479008 6529863 6581430 6629033 6669946 6704031 
2369.292 6732836 6759557 6786514 6815190 6846695 6882107 6923751 6974657 
2373.149 7038064 7115659 7206877 7309606 7419841 7534183 7651220 7770851 
2377.007 7894363 8023276 8157831 8297124 8439602 8583615 8728689 8874928 
2380.864 9023346 9173745 9324907 9473582 9616142 9748787 9868964 9975850 
2384.721 10069740 10151474 10221520 10279668 10325642 10359506 10382480 
2388.097 10396496 10404098 10407186 10406542 10401587 10391168 10374608 
2391.472 10351974 10324488 10293714 10260906 10225760 10187733 10145606 
2394.847 10099379 10050852 10003347 9960932 9926590 9901640 9885267 9875743 
2398.705 9871066 9870320 9874217 9884318 9902047 9927845 9960762 9999109 
2402.562 10041764 10088425 10139738 10197638 10263314 10336636 10416655 
2405.937 10501339 10588893 10678738 10771116 10867115 10967961 11073962 
2409.313 11184647 11299713 11419095 11543002 11672254 11806651 11944258 
2412.688 12080988 12211763 12331431 12436333 12525641 12600198 12662623 
2416.063 12715469 12759552 12794427 12819236 12833296 12837085 12832511 
2419.438 12821250 12804801 12783200 12755287 12719871 12677087 12628715 
2422.813 12578267 12530143 12487412 12451336 12421262 12395454 12372679 
2426.189 12353180 12339067 12333306 12338862 12357134 12387850 12429684 
2429.564 12480865 12540340 12608009 12683877 12767844 12858825 12954979 
2432.939 13054705 13157017 13262699 13373328 13491061 13617201 13751381 
2436.314 13892342 14038311 14188095 14341903 14501452 14668909 14845927 
2439.690 15033068 15229554 15434644 15647834 15869858 16102105 16345933 
2443.065 16601808 16868308 17143310 17424248 17708922 17997512 18290718 
2446.440 18590002 18896102 19208270 19524266 19841292 20156744 20468810 
2449.815 20776898 21080786 21379632 21672274 21956472 22229626 22490284 
2453.191 22737376 22970288 23188712 23390812 23573312 23732194 23862712 
2456.566 23961054 24025272 24054550 24048876 24008396 23932554 23820182 
2459.941 23670154 23481984 23256174 22994428 22699460 22373400 22018724 
2463.316 21637936 21233750 20810720 20374278 19930192 19484134 19040058 
2466.692 18599650 18163870 17732942 17308926 16895142 16497031 16120158 
2470.067 15769552 15448068 15156432 14894205 14659792 14451677 14268553 
2473.442 14108610 13968810 13845886 13735752 13634740 13540624 13452440 
2476.817 13369946 13292933 13220580 13151006 13082569 13014279 12947025 
2480.193 12882955 12825105 12775829 12735190 12701447 12671493 12642564 
2483.568 12613467 12585258 12560735 12542591 12532462 12529598 12531780 
2486.943 12536282 12541090 12545627 12551118 12559234 12570831 12586077 
2490.318 12603575 12622097 12640757 12660201 12681591 12706257 12734951 
2493.694 12766888 12800774 12835173 12869201 12903401 12938491 12974609 
2497.069 13011275 13046408 13077378 13102716 13122352 13137925 13152611 
2500.444 13169141 13188848 13211153 13234244 13256038 13275544 13293753 
2503.819 13312441 13333659 13358841 13387373 13417274 13446630 13473732 
2507.195 13498819 13522678 13546435 13570569 13593782 13614193 13629646 
2510.570 13638981 13642536 13641784 13638502 13633510 13626706 13616620 
2513.945 13601611 13580654 13554228 13523976 13491847 13459651 13428140 
2517.320 13397521 13367725 13338989 13312236 13288833 13269736 13255184 
2520.696 13244491 13236634 13230486 13226319 13224679 13226967 13233527 
2524.071 13243774 13256140 13267926 13277150 13283025 13286715 13289961 
2527.446 13295120 13303729 13316371 13332633 13352041 13374182 13399606 
2530.821 13428722 13461462 13497178 13534334 13571321 13607252 13642263 
2534.197 13677960 13716054 13757572 13802684 13850025 13897816 13944893 
2537.572 13991600 14039166 14089682 14144688 14204357 14267903 14333136 
2540.947 14397969 14461542 14523619 14584299 14643994 14701914 14756621 
2544.322 14806842 14851755 14891839 14929045 14965500 15002301 15039276 
2547.698 15074917 15107062 15134371 15157392 15177636 15198259 15221936 
2551.073 15249458 15280140 15311819 15342299 15370309 15396399 15421666 
2554.448 15448446 15477631 15508741 15540470 15570761 15597790 15620596 
2557.823 15639385 15654499 15666384 15674938 15679711 15680090 15676208 
2561.198 15668204 15656972 15643472 15628153 15611185 15592741 15572993 
2564.574 15552593 15532400 15513205 15495383 15478902 15463348 15448515 
2567.949 15435159 15424619 15418371 15417684 15422250 15430799 15440927 
2571.324 15450575 15458094 15464206 15470214 15478146 15489477 15504723 
2574.699 15522785 15542394 15562209 15581613 15600813 15620528 15640793 
2578.075 15661368 15681293 15699843 15716642 15732687 15749281 15767766 
2581.450 15789207 15813226 15838826 15864773 15890583 15916429 15943445 
2584.825 15973041 16005836 16041901 16080616 16120743 16162043 16204622 
2588.200 16248887 16295087 16342631 16389940 16435154 16476486 16513621 
2591.576 16548110 16582187 16618505 16658442 16702032 16747486 16792706 
2594.951 16835756 16876024 16914158 16952020 16990918 17032268 17076310 
2598.326 17122768 17171644 17223320 17278344 17337788 17401898 17470088 
2601.701 17541290 17613882 17686730 17759416 17832462 17906486 17982318 
2605.077 18060476 18140928 18223368 18308068 18395030 18484224 18575130 
2608.452 18666470 18756100 18841978 18922230 18996126 19064048 19127028 
2611.827 19186070 19241204 19291844 19336394 19373774 19403328 19425606 
2615.202 19441822 19453154 19460362 19463238 19461296 19453848 19441616 
2618.578 19426022 19409530 19394526 19382610 19374224 19368438 19363934 
2621.953 19359846 19356208 19353992 19354374 19358806 19367954 19381776 
2625.328 19399828 19421726 19447748 19478138 19513348 19553136 19597054 
2628.703 19644024 19692770 19743114 19795164 19849892 19908512 19971684 
2632.079 20039514 20111034 20185446 20261712 20339484 20418972 20500212 
2635.454 20583514 20668364 20754168 20840232 20926418 21012446 21098734 
2638.829 21185528 21272338 21358298 21442706 21524868 21604782 21683316 
2642.204 21761482 21840568 21920820 22001922 22082552 22161592 22238240 
2645.580 22312494 22385194 22457414 22530310 22604754 22681168 22759550 
2648.955 22840108 22923408 23009974 23100260 23194550 23292112 23392458 
2652.330 23494820 23598990 23704970 23813358 23924466 24038650 24155528 
2655.705 24274326 24394456 24515740 24638146 24762270 24888746 25017750 
2659.081 25149040 25282054 25415672 25549366 25682292 25813782 25943342 
2662.456 26070162 26193182 26311768 26425594 26534944 26641080 26745092 
2665.831 26848214 26950758 27052412 27152394 27250110 27345200 27438332 
2669.206 27530532 27623106 27716968 27812196 27908150 28004196 28099380 
2672.582 28193170 28285744 28377310 28468152 28558096 28646498 28732548 
2675.957 28815640 28895456 28971884 29045636 29117200 29186830 29255016 
2679.332 29322116 29388586 29455456 29524290 29596714 29674580 29759380 
2682.707 29852286 29954196 30065678 30186604 30317120 30456882 30605362 
2686.083 30761790 30925530 31095812 31271964 31453494 31639878 31830370 
2689.458 32024406 32221418 32420948 32623354 32828822 33038214 33252214 
2692.833 33470720 33693416 33919704 34148836 34380776 34615672 34854504 
2696.208 35098172 35347552 35602756 35862964 36127260 36394376 36663460 
2699.583 36934016 37205996 37479344 37753908 38029192 38304180 38577856 
2702.959 38849168 39117204 39380944 39639692 39892236 40137296 40373076 
2706.334 40597852 40810148 41007876 41189260 41352316 41495056 41615596 
2709.709 41713044 41787128 41838752 41869656 41881844 41877100 41856268 
2713.084 41819196 41764948 41692328 41600356 41488344 41356980 41207184 
2716.460 41040028 40856924 40659484 40449260 40227872 39997512 39759936 
2719.835 39516908 39269656 39019396 38766740 38513152 38260324 38010820 
2723.210 37767356 37532768 37309068 37097320 36897940 36710656 36535100 
2726.585 36371464 36219880 36081168 35956108 35845188 35749048 35667676 
2729.961 35601568 35550608 35514580 35493148 35485168 35489300 35503968 
2733.336 35527988 35560640 35601820 35651632 35710588 35778408 35854148 
2736.711 35936564 36023816 36114472 36207240 36301752 36397616 36494480 
2740.086 36591400 36687184 36779928 36867856 36949312 37023564 37090464 
2743.462 37150880 37206720 37259536 37311016 37362616 37415092 37468652 
2746.837 37523088 37577928 37632628 37686940 37740572 37793960 37847388 
2750.212 37901364 37956252 38012772 38071800 38134632 38202716 38277872 
2753.587 38361976 38456380 38561996 38679260 38808336 38949224 39102052 
2756.963 39266972 39443748 39631924 39830020 40035876 40246988 40460244 
2760.338 40672620 40881244 41083552 41276556 41457472 41623180 41771152 
2763.713 41899028 42005376 42089624 42152052 42193056 42213540 42214052 
2767.088 42195428 42158696 42105832 42039284 41962344 41878268 41790632 
2770.464 41701884 41614136 41528924 41447264 41370248 41298748 41233380 
2773.839 41174688 41122200 41075720 41034312 40997276 40963812 40933448 
2777.214 40905416 40878256 40849900 40817648 40778192 40728404 40665452 
2780.589 40587372 40493304 40383332 40258588 40121452 39974768 39822068 
2783.965 39667284 39514040 39365420 39223704 39090084 38964736 38847396 
2787.340 38737652 38634892 38538820 38448960 38365016 38286664 38213460 
2790.715 38145412 38082832 38026480 37976936 37934628 37899376 37870128 
2794.090 37845216 37822876 37801044 37778160 37752788 37723732 37689688 
2797.466 37649252 37601124 37544220 37477972 37402628 37318672 37226864 
2800.841 37127852 37021940 36909160 36789016 36661624 36527168 36386272 
2804.216 36239976 36088980 35934728 35778332 35621636 35466360 35314808 
2807.591 35169524 35032224 34904236 34786116 34677972 34579792 34491824 
2810.967 34415024 34350576 34299764 34263732 34242684 34236376 34244044 
2814.342 34264736 34297972 34343332 34400716 34469976 34550800 34643056 
2817.717 34746812 34862188 34989772 35130216 35284116 35451872 35633648 
2821.092 35829140 36037892 36259644 36493868 36740116 36997944 37266176 
2824.468 37543064 37827396 38117304 38411604 38709036 39008880 39309628 
2827.843 39609820 39906912 40198428 40481632 40754648 41016068 41265696 
2831.218 41503952 41731720 41950376 42161180 42366168 42567712 42769276 
2834.593 42974296 43187428 43412860 43654384 43915100 44197584 44504072 
2837.969 44836456 45196856 45588172 46013584 46477280 46983708 47538152 
2841.344 48145644 48811080 49538964 50332352 51193020 52121072 53114616 
2844.719 54169096 55278036 56432864 57622140 58832696 60050864 61260628 
2848.094 62446152 63591728 64680220 65695392 66621000 67440432 68138848 
2851.469 68702888 69120840 69384944 69490696 69437704 69229560 68873784 
2854.845 68381872 67767536 67047380 66239484 65361524 64432248 63468532 
2858.220 62485140 61495184 60509808 59537984 58588696 57670004 56789884 
2861.595 55956312 55176260 54455176 53797544 53205840 52682308 52228868 
2864.970 51847172 51539036 51305172 51144860 51055036 51029772 51061448 
2868.346 51140388 51255432 51396020 51550004 51706100 51853256 51980736 
2871.721 52079272 52142184 52165608 52149428 52097688 52018124 51921100 
2875.096 51818796 51724276 51649076 51603140 51593884 51625116 51698004 
2878.471 51811516 51963076 52149916 52369508 52620368 52901236 53211156 
2881.847 53548552 53910708 54293548 54691796 55098872 55507992 55911992 
2885.222 56304184 56679288 57033292 57365276 57676284 57970400 58254408 
2888.597 58535572 58822268 59122472 59443408 59792296 60177544 60608504 
2891.972 61098240 61662188 62318008 63086292 63987612 65041384 66264884 
2895.348 67668824 69253768 71004456 72886768 74842960 76788744 78626248 
2898.723 80245536 81539440 82425920 82853480 82814384 82341960 81508576 
2902.098 80411104 79150296 77828488 76532504 75325928 74256808 73352888 
2905.473 72627608 72084800 71721176 71529192 71498416 71618200 71878200 
2908.849 72268616 72782264 73412520 74152872 74996664 75935192 76957272 
2912.224 78051032 79203024 80399784 81629192 82879384 84138976 85397672 
2915.599 86644168 87867232 89056288 90200408 91289480 92314616 93267128 
2918.974 94139544 94925968 95621440 96222784 96728312 97137784 97451392 
2922.350 97670280 97795760 97829464 97774016 97632808 97410288 97112176 
2925.725 96744712 96314376 95827712 95291168 94710032 94089216 93432680 
2929.100 92743376 92023128 91272600 90491120 89676912 88827232 87938832 
2932.475 87008128 86032504 85010112 83940944 82826736 81671624 80481968 
2935.851 79266128 78034576 76799896 75575304 74375504 73215016 72107024 
2939.226 71063456 70093888 69204848 68400960 67684352 67054884 66509992 
2942.601 66044284 65649368 65312728 65019444 64752324 64493136 64225800 
2945.976 63937440 63619992 63272008 62897676 62506868 62112136 61727996 
2949.352 61367740 61040656 60752036 60501236 60283284 60088912 59907336 
2952.727 59728116 59541520 59340456 59120080 58877168 58609740 58316328 
2956.102 57995924 57647680 57271056 56866544 56435168 55978360 55498352 
2959.477 54996908 54475872 53936324 53379204 52805244 52215268 51610412 
2962.853 50992804 50365580 49732716 49099480 48471196 47853300 47250756 
2966.228 46667384 46106052 45569000 45057896 44574304 44119636 43695272 
2969.603 43302252 42941120 42611896 42314264 42047968 41812520 41607612 
2972.978 41432248 41284244 41159352 41050884 40950160 40845784 40724984 
2976.354 40575152 40383548 40139876 39837720 39475100 39056008 38589660 
2979.729 38090932 37576736 37065060 36572584 36111524 35690052 35311284 
2983.104 34974940 34677432 34413444 34177476 33962948 33764320 33577236 
2986.479 33399216 33230606 33074684 32936510 32821246 32731954 32667256 
2989.854 32620390 32579672 32529854 32456006 32346338 32194796 32003182 
2993.230 31780064 31540244 31299952 31075774 30881594 30725086 30609452 
2996.605 30532556 30489260 30472236 30474580 30490966 30517342 30551788 
2999.980 30593380 30641166 30693970 30750194 30807494 30863770 30917064 
3003.355 30965950 31009720 31047798 31079866 31105316 31124110 31136034 
3006.731 31141410 31140804 31134788 31123682 31107558 31085918 31057978 
3010.106 31023172 30981110 30932042 30876790 30816280 30751688 30684334 
3013.481 30615246 30545778 30477284 30410894 30347926 30289196 30235018 
3016.856 30185822 30141746 30102788 30069300 30041462 30019164 30001660 
3020.232 29987850 29976062 29965200 29954442 29943970 29934670 29927534 
3023.607 29923168 29921748 29922884 29925654 29929948 29936054 29945072 
3026.982 29958774 29978194 30003612 30033828 30067028 30100904 30133364 
3030.357 30164192 30193780 30223794 30255836 30291220 30329912 30371200 
3033.733 30413524 30455318 30495658 30534262 30571766 30609664 30649522 
3037.108 30693044 30741516 30795898 30856690 30923608 30996268 31074030 
3040.483 31155792 31240488 31326876 31414028 31500876 31586818 31671278 
3043.858 31753826 31834684 31913772 31991732 32068924 32146022 32223560 
3047.234 32301932 32381606 32462650 32545138 32628570 32712412 32795730 
3050.609 32877282 32956168 33031706 33103682 33172272 33238440 33303008 
3053.984 33366836 33430458 33494230 33557944 33621628 33685036 33748276 
3057.359 33811524 33875316 33939980 34006020 34073928 34143960 34216120 
3060.735 34290368 34366212 34442824 34519696 34596404 34673092 34750436 
3064.110 34829660 34911704 34997316 35086284 35177644 35270276 35362828 
3067.485 35454676 35545972 35637824 35731452 35828024 35928212 36032172 
3070.860 36139608 36250208 36363752 36480352 36600232 36723748 36850544 
3074.236 36979904 37111396 37244372 37378472 37514312 37652360 37793164 
3077.611 37937016 38083808 38232892 38383804 38536068 38689476 38844312 
3080.986 39000872 39159120 39319276 39480796 39643324 39806272 39969464 
3084.361 40133120 40297340 40462936 40630340 40800428 40973572 41149916 
3087.737 41328956 41509420 41689772 41868048 42042752 42213540 42380892 
3091.112 42546516 42712532 42880952 43052732 43227652 43404656 43582432 
3094.487 43760056 43938196 44118868 44304712 44498860 44703304 44918720 
3097.862 45143876 45377132 45615848 45858156 46103328 46351660 46604484 
3101.238 46863476 47130228 47405720 47690188 47982792 48282192 48586352 
3104.613 48893212 49199956 49504724 49805432 50100216 50387644 50666140 
3107.988 50934380 51190712 51433688 51661948 51874424 52070680 52250392 
3111.363 52413992 52561836 52693940 52810072 52909616 52991588 53054748 
3114.739 53098176 53121244 53124016 53107388 53072452 53021200 52955616 
3118.114 52877504 52788332 52689304 52580308 52461660 52333624 52197068 
3121.489 52053644 51906240 51758020 51612204 51471476 51337428 51210584 
3124.864 51091076 50979092 50875444 50781764 50700396 50633448 50582448 
3128.240 50547380 50527092 50519536 50521992 50532788 50550432 50574888 
3131.615 50606864 50647112 50696820 50756292 50825864 50905284 50993960 
3134.990 51091148 51195932 51307148 51423504 51543776 51666240 51789940 
3138.365 51913740 52036984 52159480 52281260 52402664 52524404 52647444 
3141.740 52772580 52901044 53033480 53170636 53312368 53458420 53607968 
3145.116 53760152 53913668 54067312 54220188 54371500 54521024 54668572 
3148.491 54814964 54960880 55107904 55256852 55408752 55563644 55721300 
3151.866 55880636 56040296 56199144 56356240 56511240 56664640 56817032 
3155.241 56969028 57120884 57272228 57422264 57570008 57714732 57856744 
3158.617 57997060 58137836 58281388 58429840 58584412 58744720 58909232 
3161.992 59075548 59241060 59403664 59562460 59717468 59869912 60021188 
3165.367 60172288 60323752 60475148 60625380 60772920 60916928 61056560 
3168.742 61191884 61323892 61453540 61582004 61710044 61838008 61965632 
3172.118 62092412 62217964 62341300 62462332 62581032 62696964 62810368 
3175.493 62920808 63028136 63131780 63231564 63327780 63420980 63512324 
3178.868 63602812 63693308 63784444 63875860 63967340 64057840 64147016 
3182.243 64234480 64320044 64404392 64488024 64571364 64654640 64738056 
3185.619 64821064 64903276 64983732 65061784 65136768 65208332 65276832 
3188.994 65342880 65407628 65472304 65537924 65604932 65672992 65741024 
3192.369 65807724 65871536 65931812 65987736 66039732 66088028 66132940 
3195.744 66174768 66213632 66249980 66284256 66317028 66348912 66380412 
3199.120 66410988 66440144 66466936 66490532 66511072 66529072 66545716 
3202.495 66562132 66578932 66596120 66613308 66629724 66645176 66659852 
3205.870 66674808 66690996 66708416 66727116 66745744 66762896 66777652 
3209.245 66790060 66800960 66811936 66824496 66838636 66853440 66867196 
3212.621 66877752 66883660 66885212 66883780 66881844 66881888 66885440 
3215.996 66892744 66902912 66914240 66925140 66934452 66941956 66947788 
3219.371 66952504 66956952 66961632 66967236 66974460 66984168 66997312 
3222.746 67014360 67035316 67059672 67086160 67113544 67140568 67166216 
3226.122 67190192 67212008 67232008 67250424 67268256 67286904 67308336 
3229.497 67334792 67368344 67410136 67459632 67515488 67574320 67633096 
3232.872 67688736 67739888 67786400 67829392 67870960 67912952 67956696 
3236.247 68002840 68050976 68100624 68150936 68201720 68252936 68305392 
3239.623 68359416 68416048 68475312 68537120 68600632 68665096 68729400 
3242.998 68793608 68857512 68922208 68988688 69058024 69130280 69205304 
3246.373 69281592 69357352 69431096 69502208 69570688 69638048 69705696 
3249.748 69775032 69846552 69919912 69993832 70066872 70138200 70207208 
3253.124 70274360 70340704 70406784 70473064 70539056 70603880 70666456 
3256.499 70725800 70781712 70834408 70884608 70932984 70979760 71024712 
3259.874 71067208 71106512 71141904 71173248 71201120 71226496 71250504 
3263.249 71274088 71297992 71321640 71343712 71363192 71378464 71388544 
3266.625 71393544 71394632 71393616 71391856 71390216 71387920 71382760 
3270.000 71371048 71348984 71313568 71263664 71200224 71126336 71046760 
3273.375 70965752 70886640 70811280 70739056 70668328 70596592 70521984 
3276.750 70443800 70362440 70279232 70196224 70115224 70037392 69963112 
3280.125 69892232 69823864 69757048 69690760 69623968 69556104 69487008 
3283.501 69416592 69345336 69273632 69202272 69131448 69061672 68992688 
3286.876 68924848 68858480 68794664 68734456 68679296 68629464 68584728 
3290.251 68543672 68503824 68463024 68419808 68374040 68327424 68282560 
3293.626 68242664 68209864 68184936 68166864 68153496 68142296 68131048 
3297.002 68118648 68105352 68092720 68082176 68075432 68074272 68079576 
3300.377 68092720 68115392 68148568 68193224 68249256 68315088 68387768 
3303.752 68463480 68538048 68608080 68671144 68726216 68773536 68814104 
3307.127 68849320 68881128 68911608 68943136 68977736 69017704 69063968 
3310.503 69116760 69175344 69238608 69305496 69376040 69450840 69531952 
3313.878 69620272 69716704 69820048 69927656 70035840 70140688 70239816 
3317.253 70331976 70418048 70499648 70579248 70658496 70738312 70818848 
3320.628 70899472 70979336 71057688 71133864 71207328 71277760 71344448 
3324.004 71406856 71464392 71516376 71562560 71602880 71637032 71665360 
3327.379 71688304 71706240 71720200 71730432 71737432 71740912 71740048 
3330.754 71733880 71721056 71700696 71671848 71634568 71589008 71535640 
3334.129 71475712 71410448 71341208 71269680 71196592 71121808 71043440 
3337.505 70958648 70863160 70753288 70626608 70482656 70323096 70150968 
3340.880 69969808 69782112 69589160 69390696 69185608 68972888 68752776 
3344.255 68526216 68295512 68062992 67830592 67599136 67369120 67140608 
3347.630 66913696 66688912 66466548 66247360 66030980 65816552 65603352 
3351.006 65390952 65179652 64970916 64766712 64568824 64378716 64196600 
3354.381 64021984 63854256 63693308 63539908 63395412 63261464 63139512 
3357.756 63029208 62929920 62839620 62756688 62679776 62608436 62542840 
3361.131 62483988 62432152 62387812 62350788 62320952 62298272 62282556 
3364.507 62273988 62272724 62277812 62288520 62303360 62321372 62341684 
3367.882 62363944 62387624 62412216 62436740 62459544 62479320 62494856 
3371.257 62505648 62512456 62516400 62518768 62520376 62520264 62516132 
3374.632 62504464 62480932 62441024 62381156 62298808 62192576 62062060 
3378.008 61906896 61727272 61522364 61291268 61032644 60745520 60429260 
3381.383 60084424 59712832 59316792 58899252 58463388 58012096 57548256 
3384.758 57074216 56592876 56106532 55617572 55128404 54640836 54156524 
3388.133 53676196 53200072 52727760 52258204 51789564 51319900 50848028 
3391.509 50373352 49897376 49423072 48954292 48495500 48050372 47620300 
3394.884 47204948 46802176 46408952 46022536 45641536 45265360 44894104 
3398.259 44527604 44164348 43801216 43434060 43058768 42672320 42274236 
3401.634 41866372 41452368 41036716 40623648 40216060 39815132 39421036 
3405.010 39033388 38651988 38276496 37907004 37543388 37185316 36831968 
3408.385 36482624 36136728 35794776 35457228 35125620 34800512 34482028 
3411.760 34169052 33859808 33552360 33245310 32938116 32631714 32328062 
3415.135 32029684 31739180 31458732 31189256 30930656 30682092 30441564 
3418.510 30206672 29974962 29744794 29514854 29285428 29057220 28831858 
3421.886 28610860 28395350 28185322 27980518 27779804 27582288 27387580 
3425.261 27195816 27007488 26823258 26642842 26465704 26290998 26117312 
3428.636 25943870 25770428 25597090 25424348 25252800 25082476 24913238 
3432.011 24744836 24577238 24410894 24246438 24084844 23926286 23770902 
3435.387 23617918 23466070 23314592 23163096 23011162 22859456 22708154 
3438.762 22557148 22405882 22253794 22100786 21947376 21795310 21646780 
3442.137 21504256 21369122 21241198 21118388 20997352 20874300 20745792 
3445.512 20610232 20467838 20321082 20173854 20030320 19893874 19766590 
3448.888 19648392 19537504 19431048 19325896 19219732 19111136 18999832 
3452.263 18886756 18772778 18658930 18545666 18432988 18320750 18209028 
3455.638 18098300 17989776 17884214 17782406 17683900 17587486 17491474 
3459.013 17393932 17293892 17191154 17086580 16981410 16877090 16774692 
3462.389 16674763 16577678 16484058 16394585 16309913 16230864 16157126 
3465.764 16087424 16019760 15951488 15880374 15804531 15723789 15638560 
3469.139 15550224 15460189 15370104 15281135 15194553 15111830 15033823 
3472.514 14961007 14892937 14828373 14764848 14699755 14631690 14559971 
3475.890 14485659 14411155 14339334 14272217 14210930 14154889 14102312 
3479.265 14051008 13999230 13945817 13891008 13836205 13782846 13733016 
3482.640 13688013 13649101 13616175 13588654 13564997 13543393 13521686 
3486.015 13498238 13472091 13443314 13413207 13383784 13357713 13336870 
3489.391 13322657 13315994 13316575 13323545 13336323 13353442 13373841 
3492.766 13396530 13420486 13444852 13469631 13495606 13523499 13555391 
3496.141 13592859 13637578 13690406 13751723 13821325 13898226 13981334 
3499.516 14069010 14159716 14252050 14345225 14438900 14534480 14634261 
3502.892 14741161 14858853 14989611 15135023 15294795 15467571 15650788 
3506.267 15841233 16035918 16232515 16429581 16626528 16824666 17026582 
3509.642 17235488 17454774 17686592 17931242 18187156 18450758 18718116 
3513.017 18985848 19251908 19516294 19779698 20043574 20308374 20573092 
3516.393 20835748 21093378 21343192 21583678 21813428 22031342 22236532 
3519.768 22426150 22596866 22745094 22867210 22960470 23024368 23058854 
3523.143 23065318 23045120 22999108 22927774 22830400 22705816 22552576 
3526.518 22369528 22156640 21915176 21648138 21360386 21057450 20744540 
3529.894 20426544 20105898 19784206 19461642 19137348 18810664 18480456 
3533.269 18146008 17805982 17459876 17107672 16750723 16391832 16035300 
3536.644 15686342 15349576 15027648 14721280 14429343 14149446 13878829 
3540.019 13615936 13359832 13110297 12867118 12629226 12394635 12160750 
3543.395 11925117 11686175 11443792 11200082 10958140 10722241 10496045 
3546.770 10282721 10084356 9901233 9732792 9576407 9428578 9284657 9140244 
3550.627 8990871 8834144 8670342 8502006 8334140 8172180 8021285 7883970 
3554.485 7760395 7648623 7545106 7445558 7346977 7246969 7144592 7040219 
3558.342 6934659 6829427 6725904 6625669 6529796 6439559 6355461 6278036 
3562.199 6207145 6141944 6080718 6020744 5957554 5886479 5802153 5700452 
3566.057 5579510 5442227 5295530 5149754 5015825 4902713 4814691 4750871 
3569.914 4706622 4675003 4648947 4621452 4587596 4544704 4492306 4430844 
3573.772 4362864 4291314 4218872 4148183 4080849 4017304 3956879 3898501 
3577.629 3840265 3781435 3721878 3662396 3604793 3550873 3502403 3459750 
3581.487 3422879 3390453 3360767 3332552 3303938 3273324 3238905 3198648 
3585.344 3150085 3091982 3023944 2948211 2869689 2793883 2727259 2673947 
3589.201 2634976 2608375 2590342 2576276 2561511 2542946 2518550 2487991 
3593.059 2451802 2411318 2368273 2324132 2280329 2237797 2197366 2159936 
3596.916 2126338 2096872 2071502 2049530 2029156 2008484 1985649 1959487 
3600.774 1930598 1900679 1872525 1849665 1833926 1826139 1825208 1828202 
3604.631 1831397 1830365 1821681 1802682 1772872 1732817 1685315 1634758 
3608.489 1585737 1542574 1508492 1483722 1466334 1453136 1439605 1422185 
3612.346 1399049 1370795 1340316 1311701 1288903 1274015 1266239 1262650 
3616.203 1257865 1246733 1224038 1186426 1133901 1069590 999212 930538 
3620.061 871039 825789 797174 784294 783796 791862 804908 820577 838204 
3624.400 858423 881729 907328 931269 946809 943754 912010 845574 747251 
3628.740 632060 522573 442034 402831 403892 433476 476364 517928 546757 
3633.080 557705 550838 530833 504062 476264 450923 428966 409033 389731 
3637.419 370662 351727 333788 316976 301193 285112 267938 249935 232663 
3641.759 219634 214861 221358 240122 269264 304641 340486 370696 389665 
3646.098 393645 380280 349141 300961 238166 163447 81583 -762 -76102 -135165 
3650.920 -170706 -179416 -162425 -125725 -78222 -30946 5798 23824 18190 
3655.260 -10238 -55297 -105817 -149971 -179251 -190876 -187067 -173521 
3659.117 -156430 -140233 -127944 -119829 -115324 -113369 -113270 -114926 
3662.975 -117908 -121916 -125626 -127447 -125957 -120094 -109991 -98098 
3666.832 -87630 -83390 -91307 -116417 -160935 -223398 -294693 -360944 
3670.689 -407092 -422617 -404974 -360845 -303732 -251215 -220020 -224789 
3674.547 -270587 -350913 -444596 -525122 -573204 -583694 -564502 -530582 
3678.404 -496627 -471837 -458829 -455155 -454592 -451382 -442180 -426954 
3682.262 -408185 -389084 -370777 -353032 -334160 -313070 -290355 -270057 
3686.119 -257640 -259858 -281614 -323565 -381404 -446781 -510030 -563476 
3689.977 -604077 -631837 -648677 -656750 -656386 -648578 -633888 -614929 
3693.834 -594746 -577043 -564303 -557685 -556129 -556560 -555534 -550769 
3697.691 -541867 -530350 -519628 -514300 -517675 -532204 -557685 -591238 
3701.549 -628098 -661811 -686259 -697375 -693339 -675309 -646526 -611654 
3705.406 -574660 -539286 -507482 -479615 -455420 -434567 -418016 -408185 
3709.264 -409078 -424173 -455288 -501326 -556229 -610893 -655294 -682389 
3713.121 -689303 -678353 -655393 -627833 -602555 -584323 -575620 -576679 
3716.979 -585348 -598021 -611091 -620918 -625782 -625153 -620422 -613209 
3720.836 -605731 -599411 -594977 -592529 -592165 -593786 -598121 -606227 
3724.693 -619363 -637527 -658933 -680106 -696085 -701708 -694232 -672861 
3728.551 -641332 -604904 -570888 -546003 -535248 -540146 -558347 -584786 
3732.408 -612481 -636700 -656220 -673854 -694728 -722549 -757644 -795614 
3736.266 -828554 -847668 -848594 -830604 -797400 -753443 -703131 -648412 
3740.123 -590841 -531376 -473757 -425100 -396036 -399743 -446715 -539219 
3743.980 -663002 -789231 -881828 -917472 -893963 -827099 -739749 -654566 
3747.838 -590213 -558214 -562615 -599775 -659429 -728635 -795482 -851107 
3751.695 -890193 -909041 -906032 -880736 -836193 -778217 -714213 -653011 
3755.553 -600404 -560961 -536340 -524956 -524493 -532601 -547559 -568042 
3759.410 -592396 -617212 -636733 -646262 -642225 -625616 -601330 -576778 
3763.268 -560167 -556692 -567513 -588260 -611621 -629157 -635509 -630910 
3767.125 -619562 -608775 -604672 -611191 -627602 -649934 -671736 -687053 
3770.982 -692578 -688079 -675309 -657775 -638751 -620753 -605367 -593257 
3774.840 -583893 -576877 -571285 -567215 -564932 -565693 -570723 -580451 
3778.697 -593687 -607683 -618403 -622010 -616749 -603977 -587532 -572476 
3782.555 -563310 -562549 -569730 -581775 -594249 -603349 -606856 -605367 
3786.412 -600702 -595474 -591238 -587532 -583396 -577175 -568241 -556924 
3790.270 -544977 -534222 -526048 -520919 -518602 -518436 -520786 -526875 
3794.127 -538160 -556096 -580021 -606757 -630811 -645799 -646890 -632928 
3797.984 -607485 -577639 -553449 -545275 -561060 -604209 -670181 -746332 
3801.842 -813771 -855671 -863045 -837119 -787412 -727940 -673589 -637726 
3805.699 -627899 -644740 -680834 -722251 -753311 -764425 -753212 -724368 
3809.557 -685532 -643780 -603448 -565693 -529556 -493416 -458134 -427318 
3813.414 -407258 -405040 -426490 -471374 -532468 -594812 -641597 -660786 
3817.271 -649669 -615095 -570193 -531277 -511553 -520885 -561093 -624690 
3821.129 -695555 -753212 -782715 -778018 -744347 -692479 -635972 -586738 
3824.986 -552324 -535513 -534388 -542529 -552423 -557486 -554574 -544415 
3828.844 -531211 -519628 -514101 -516484 -526578 -540841 -554905 -563641 
3832.701 -563807 -553747 -534950 -510725 -486334 -467931 -461245 -470877 
3836.559 -497487 -537796 -584984 -629984 -664028 -683117 -686822 -679014 
3840.416 -665384 -651787 -641663 -636469 -635972 -637891 -640472 -641299 
3844.273 -638917 -632002 -619892 -602720 -580749 -555170 -526511 -495965 
3848.131 -463529 -428807 -391368 -351807 -312937 -280554 -264362 -275389 
3851.988 -324029 -414607 -538624 -673920 -791645 -869064 -897534 -883382 
3855.846 -840062 -781789 -719505 -660157 -607220 -562450 -525850 -497487 
3859.703 -477066 -463728 -455916 -452044 -450025 -449297 -450918 -456810 
3863.561 -468659 -486433 -506291 -522308 -527769 -518767 -496263 -466574 
3867.418 -439896 -426556 -434501 -465482 -513108 -563807 -601496 -615922 
3871.275 -604904 -575984 -540014 -508773 -490107 -485804 -492754 -503544 
3875.133 -510163 -506655 -491695 -468295 -441915 -419208 -406066 -406596 
3878.990 -421856 -448800 -481104 -510626 -528927 -530648 -515491 -487360 
3882.848 -454261 -425299 -409409 -412587 -435659 -473028 -513174 -543952 
3886.705 -554938 -543124 -511784 -469785 -427152 -393917 -377729 -381702 
3890.563 -404941 -441220 -481766 -517775 -542595 -552920 -549313 -534123 
3894.420 -510361 -481435 -450025 -418744 -389779 -365248 -346675 -334889 
3898.277 -329757 -330320 -334690 -341245 -349125 -358594 -371042 -388223 
3902.135 -411065 -439433 -470546 -500036 -523368 -536373 -537068 -526313 
3905.992 -506853 -482196 -455916 -430595 -407556 -387429 -370313 -355515 
3909.850 -343166 -332803 -323930 -315685 -306911 -296349 -283303 -268236 
3913.707 -252408 -238433 -229227 -227008 -233234 -247341 -267044 -289097 
3917.564 -309891 -326711 -338398 -344258 -344722 -340054 -330585 -316314 
3921.422 -298269 -277938 -257739 -240685 -229558 -225650 -228366 -235254 
3925.279 -242374 -246149 -244029 -236082 -223862 -210350 -198924 -191936 
3929.137 -190644 -194883 -203461 -215417 -229392 -244559 -259759 -273667 
3932.994 -284296 -289461 -287872 -278766 -263335 -243831 -222868 -203329 
3936.852 -187266 -175011 -166168 -159742 -154112 -148779 -144175 -140995 
3940.709 -140697 -144175 -151628 -161929 -173256 -183093 -188889 -189187 
3944.566 -183689 -173455 -161067 -149276 -140962 -138113 -140863 -148083 
3948.424 -157258 -165572 -170408 -171004 -167394 -160935 -153217 -145400 
3952.281 -137782 -130031 -121452 -111448 -100649 -89651 -79812 -71894 -65997 
3956.621 -61658 -57781 -53640 -48770 -44066 -40222 -38268 -38731 -41349 
3960.960 -45258 -49300 -52613 -54104 -53574 -50890 -45490 -37174 -25479 
3965.300 -10503 6958 25315 43275 58982 71674 81417 89206 96198 103721 112372 
3970.604 122116 132357 141969 150090 156288 160398 162519 163480 164342 
3974.944 165768 169215 175579 185093 197291 211181 224972 236906 246023 
3979.283 251560 254212 255107 255339 256267 258257 261406 265219 269131 
3983.623 272347 274105 273972 271618 266976 260942 254676 250134 248742 
3987.962 251593 258389 267540 276160 281200 280338 272977 259914 243736 
3992.302 227557 214131 205479 202231 203822 208993 216551 224508 231834 
3996.642 237370 239824 238696 233525 224972 214164 202927 192882 185855 
##END=
