
##TITLE=mdmaHCL00399_3
##JCAMP-DX=5.01  $$ Nicolet v. 1
##DATATYPE=INFRARED SPECTRUM
##ORIGIN=UniL
##OWNER=Nicolet
##LONGDATE=2011/08/24
##TIME=10:32:44
##SPECTROMETER/DATA SYSTEM=Nicolet iS5
##DATA PROCESSING=
Ratio against background
%Transmittance->Absorbance
Truncated
ElementMultiply or ElementDivide
##COMMENTS=
Number of sample scans: 32
Collection length: 51.20 sec
Sample gain: 2.0
Background collected on: Mer Aout 24 10:31:15 2011 (GMT+02:00);
Number of background scans: 32
Background gain: 2.0
Sample spacing:  1.000
Number of scan points: 12415
Resolution points: 8192
Number of FFT points: 65536
Apodization: N-B fort;
Phase correction: Mertz;
Laser frequency: 15798.0 cm-1
Number of rejected sample scans: 0
Number of rejected background scans: 0
Bench serial number: ASB1000141;
##RESOLUTION=4.000
##XUNITS=1/CM
##YUNITS=ABSORBANCE
##FIRSTX=649.893372
##LASTX=4000.122314
##FIRSTY=0.122166
##MAXX=4000.122314
##MINX=649.893372
##MAXY=0.303033
##MINY=-0.002008
##XFACTOR=1.000000
##YFACTOR=1.000000E-009
##NPOINTS=6950
##DELTAX=0.482117
##ZPD=6100
##XYDATA=(X++(Y..Y))
649.893 122165896 121006920 119982568 119110904 118393224 117823560 
652.786 117390856 117084264 116890936 116796528 116786560 116847736 
655.679 116969440 117145664 117374528 117655960 117988912 118370464 
658.571 118794728 119254168 119741408 120252056 120784264 121337896 
661.464 121913824 122511064 123127128 123758520 124401104 125049680 
664.357 125696880 126329136 126922384 127444160 127857952 128136872 
667.250 128288000 128370536 128486960 128724736 129122048 129654344 
670.142 130260872 130869896 131421056 131878880 132229984 132482808 
673.035 132656544 132769216 132828104 132829264 132762864 132624432 
675.928 132420824 132168520 131886152 131584272 131259840 130899536 
678.820 130487936 130015624 129486768 128915520 128318000 127703248 
681.713 127071264 126415088 125731144 125026704 124322224 123644600 
684.606 123018120 122452200 121940008 121461688 120996464 120533656 
687.498 120077184 119643680 119252504 118917496 118640824 118414680 
690.391 118227848 118074528 117959264 117895752 117899928 117985960 
693.284 118161200 118428264 118789808 119254256 119836368 120555872 
696.177 121426848 122450184 123606760 124856840 126149328 127426608 
699.069 128641096 129762576 130779744 131699400 132541392 133333296 
701.962 134104136 134881856 135690512 136543952 137444080 138378896 
704.855 139326208 140257120 141146288 141978448 142751360 143474240 
707.747 144158608 144814640 145444624 146045136 146612960 147151888 
710.640 147675728 148208464 148776512 149400208 150089120 150837840 
713.533 151629088 152437264 153234880 153993184 154684080 155284640 
716.425 155778336 156163504 156458208 156703152 156957664 157282144 
719.318 157729280 158326816 159072064 159934480 160866576 161817024 
722.211 162732928 163568352 164281280 164831808 165190144 165344192 
725.104 165310544 165137696 164901456 164690272 164575984 164604976 
727.996 164788656 165112688 165553312 166093568 166734144 167490608 
730.889 168381984 169419424 170600912 171914960 173352656 174919328 
733.782 176639376 178549472 180687056 183073392 185707040 188566992 
736.674 191624704 194855664 198241824 201768752 205411856 209129728 
739.567 212875648 216617568 220371600 224210080 228249776 232582848 
742.460 237189824 241845632 246077840 249241024 250574656 249459104 
745.352 245602848 239131424 230575648 220713504 210433568 200491344 
748.245 191446976 183646464 177204416 172083696 168146992 165222080 
751.138 163129824 161710800 160848288 160464096 160529632 161060784 
754.031 162105264 163714048 165902976 168615440 171697136 174906128 
756.923 177915104 180388304 182042512 182681792 182250304 180825920 
759.816 178605920 175847664 172832656 169829568 167039920 164605904 
762.709 162604816 161053776 159927920 159171216 158715680 158484288 
765.601 158407600 158432496 158521600 158656128 158832880 159055520 
768.494 159329232 159656784 160040384 160488496 161024112 161692480 
771.387 162553536 163667296 165067472 166729760 168548480 170325728 
774.279 171814656 172743616 172886736 172133584 170506784 168162912 
777.172 165330000 162264240 159171648 156164256 153261984 150403120 
780.065 147488976 144415712 141117712 137580416 133840216 129969136 
782.958 126057056 122197760 118467904 114928352 111624424 108584408 
785.850 105827560 103364032 101194016 99309608 97695088 96332208 95204520 
789.225 94301928 93622504 93170664 92953248 92975496 93240432 93748544 
792.600 94500488 95496624 96733112 98194616 99841808 101607016 103388872 
795.975 105050328 106443512 107411472 107806680 107518712 106476784 
798.867 104665408 102126528 98959376 95310760 91350608 87273496 83268976 
802.242 79495776 76084552 73114272 70613816 68573976 66957920 65717548 
805.617 64801096 64162724 63760764 63554516 63506424 63578716 63733296 
808.992 63935860 64151472 64343864 64477988 64516424 64425372 64181624 
812.367 63774736 63212216 62517008 61724712 60875144 60003764 59142144 
815.742 58313220 57534068 56819072 56179308 55622200 55149320 54755952 
819.116 54432304 54167108 53953020 53788316 53677884 53629448 53650668 
822.491 53745528 53914156 54155508 54470312 54862672 55338856 55901476 
825.866 56543172 57239188 57946508 58608940 59158124 59530116 59674208 
829.241 59558808 59179848 58559684 57745992 56800080 55792804 54796244 
832.616 53868056 53052464 52372836 51832608 51420560 51117280 50903308 
835.990 50761692 50680324 50650200 50661672 50703560 50763668 50829664 
839.365 50893476 50951556 51005140 51057272 51110608 51165732 51221432 
842.740 51276536 51332768 51394860 51471288 51571124 51701176 51865728 
846.115 52066084 52302828 52577732 52894348 53256892 53668620 54128748 
849.490 54632796 55173168 55742172 56334512 56948248 57583740 58241716 
852.865 58920728 59616808 60324284 61038288 61757104 62483108 63222064 
856.239 63980208 64762592 65571636 66407168 67269064 68159464 69083392 
859.614 70049624 71068336 72148488 73296752 74514968 75799336 77137808 
862.989 78509912 79884176 81215464 82450752 83533680 84410528 85045936 
866.364 85429416 85583248 85560648 85444976 85340560 85351648 85582720 
869.739 86124896 87045168 88391880 90185152 92415648 95035080 97952048 
873.113 101034176 104091728 106900264 109221536 110809808 111470216 
876.006 111081880 109616352 107146488 103832160 99902320 95600384 91172896 
879.381 86840512 82764592 79061176 75796496 72993416 70649800 68745168 
882.756 67249336 66122912 65319352 64789324 64477684 64333224 64313508 
886.131 64385176 64530232 64742984 65029764 65403776 65882796 66486320 
889.505 67230616 68127288 69181528 70391432 71749592 73246272 74875280 
892.880 76636216 78538296 80597072 82832712 85259952 87878144 90657576 
896.255 93528304 96376840 99030872 101281952 102908496 103691552 103474312 
899.630 102186184 99862912 96641872 92746000 88455808 84044312 79765120 
903.005 75820680 72336120 69379080 66963872 65069132 63652984 62665424 
906.379 62057016 61778988 61788576 62052960 62547892 63261576 64192228 
909.754 65344764 66725336 68335376 70165416 72191056 74366968 76619576 
913.129 78854880 80954048 82783152 84222112 85172176 85581712 85458328 
916.504 84871144 83942720 82819520 81666224 80631704 79828344 79335256 
919.879 79185528 79371928 79851200 80552040 81387432 82259352 83084104 
923.254 83802568 84392056 84873520 85308016 85789688 86420816 87304160 
926.628 88524296 90129528 92127168 94467792 97045592 99679928 102125400 
930.003 104106048 105318088 105498776 104479048 102207896 98783808 94432952 
933.378 89492304 84326224 79278144 74644048 70617568 67306088 64740940 
936.753 62895992 61711992 61114564 61032148 61392968 62124448 63150972 
940.128 64376600 65684208 66947400 68026712 68798656 69178496 69128608 
943.502 68671336 67880024 66869244 65764004 64677680 63702136 62891052 
946.877 62266456 61826740 61557184 61437204 61444644 61558864 61757368 
950.252 62016232 62312920 62625960 62938468 63240460 63528164 63802904 
953.627 64069396 64334988 64608656 64900160 65221116 65582348 65992824 
957.002 66458440 66980956 67558840 68189352 68870400 69602424 70388080 
960.377 71231696 72137568 73108976 74148360 75257872 76441072 77703336 
963.751 79052344 80497520 82047848 83711552 85494720 87400752 89430504 
967.126 91580848 93844568 96207024 98646472 101132904 103625880 106080320 
970.501 108446536 110672472 112712552 114527040 116085352 117368976 
973.394 118370288 119093336 119552736 119774800 119796280 119659696 
976.286 119414176 119109424 118790680 118502816 118286264 118179040 
979.179 118221536 118453584 118915056 119647480 120688712 122073456 
982.072 123833864 125993592 128566880 131551400 134922544 138620512 
984.964 142539312 146533264 150400080 153895616 156773232 158785168 
987.857 159732640 159501232 158069440 155523440 152038736 147875616 
990.750 143330224 138695552 134254016 130224512 126760720 123958416 
993.643 121852096 120435048 119672088 119515560 119912000 120808864 
996.535 122162256 123932888 126087936 128601488 131448016 134601200 
999.428 138029616 141685632 145500240 149380912 153197200 156794672 
1002.321 160009040 162670432 164641536 165834960 166227008 165867920 
1005.213 164877824 163442096 161771200 160091824 158621472 157530944 
1008.106 156951920 156968560 157618912 158912400 160838448 163380400 
1010.999 166520224 170245536 174551632 179438992 184913968 190987152 
1013.891 197668128 204957712 212836128 221234000 230016704 238960848 
1016.784 247725072 255897936 263014608 268618592 272376448 274123808 
1019.677 273928032 272068032 269022272 265388704 261751088 258666992 
1022.570 256566640 255708336 256207712 258032704 261049056 265039600 
1025.462 269752672 274930176 280295072 285584576 290544736 294920288 
1028.355 298493088 301090912 302609152 303033440 302437824 300976416 
1031.249 298842624 296260064 293450848 290597984 287848864 285287296 
1034.142 282922240 280683840 278427616 275964928 273071488 269542464 
1037.035 265228480 260044480 253989488 247133504 239603408 231555872 
1039.928 223162480 214604720 206045600 197633728 189497568 181731184 
1042.821 174408976 167589776 161318096 155639584 150598176 146229664 
1045.714 142562640 139609264 137363888 135805952 134903056 134618688 
1048.607 134911424 135741232 137068656 138850768 141045232 143609440 
1051.500 146499056 149675488 153102448 156743472 160561376 164506240 
1054.393 168506752 172472448 176282368 179791584 182853600 185317744 
1057.286 187054064 187974208 188035616 187258624 185726048 183591584 
1060.179 181060288 178362976 175755024 173468640 171699552 170608864 
1063.072 170300432 170831040 172211312 174409424 177352688 180926224 
1065.965 184990352 189372672 193879408 198325472 202525104 206313824 
1068.858 209562528 212163568 214036656 215126288 215394368 214825072 
1071.751 213424960 211225408 208281696 204671920 200504592 195911648 
1074.645 191053104 186124112 181326112 176866016 172943216 169714592 
1077.538 167303968 165792304 165212480 165555856 166765232 168739840 
1080.431 171317280 174277104 177365648 180283152 182738048 184495360 
1083.324 185393696 185395312 184586016 183174208 181443680 179714592 
1086.217 178322320 177545728 177597088 178603600 180587728 183472064 
1089.110 187079200 191168464 195433184 199535264 203164000 206031520 
1092.003 207917120 208690592 208302272 206789184 204254816 200862432 
1094.896 196803232 192267008 187438048 182462592 177447056 172467616 
1097.789 167569168 162779296 158116608 153592864 149216240 144992224 
1100.682 140925856 137025040 133306544 129794824 126525520 123541576 
1103.575 120885184 118598632 116718752 115274464 114291000 113787824 
1106.468 113777872 114269568 115264320 116756816 118734280 121177480 
1109.361 124060248 127344696 130983712 134913632 139046640 143277776 
1112.254 147473968 151476512 155124480 158251152 160705792 162377984 
1115.147 163195424 163137008 162229488 160545456 158192960 155297616 
1118.041 152001168 148436272 144713232 140923008 137127504 133367704 
1120.934 129675072 126075480 122595776 119267248 116120320 113186488 
1123.827 110497144 108081088 105968912 104193304 102784512 101773600 
1126.720 101187024 101043544 101354624 102121664 103335528 104973944 
1129.613 107000720 109365920 111998112 114809600 117699104 120547432 
1132.506 123238936 125671136 127766656 129494400 130873200 131975544 
1135.399 132907960 133801920 134790368 135974672 137416528 139119296 
1138.292 141028352 143031216 144972560 146685728 147994304 148747440 
1141.185 148838224 148200928 146821104 144726960 141984000 138683600 
1144.078 134934976 130865768 126602296 122267576 117977736 113824760 
1146.971 109883840 106211304 102842112 99797112 97082544 94692920 92613600 
1150.346 90824296 89304160 88032888 86993344 86172696 85559152 85142184 
1153.722 84911472 84856648 84968968 85242368 85673352 86260992 87006064 
1157.097 87910192 88975152 90203512 91598520 93164504 94906056 96825984 
1160.472 98923344 101190592 103610944 106158928 108795448 111469144 
1163.365 114120488 116675976 119054768 121176080 122954656 124314368 
1166.258 125193592 125547320 125357088 124630608 123402712 121727016 
1169.151 119671264 117312456 114724064 111979416 109148640 106291248 
1172.044 103461488 100704360 98052696 95532336 93162488 90957056 88928384 
1175.420 87086344 85436672 83981112 82716488 81636112 80731728 79995984 
1178.795 79423880 79012040 78758072 78658416 78706312 78892544 79204848 
1182.170 79628568 80148976 80750160 81416168 82132552 82885920 83666640 
1185.545 84469888 85295312 86146312 87026624 87936688 88869912 89810456 
1188.921 90731800 91599992 92378592 93030296 93526208 93848560 93993600 
1192.296 93972896 93812448 93552056 93236864 92916072 92636728 92434504 
1195.671 92334824 92349168 92476936 92707032 93019744 93389216 93779104 
1199.046 94143952 94430888 94576736 94519112 94204616 93594800 92677776 
1202.422 91470320 90018720 88388872 86660064 84918400 83240760 81695664 
1205.797 80337312 79199320 78298368 77633400 77189776 76943072 76863768 
1209.172 76923568 77093720 77348192 77664536 78020376 78396544 78778040 
1212.547 79154512 79522680 79886208 80255344 80644112 81068200 81543240 
1215.923 82082512 82695960 83390568 84168696 85027640 85959760 86953312 
1219.298 87992344 89059664 90139808 91220104 92292856 93356104 94412688 
1222.673 95469496 96535760 97622776 98741920 99903448 101115680 102382384 
1226.048 103701096 105060960 106443544 107823632 109170152 110453520 
1228.941 111645896 112724752 113675880 114492488 115175840 115735296 
1231.834 116189816 116569224 116911096 117263752 117679120 118205440 
1234.728 118887432 119757688 120835424 122126736 123623720 125305800 
1237.621 127137064 129069688 131043064 132981848 134808096 136440320 
1240.514 137799888 138823072 139457056 139662688 139415776 138703296 
1243.407 137526576 135901808 133864016 131465864 128771456 125858408 
1246.300 122808152 119700464 116620840 113651816 110869304 108343456 
1249.193 106122504 104227504 102646072 101333824 100217632 99203800 98200928 
1252.568 97126640 95922048 94562816 93058168 91449168 89795584 88171568 
1255.943 86648576 85280720 84102416 83119448 82311848 81635632 81032384 
1259.319 80437864 79784504 79014464 78083752 76964464 75650664 74157120 
1262.694 72519440 70785424 69011992 67257272 65569012 63984968 62530288 
1266.069 61217980 60053604 59037552 58166248 57432624 56826360 56335192 
1269.444 55945420 55645440 55426672 55283908 55213996 55214108 55280256 
1272.820 55407060 55589060 55821968 56104272 56437736 56825756 57271664 
1276.195 57777932 58345016 58972532 59659800 60406676 61213052 62076548 
1279.570 62991052 63945688 64922860 65900268 66853552 67755416 68579720 
1282.945 69302272 69900216 70355272 70653664 70787800 70757112 70568288 
1286.321 70234984 69774720 69207056 68552792 67830752 67061028 66266768 
1289.696 65473080 64710408 64010920 63402468 62906028 62529064 62262976 
1293.071 62081324 61943164 61799236 61594028 61278868 60819456 60200532 
1296.446 59431400 58544064 57590132 56627080 55711768 54891808 54196084 
1299.822 53637768 53214868 52915832 52722560 52614008 52568716 52563032 
1303.197 52573240 52578628 52561012 52508548 52416348 52284660 52117528 
1306.572 51919868 51697032 51454616 51199096 50940976 50692764 50468544 
1309.947 50282276 50143944 50059760 50033064 50065968 50162244 50327736 
1313.323 50569528 50894072 51305024 51802444 52383564 53045200 53785880 
1316.698 54607356 55513712 56510148 57600916 58787324 60067492 61436288 
1320.073 62885648 64402892 65968372 67554192 69120064 70611832 71970752 
1323.448 73133920 74047080 74677688 75021832 75109776 74999544 74774344 
1326.823 74525120 74332216 74260936 74346720 74593648 74977096 75453080 
1330.199 75970632 76481016 76951928 77371720 77750608 78116704 78509400 
1333.574 78973296 79547624 80263840 81141488 82186072 83388400 84724008 
1336.949 86157864 87641720 89119384 90534296 91828072 92950584 93866240 
1340.324 94554456 95012272 95249816 95285384 95139384 94831120 94379704 
1343.700 93802216 93115680 92336744 91478040 90549160 89556360 88505976 
1347.075 87409384 86288144 85174192 84112752 83157936 82364072 81788568 
1350.450 81484632 81497464 81867656 82624536 83783880 85346648 87295976 
1353.825 89597688 92195048 95013712 97959648 100915368 103757096 106352576 
1357.201 108568672 110293312 111432656 111924448 111745224 110910960 
1360.094 109478120 107531224 105190160 102599120 99912784 97301168 94918464 
1363.469 92878192 91242960 90010808 89127440 88499520 88021768 87591568 
1366.844 87118784 86542568 85831032 84981904 84016968 82974232 81899736 
1370.219 80836128 79823688 78896600 78081848 77404976 76890584 76562584 
1373.595 76445256 76555904 76898176 77457096 78199256 79079968 80048520 
1376.970 81060608 82083392 83096304 84094176 85083656 86080168 87100480 
1380.345 88157648 89253856 90376216 91492120 92547576 93476520 94199472 
1383.720 94636064 94718064 94391728 93633848 92462864 90957088 89252920 
1387.096 87521112 85943008 84652808 83715808 83131128 82850840 82805968 
1390.471 82922216 83135544 83387920 83623808 83793840 83851792 83762504 
1393.846 83513720 83121144 82626744 82080504 81525488 80981112 80443520 
1397.221 79896288 79326112 78736176 78153520 77622464 77187792 76881800 
1400.597 76710656 76658312 76693576 76783088 76897968 77016488 77128384 
1403.972 77232792 77337144 77454200 77598816 77783904 78016488 78297768 
1407.347 78623664 78988000 79386008 79817752 80289312 80811664 81396424 
1410.722 82050808 82774736 83559424 84390400 85251000 86127640 87011768 
1414.098 87899688 88791536 89687584 90585280 91479968 92364248 93232712 
1417.473 94086992 94941720 95827464 96780400 97836728 99014808 100307288 
1420.848 101690464 103132760 104606128 106087856 107566496 109041680 
1423.741 110520568 112015736 113538840 115095072 116678744 118271912 
1426.634 119843040 121353928 122757856 124004520 125050696 125861464 
1429.527 126417264 126714992 126767832 126606104 126273752 125829888 
1432.420 125337496 124848400 124397440 123991080 123612616 123234760 
1435.313 122843328 122461464 122164320 122055160 122222304 122696232 
1438.207 123434144 124340304 125290992 126167760 126858608 127270776 
1441.100 127345488 127051544 126389816 125383360 124073296 122510584 
1443.993 120748568 118845352 116852256 114807568 112742960 110687056 
1446.886 108681768 106798816 105134016 103790416 102853488 102363352 
1449.779 102316800 102680616 103413344 104474824 105826584 107429424 
1452.672 109225928 111136656 113070536 114910688 116524112 117772320 
1455.565 118515304 118665336 118238672 117395336 116372312 115371560 
1458.458 114494560 113738864 113057040 112402888 111756200 111119624 
1461.351 110505736 109920280 109356536 108799064 108236488 107677720 
1464.244 107160480 106738096 106459168 106338312 106348512 106429240 
1467.137 106508536 106524464 106425976 106175680 105740400 105077920 
1470.030 104136568 102863192 101230824 99273424 97113424 94956280 93014896 
1473.406 91440416 90277448 89482944 88974664 88678008 88552128 88586416 
1476.781 88786816 89155672 89682456 90342720 91109464 91960432 92886392 
1480.156 93889936 94980024 96164352 97444296 98813376 100260120 101771424 
1483.531 103332712 104929008 106540128 108135184 109676408 111113504 
1486.424 112383960 113417328 114126440 114407312 114151648 113256968 
1489.317 111665688 109402104 106589976 103431936 100144808 96910224 93822360 
1492.693 90888544 88059592 85258936 82417872 79503608 76531632 73567696 
1496.068 70711328 68059032 65676576 63585780 61778568 60232464 58926312 
1499.443 57844896 56974164 56297580 55795968 55450424 55244960 55166324 
1502.818 55197476 55309424 55453888 55550428 55492104 55160756 54460432 
1506.194 53377516 52009272 50531148 49098216 47782532 46573720 45427896 
1509.569 44304972 43191380 42098020 41054452 40093944 39238432 38497108 
1512.944 37866440 37336476 36896428 36536104 36243504 36002612 35796828 
1516.319 35615808 35462692 35355640 35318656 35368288 35501848 35694364 
1519.695 35903668 36089128 36229316 36341020 36472316 36678568 36986292 
1523.070 37379480 37811600 38228840 38595600 38902256 39171124 39443132 
1526.445 39761644 40150344 40607532 41115348 41656512 42225776 42832496 
1529.820 43492656 44218420 45008788 45852300 46734052 47648916 48612112 
1533.196 49660200 50835512 52157052 53613440 55165648 56771264 58393604 
1536.571 60012780 61630344 63253568 64894504 66558696 68236344 69899168 
1539.946 71508768 73042488 74497264 75889928 77248392 78589832 79919184 
1543.321 81227448 82500032 83721120 84881296 85979472 87017392 87989992 
1546.697 88876744 89632640 90191920 90485736 90453816 90075792 89380720 
1550.072 88440456 87328552 86080776 84677616 83055136 81142488 78909400 
1553.447 76402592 73752128 71138864 68710776 66538840 64592548 62758832 
1556.822 60868780 58738424 56236252 53361928 50326212 47494236 45191008 
1560.198 43531040 42432292 41726504 41253052 40893328 40564272 40216932 
1563.573 39831804 39417300 39004208 38632540 38334832 38119148 37966596 
1566.948 37837008 37685784 37474216 37183364 36820644 36418084 36020760 
1570.323 35667208 35379940 35162228 35004892 34891556 34801588 34710416 
1573.698 34586212 34394548 34108080 33721060 33264946 32806416 32426480 
1577.074 32180096 32078840 32098032 32199542 32349690 32529068 32734242 
1580.449 32971754 33250604 33576916 33950516 34366896 34820756 35307368 
1583.824 35822016 36357480 36900432 37433040 37938424 38405376 38835728 
1587.199 39244376 39658860 40110840 40631760 41249484 41984788 42853780 
1590.575 43866532 45023788 46312360 47697844 49128784 50535764 51844556 
1593.950 52992788 53932988 54641516 55116856 55375968 55448016 55366708 
1597.325 55169900 54892224 54562612 54203596 53826196 53429976 53003828 
1600.700 52531768 51999896 51403888 50753836 50074852 49402872 48774012 
1604.076 48220316 47764520 47418172 47187184 47072840 47073024 47177836 
1607.451 47366292 47607432 47861396 48092860 48281044 48425192 48544816 
1610.826 48671256 48838556 49070316 49375588 49749844 50181252 50655156 
1614.201 51157460 51678184 52208804 52746164 53295960 53879008 54528576 
1617.577 55274052 56134472 57105164 58161512 59262972 60366316 61436748 
1620.952 62450172 63404152 64315624 65215036 66130780 67078428 68056480 
1624.327 69051304 70048104 71039232 72025784 73012072 74001664 74995648 
1627.702 75995736 77011704 78063840 79184928 80409552 81760248 83241808 
1631.078 84837264 86518056 88248016 90001104 91769904 93565448 95418936 
1634.453 97372064 99469776 101738880 104186104 106807168 109584456 112505832 
1637.828 115561760 118738200 122011536 125347672 128715608 132085160 
1640.721 135438384 138770576 142074896 145330320 148497504 151506064 
1643.614 154274608 156728976 158813952 160516496 161867056 162943360 
1646.507 163840912 164658464 165489104 166398800 167432432 168607824 
1649.400 169912512 171292944 172643088 173818032 174622560 174877184 
1652.293 174530384 173799760 173143200 172967008 173397056 174257120 
1655.187 175269456 176186224 176860336 177237104 177319728 177146160 
1658.080 176756336 176170656 175381632 174361008 173075040 171500496 
1660.973 169630656 167478672 165074016 162466832 159728576 156947056 
1663.866 154211040 151584928 149085072 146670768 144244096 141668736 
1666.759 138786848 135459424 131601688 127216680 122407352 117356736 
1669.652 112285000 107388008 102800800 98586224 94741016 91211192 87902520 
1673.027 84695864 81469080 78139320 74713696 71322232 68191712 65542004 
1676.402 63499404 62050440 61086456 60466200 60078184 59868732 59837092 
1679.778 60013160 60423092 61062888 61899336 62891200 64021632 65332672 
1683.153 66935032 68979256 71559280 74649792 78113224 81788688 85587600 
1686.528 89507616 93596152 97898240 102415648 107098024 111826872 116456736 
1689.903 120860944 124951856 128703488 132134704 135282704 138177488 
1692.796 140828736 143218336 145314672 147084192 148519136 149654032 
1695.689 150574656 151378192 152102560 152692112 152985696 152756592 
1698.583 151727424 149664512 146515856 142558416 138372512 134545232 
1701.476 131383536 128821864 126590896 124374144 121927112 119108904 
1704.369 115890080 112345200 108620200 104885520 101269904 97838424 94594080 
1707.744 91502008 88507680 85549552 82571080 79527048 76398800 73198504 
1711.119 69971056 66777504 63670136 60685048 57828696 55086232 52439600 
1714.494 49885152 47440608 45140604 43016916 41082604 39322868 37716504 
1717.870 36255392 34960972 33876248 33037710 32449902 32078232 31859178 
1721.245 31719036 31601570 31480070 31367478 31303480 31334926 31486806 
1724.620 31749942 32085940 32448366 32804844 33146274 33485464 33841252 
1727.995 34222932 34620052 35006864 35355568 35654868 35916228 36168992 
1731.371 36443128 36754828 37098620 37453664 37802092 38154060 38550772 
1734.746 39050244 39686232 40449516 41300496 42190940 43085880 43967600 
1738.121 44842004 45729660 46650820 47606840 48573532 49505800 50359700 
1741.496 51107400 51743764 52280516 52733412 53107952 53392880 53561748 
1744.872 53583488 53437168 53118024 52638244 52016668 51269676 50399288 
1748.247 49391852 48223764 46876544 45349804 43669880 41888008 40067996 
1751.622 38269872 36534340 34878164 33299468 31783524 30310620 28857600 
1754.997 27401062 25922908 24419166 22907620 21428956 20035698 18770356 
1758.373 17652462 16670080 15787592 14957303 14139485 13317156 12502929 
1761.748 11732945 11047892 10473064 10006025 9622680 9289871 8982043 8686263 
1765.605 8402239 8135414 7889470 7661876 7444918 7231100 7019610 6817512 
1769.463 6634685 6475847 6334280 6190944 6022156 5813939 5572126 5323369 
1773.320 5100937 4927980 4804706 4713053 4625906 4522271 4394560 4250826 
1777.177 4107941 3980888 3874029 3777859 3674693 3548968 3398367 3235433 
1781.035 3082472 2957719 2866454 2797752 2731594 2648677 2541646 2417715 
1784.892 2296251 2196100 2125939 2080824 2046667 2009483 1963249 1911994 
1788.750 1866502 1836022 1820882 1810168 1785980 1733881 1651721 1554711 
1792.607 1466168 1407127 1382994 1382728 1386684 1378241 1351418 1312133 
1796.465 1273483 1246866 1235435 1231115 1220216 1189981 1137887 1073543 
1800.322 1014422 975832 962649 967264 975068 972810 956173 931269 909852 
1804.662 902016 909487 924661 935021 931069 911180 883091 858721 847500 
1809.001 849459 855269 850422 824826 778884 724217 677224 650610 646528 
1813.341 656085 664613 660631 641916 616963 600240 602761 626917 663883 
1817.680 699326 720865 725412 720567 719339 732017 759831 793821 820178 
1822.020 827216 811780 780245 744596 716186 698662 687445 673640 651240 
1826.360 621409 592243 572469 566033 567426 564407 543041 497262 434140 
1830.699 371757 328814 314953 326492 349141 366351 367081 351893 331334 
1835.039 320225 327985 353949 387078 413378 423792 420343 414737 422730 
1839.378 454405 508607 573066 630667 668330 682069 678485 670952 672611 
1843.718 688972 716517 746787 774369 801921 838238 892254 966069 1052717 
1848.058 1138684 1209318 1255771 1279897 1291495 1302196 1317616 1334201 
1851.915 1340915 1326723 1286344 1225898 1158817 1100548 1058330 1029102 
1855.772 1000208 957734 894711 814966 730822 656881 601268 561454 526487 
1860.112 484026 428070 363367 302851 259152 238332 235083 236542 228287 
1864.452 203424 165768 128015 103821 99347 109157 118834 112537 82511 35024 
1869.273 -13054 -42906 -46583 -29455 -7720 2286 -9045 -39195 -77195 -109328 
1874.095 -127746 -134437 -139670 -154774 -184153 -222967 -258368 -278601 
1877.953 -278965 -266580 -256348 -264163 -297077 -350251 -409112 -457935 
1881.810 -487823 -501028 -508012 -520919 -545540 -577506 -604573 -614863 
1885.667 -604441 -580848 -560067 -557056 -579558 -622572 -671637 -708854 
1889.525 -724004 -718414 -704156 -693901 -694629 -703462 -709945 -703627 
1893.382 -680834 -647023 -614599 -595805 -594084 -602720 -607220 -595242 
1897.240 -561887 -514664 -467038 -432846 -416990 -413349 -407655 -386733 
1901.097 -345649 -291415 -238433 -201242 -186603 -190081 -199388 -201706 
1904.955 -191869 -174912 -162690 -166036 -187994 -220947 -251745 -267408 
1908.812 -264925 -252109 -244228 -254593 -286680 -331942 -374418 -399611 
1912.669 -401928 -387760 -370942 -366076 -379219 -406993 -438274 -463331 
1916.527 -478986 -492126 -513836 -552820 -607220 -664193 -706670 -722482 
1920.384 -711996 -687814 -669156 -670909 -697077 -737533 -774843 -792637 
1924.242 -786419 -764557 -743586 -737434 -749937 -772627 -790521 -790884 
1928.099 -771337 -742462 -721325 -722846 -750036 -792306 -830339 -846742 
1931.957 -834804 -801633 -762870 -734589 -724401 -728437 -735879 -737004 
1935.814 -731083 -726419 -735482 -766111 -815457 -869560 -910892 -927854 
1939.671 -921737 -907652 -906396 -931656 -983430 -1045246 -1094065 -1111515 
1943.529 -1095519 -1059625 -1026339 -1012554 -1020686 -1037908 -1044288 
1946.904 -1024190 -975959 -912711 -854282 -816549 -801302 -796507 -782384 
1950.761 -745339 -686359 -621811 -573734 -559439 -580716 -624028 -668130 
1954.619 -696845 -709151 -719968 -751426 -818302 -918861 -1033115 -1133625 
1958.476 -1197435 -1220663 -1218747 -1218714 -1241512 -1290936 -1350793 
1961.852 -1396571 -1408494 -1383723 -1336457 -1291432 -1267844 -1268835 
1965.227 -1280398 -1279638 -1250102 -1192743 -1126189 -1075457 -1059195 
1968.602 -1076878 -1111218 -1135905 -1133823 -1106525 -1073870 -1063426 
1971.977 -1093040 -1161846 -1248615 -1322616 -1357498 -1345838 -1297213 
1975.353 -1230939 -1159170 -1080415 -979000 -839798 -660620 -461676 -277044 
1979.210 -143579 -81700 -86703 -133045 -187531 -226147 -242076 -245486 
1983.067 -252937 -275819 -310951 -342504 -351608 -328002 -278236 -222669 
1986.925 -182828 -172792 -188558 -212668 -223497 -208230 -170904 -129104 
1990.782 -104525 -108434 -135198 -163353 -168685 -135927 -68283 15142 88742 
1995.122 134511 149824 145648 138654 140080 148532 152708 138290 100308 
1999.461 47384 0 -20410 -4075 41121 91128 120326 111908 68062 7620 -43005 
2004.765 -64076 -54137 -27334 -5235 -3114 -20973 -44894 -55860 -42144 -6825 
2009.587 33400 58883 59214 39530 18025 14546 39232 85361 133948 162221 
2014.409 158078 125960 85394 59811 62926 92652 132092 162155 169878 157945 
2019.231 140941 135804 149659 176342 198186 197391 167259 116813 66008 35885 
2024.052 36217 59877 87814 99446 85626 52553 18853 2451 11530 37774 62859 
2029.356 67399 46257 9973 -18057 -14446 31014 110847 205744 292473 358061 
2034.178 404125 443327 489599 547155 608302 658043 684292 686317 678120 
2038.518 679480 708519 769457 851285 932530 993167 1025382 1035545 1039963 
2042.857 1054610 1085302 1124665 1156923 1167056 1151109 1119217 1091845 
2046.715 1087826 1116925 1173369 1240087 1297178 1330312 1336627 1322103 
2050.572 1296746 1266870 1234704 1199915 1162604 1128718 1107126 1106827 
2054.430 1130213 1170212 1210979 1234704 1230816 1200114 1155528 1114666 
2058.287 1091978 1091679 1106660 1123004 1128585 1119350 1101744 1087826 
2062.145 1087859 1105066 1133070 1161242 1180179 1188220 1192140 1203769 
2066.002 1231514 1276142 1328916 1376612 1408124 1419692 1416435 1408589 
2069.859 1404667 1406894 1409155 1402573 1380867 1344936 1304821 1273317 
2073.717 1260855 1269728 1293356 1319378 1337657 1344704 1344670 1346432 
2077.574 1357234 1378341 1404135 1425709 1436081 1434884 1429200 1429100 
2081.432 1442564 1470822 1507694 1543804 1570939 1586835 1595415 1604194 
2085.289 1618229 1637053 1654115 1660269 1649659 1622453 1585771 1549457 
2089.146 1521327 1502607 1488244 1470058 1442531 1406961 1371626 1347097 
2093.004 1341812 1356769 1385121 1415770 1438441 1449578 1452072 1453801 
2096.861 1460716 1474679 1492200 1506464 1513712 1514444 1514876 1522856 
2100.719 1543306 1574131 1607420 1633494 1645667 1643772 1634326 1626311 
2104.576 1626543 1635822 1648528 1656510 1654215 1642075 1625945 1613905 
2108.434 1611843 1619592 1631166 1638650 1637053 1626976 1615335 1610114 
2112.291 1617098 1635157 1657442 1674904 1681090 1675769 1664925 1657641 
2116.148 1660069 1673507 1692733 1710429 1720641 1722371 1719577 1718479 
2120.006 1723835 1735245 1747987 1755971 1755671 1748452 1740102 1737042 
2123.863 1742697 1754274 1764188 1763290 1746357 1714454 1674804 1635689 
2127.721 1602066 1572735 1540479 1496290 1434419 1356536 1271190 1189748 
2131.578 1121078 1068228 1027342 992835 960092 930140 907926 898696 902846 
2135.918 913836 919780 910317 881597 839466 796709 766137 754454 757308 
2140.257 762586 756014 729926 687711 641318 604719 587267 587101 593206 
2144.597 591812 573564 539890 501673 473909 466048 478984 503929 529672 
2148.937 548482 560691 572967 593239 621376 647756 655255 627249 556279 
2153.276 449065 322712 199545 94839 13651 -49698 -101610 -142088 -157921 
2157.616 -129104 -38731 112968 303514 495404 649050 742140 774934 768594 
2161.955 751201 745492 761291 794385 833656 869943 902149 935419 975832 
2166.295 1024054 1072015 1106295 1115962 1097824 1061187 1021330 994994 
2170.152 990345 1003164 1020168 1027275 1017577 995326 973607 968427 989415 
2174.492 1034715 1092742 1147189 1186625 1206859 1212475 1210780 1207291 
2178.349 1201975 1191044 1171707 1146558 1125330 1120745 1142704 1190346 
2182.207 1251950 1309275 1345003 1350886 1330312 1296181 1264145 1244141 
2186.064 1238758 1243410 1252216 1263780 1282655 1316453 1371726 1446852 
2189.922 1532632 1614703 1679893 1723735 1750515 1772472 1800586 1841512 
2193.779 1892159 1943212 1984351 2009682 2020834 2025128 2030654 2041606 
2197.636 2056088 2068173 2072135 2066242 2054756 2045069 2043371 2050562 
2201.494 2061448 2067907 2064111 2050428 2034283 2026659 2037046 2067507 
2205.351 2113053 2163099 2208256 2244791 2275533 2307210 2345053 2389029 
2209.209 2432476 2464798 2477794 2469763 2447770 2423513 2408053 2406553 
2213.066 2416449 2429410 2435775 2429644 2411451 2385930 2359044 2333293 
2216.924 2307210 2277298 2241494 2201828 2164731 2138558 2128336 2132931 
2220.781 2144319 2151012 2143720 2119113 2080658 2036879 1996134 1962949 
2224.638 1936755 1912892 1888166 1862642 1840780 1829234 1831131 1845172 
2228.496 1863774 1877550 1878615 1865105 1842311 1818952 1803447 1799555 
2232.353 1805311 1815459 1824476 1831031 1837785 1850363 1873890 1909298 
2236.211 1953630 2000761 2046300 2088415 2129502 2173389 2222909 2277532 
2240.068 2333260 2384964 2429544 2467663 2503353 2541613 2584842 2631543 
2243.926 2676448 2713756 2740630 2759003 2775242 2796751 2827399 2865787 
2247.783 2904979 2936702 2954783 2958653 2953716 2948078 2949279 2959554 
2251.640 2976401 2994350 3008430 3017105 3023044 3030417 3043130 3061315 
2255.498 3080670 3094885 3099290 3092116 3075831 3054809 3032887 3011299 
2259.355 2988412 2961355 2928930 2893238 2859083 2832168 2816060 2810124 
2263.213 2810624 2812425 2811858 2808590 2805955 2807823 2816627 2830968 
2267.070 2845976 2855981 2857282 2849911 2837905 2826699 2820562 2820529 
2270.927 2823731 2826365 2825598 2821096 2815560 2812358 2813526 2818061 
2274.785 2822897 2824231 2820629 2813959 2809390 2812558 2827032 2852012 
2278.642 2883398 2914619 2940739 2959687 2973132 2985342 2999788 3019173 
2282.500 3042863 3069658 3097789 3127357 3159029 3193842 3231261 3269618 
2286.357 3305207 3335123 3357895 3375192 3390520 3407818 3429792 3456511 
2290.215 3486003 3515196 3542554 3567843 3592833 3619126 3647661 3677199 
2294.072 3705169 3729331 3748314 3763387 3777157 3792532 3810816 3831106 
2297.929 3850929 3867611 3879947 3888773 3896395 3905756 3917726 3931133 
2301.787 3943103 3950526 3951663 3947349 3940361 3933908 3930331 3929963 
2305.644 3930832 3930832 3928458 3924312 3920434 3918729 3920300 3923911 
2309.502 3926987 3926419 3920902 3910872 3899504 3890077 3885062 3884594 
2313.359 3886733 3888538 3887569 3883457 3877339 3871355 3867042 3864234 
2317.217 3861626 3857147 3849726 3840065 3830504 3824287 3824220 3831039 
2321.074 3843642 3858952 3873127 3881919 3881718 3869717 3843541 3802426 
2324.931 3747278 3681543 3610673 3541820 3481594 3434702 3402742 3383574 
2328.789 3373422 3368246 3365642 3365408 3369315 3379400 3396297 3418972 
2332.646 3445389 3473344 3502002 3532166 3565638 3603724 3645990 3690098 
2336.504 3732506 3770239 3802526 3830270 3856545 3883791 3913045 3943270 
2340.361 3971993 3996905 4017639 4035531 4052988 4072086 4093024 4114063 
2344.219 4132862 4148183 4161898 4178759 4205188 4246543 4305135 4379331 
2348.076 4464319 4553409 4639804 4718513 4786079 4840757 4882306 4910856 
2351.933 4927779 4934649 4934113 4929555 4924026 4919736 4917424 4916385 
2355.791 4915179 4912766 4910018 4908544 4910722 4918262 4930225 4944603 
2359.648 4958377 4969605 4978788 4988273 5001814 5022126 5049814 5082633 
2363.506 5117097 5149888 5179461 5205885 5230935 5256021 5280940 5304015 
2367.363 5323134 5336350 5344066 5348460 5352888 5360100 5371338 5386132 
2371.220 5403275 5421962 5442563 5467224 5497927 5536384 5582631 5635227 
2375.078 5692261 5752793 5817331 5887924 5967127 6056324 6155521 6262102 
2378.935 6373282 6485667 6597712 6708910 6820104 6931528 7042812 7151935 
2382.793 7256469 7354121 7443570 7525182 7599897 7668992 7732702 7790720 
2386.650 7841796 7885320 7920851 7948859 7970019 7984598 7992259 7992191 
2390.508 7983586 7966779 7943291 7915553 7886130 7855933 7824860 7791226 
2394.365 7753514 7711285 7666294 7621747 7582026 7550062 7527137 7512270 
2398.222 7503302 7498346 7496392 7498279 7505561 7519686 7541027 7568707 
2402.080 7601110 7637225 7676749 7720931 7771391 7829583 7895645 7968804 
2405.937 8047308 8129978 8216143 8306276 8400854 8500013 8602743 8707729 
2409.795 8813315 8919029 9025511 9133950 9245394 9359236 9472803 9581793 
2413.652 9681968 9770067 9845068 9908149 9961576 10007584 10046612 10078387 
2417.510 10101617 10115455 10120339 10117727 10109791 10098022 10082999 
2420.885 10064145 10040340 10011891 9979579 9945744 9912658 9882048 9854185 
2424.742 9828053 9802771 9778167 9755970 9739230 9731640 9735639 9752209 
2428.600 9780641 9819072 9865472 9919099 9979884 10047664 10122034 10201743 
2432.457 10284756 10370026 10457213 10547779 10644305 10749242 10863955 
2435.832 10987534 11118457 11254281 11393719 11537150 11686039 11842130 
2439.208 12006452 12178571 12357032 12540136 12727411 12919853 13119688 
2442.583 13328943 13548656 13778400 14016101 14259548 14507310 14759568 
2445.958 15017736 15283298 15557126 15838174 16124113 16412238 16700001 
2449.333 16986304 17270758 17553260 17832772 18107384 18374118 18630050 
2452.708 18873502 19103658 19321080 19525548 19715548 19888080 20038266 
2456.084 20161496 20254282 20315108 20344208 20342818 20311708 20250394 
2459.459 20157472 20030908 19869732 19674602 19448130 19193446 18913612 
2462.834 18610614 18285638 17939150 17572858 17189432 16793806 16391488 
2466.209 15987892 15587486 15193901 14809722 14437838 14081674 13744678 
2469.585 13429884 13139223 12872715 12628987 12406363 12203516 12020247 
2472.960 11856602 11712452 11586013 11474137 11372528 11276928 11184375 
2476.335 11093948 11007041 10925112 10849517 10780151 10716129 10655579 
2479.710 10597788 10542857 10492242 10447540 10409698 10378307 10352279 
2483.086 10329816 10310068 10293476 10281092 10274408 10273594 10277937 
2486.461 10285231 10293239 10300499 10306810 10313325 10321503 10332360 
2489.836 10345899 10361068 10376406 10391304 10405999 10422051 10441329 
2493.211 10465223 10494211 10527546 10563531 10600334 10636291 10670215 
2496.587 10701152 10728288 10751178 10769893 10785586 10800668 10817517 
2499.962 10838646 10865416 10897080 10931907 10967315 11001400 11033176 
2503.337 11063357 11093303 11124236 11156497 11189304 11221502 11252036 
2506.712 11280838 11308623 11336136 11363549 11389909 11412802 11430015 
2510.088 11440050 11442771 11439846 11433825 11426851 11419605 11411645 
2513.463 11401339 11387324 11368753 11346577 11321920 11296006 11269786 
2516.838 11242958 11215246 11186890 11159318 11135113 11116315 11104655 
2520.213 11099659 11099795 11101936 11103908 11104417 11103602 11102446 
2523.589 11102106 11103058 11105267 11108292 11112303 11118185 11127464 
2526.964 11141368 11160066 11181926 11204570 11225242 11242890 11258395 
2530.339 11274275 11294101 11320219 11353210 11391202 11431171 11470463 
2533.714 11507105 11541743 11575703 11611536 11650335 11692608 11737916 
2537.090 11785543 11835149 11886601 11940001 11995041 12049986 12103235 
2540.465 12152879 12198472 12241038 12282858 12326386 12372782 12421638 
2543.840 12470601 12517047 12558791 12595457 12628476 12660508 12693532 
2547.215 12728776 12765558 12802309 12837153 12869610 12899783 12928660 
2550.591 12956925 12984372 13009670 13031010 13047433 13059418 13069149 
2553.966 13079222 13092506 13110571 13132905 13158041 13183862 13208386 
2557.341 13230588 13250196 13267004 13280840 13291088 13297067 13298638 
2560.716 13296179 13290508 13282718 13273392 13262494 13249513 13234414 
2564.092 13218086 13202135 13188985 13180309 13176552 13176416 13177168 
2567.467 13176245 13172147 13165076 13156777 13149776 13145917 13145746 
2570.842 13148239 13151621 13154455 13156128 13158007 13161286 13167536 
2574.217 13177236 13189737 13203877 13218428 13233253 13248761 13265842 
2577.593 13284973 13305574 13326312 13345275 13360856 13372850 13381837 
2580.968 13389594 13398273 13409481 13424723 13445023 13471066 13503160 
2584.343 13541547 13585030 13631732 13678678 13722996 13762804 13797622 
2587.718 13829261 13860322 13893539 13930420 13971034 14013911 14057168 
2591.094 14099402 14140306 14180632 14221543 14263520 14306356 14348684 
2594.469 14389371 14427288 14462912 14497101 14531499 14566961 14603694 
2597.844 14641389 14679876 14719395 14761420 14807699 14860088 14919375 
2601.219 14984911 15054850 15127132 15200318 15273825 15348100 15424414 
2604.594 15503384 15585117 15668480 15752476 15835837 15918285 15999787 
2607.970 16080650 16160771 16239153 16314764 16386671 16454322 16517855 
2611.345 16577849 16634652 16687674 16735641 16777068 16810648 16836482 
2614.720 16855736 16870512 16882776 16893696 16902858 16908784 16909714 
2618.095 16904752 16894522 16880708 16865964 16852978 16843094 16837066 
2621.471 16834860 16836068 16840578 16849018 16861316 16877848 16898242 
2624.846 16921668 16947196 16974484 17003770 17035818 17071382 17110706 
2628.221 17153582 17199324 17247140 17296582 17348444 17403486 17462532 
2631.596 17526386 17594456 17666058 17740468 17817134 17896126 17977550 
2634.972 18061340 18147320 18233422 18318436 18400596 18479522 18555904 
2638.347 18631156 18707220 18785232 18865752 18948050 19031574 19115116 
2641.722 19198364 19281038 19363136 19444146 19523262 19599410 19671828 
2645.097 19740688 19806678 19871674 19937234 20004782 20074770 20146920 
2648.473 20220818 20296430 20374036 20454430 20538630 20627084 20719482 
2651.848 20814994 20912336 21010706 21109692 21209778 21311524 21415346 
2655.223 21521316 21629054 21737796 21847468 21957902 22069722 22183700 
2658.598 22300112 22418860 22539350 22660290 22780988 22900740 23019092 
2661.974 23136114 23251560 23364692 23475058 23581778 23684500 23783362 
2665.349 23879026 23972572 24064214 24154686 24243738 24331024 24416362 
2668.724 24499966 24582216 24663956 24746100 24828820 24912396 24996480 
2672.099 25080652 25164418 25247638 25329786 25410578 25489628 25566340 
2675.475 25640286 25711224 25779184 25844410 25907080 25967366 26025728 
2678.850 26082054 26137016 26191528 26246682 26304128 26365386 26431898 
2682.225 26505006 26585738 26674726 26773144 26881240 26999308 27127072 
2685.600 27263656 27407486 27557398 27711742 27869922 28031514 28196494 
2688.976 28365248 28537466 28713044 28891842 29073552 29258172 29445990 
2692.351 29637260 29832198 30030846 30233350 30439466 30649486 30863556 
2695.726 31081896 31304616 31531338 31761206 31993482 32227058 32461830 
2699.101 32698120 32937116 33179604 33426092 33676516 33929844 34184144 
2702.477 34437732 34688700 34935400 35176852 35412072 35639832 35859188 
2705.852 36068928 36268072 36455416 36630224 36791432 36937804 37068056 
2709.227 37180512 37274336 37348712 37404040 37440660 37459548 37461428 
2712.602 37446800 37415884 37368648 37305640 37227476 37134964 37028976 
2715.978 36910060 36778124 36633072 36474840 36303876 36121460 35929508 
2719.353 35730124 35525076 35315524 35102196 34885992 34668064 34450676 
2722.728 34236664 34029308 33831116 33643680 33467318 33301220 33144518 
2726.103 32996740 32858164 32729988 32613818 32510892 32421946 32346908 
2729.479 32285336 32236192 32199186 32173600 32159008 32154512 32159648 
2732.854 32173458 32195512 32225664 32263924 32310784 32366220 32429728 
2736.229 32500036 32575778 32655004 32736528 32819390 32903410 32988410 
2739.604 33073970 33159252 33243056 33324010 33401008 33473294 33540618 
2742.979 33603048 33661336 33715868 33767616 33817144 33865360 33913076 
2746.355 33960796 34008920 34057404 34105824 34154280 34202568 34251148 
2749.730 34300732 34352012 34405524 34461616 34520196 34581908 34646856 
2753.105 34716588 34792576 34876552 34969912 35073496 35187880 35313228 
2756.480 35449536 35597108 35755808 35925260 36104428 36290912 36481976 
2759.856 36674352 36864752 37050660 37229752 37400536 37561344 37710360 
2763.231 37845544 37965036 38067060 38150584 38215344 38261368 38289052 
2766.606 38298752 38290932 38266328 38226308 38172832 38108984 38037872 
2769.981 37962940 37886720 37811308 37738188 37668364 37602784 37542452 
2773.357 37488408 37440808 37399452 37363268 37330840 37300728 37272208 
2776.732 37244588 37217836 37191776 37165248 37136728 37103748 37063472 
2780.107 37013492 36951976 36877740 36790856 36691944 36582352 36463632 
2783.482 36338568 36210156 36081672 35956540 35837704 35727032 35625160 
2786.858 35531584 35445260 35364592 35288604 35216484 35148148 35084128 
2790.233 35024932 34971420 34924128 34883660 34850088 34822804 34801336 
2793.608 34784248 34770500 34758584 34747564 34736652 34724988 34711276 
2796.983 34694408 34672444 34643484 34606200 34559844 34504628 34441104 
2800.359 34370264 34292772 34208804 34117868 34019744 33913968 33801248 
2803.734 33682532 33559272 33433144 33305514 33177496 33050154 32924462 
2807.109 32801594 32683544 32571278 32466042 32368612 32278806 32196868 
2810.484 32123078 32058186 32004144 31962666 31935670 31924504 31929676 
2813.860 31950432 31985528 32033396 32092362 32161184 32239154 32325990 
2817.235 32422018 32527782 32644146 32772112 32912630 33065994 33232432 
2820.610 33411670 33603192 33806832 34022608 34250752 34491320 34744404 
2823.985 35009488 35285340 35570748 35864012 36163808 36469040 36778412 
2827.361 37090244 37402236 37711808 38015592 38311020 38595856 38869352 
2830.736 39131744 39384320 39628696 39866704 40100372 40331188 40561800 
2834.111 40795300 41035516 41287196 41554920 41842876 42154352 42491592 
2837.486 42856084 43249136 43672484 44128552 44621560 45156340 45739192 
2840.862 46376692 47074980 47839424 48674372 49581896 50562676 51615788 
2844.237 52738160 53924960 55169260 56462372 57792468 59146012 60507788 
2847.612 61860172 63185192 64464724 65679544 66811232 67842144 68753936 
2850.987 69530784 70157904 70622592 70915936 71032672 70972272 70739016 
2854.363 70342112 69795024 69113416 68315944 67422600 66452032 65423996 
2857.738 64356468 63265452 62166080 61071048 59991172 58936628 57916180 
2861.113 56938240 56010852 55141192 54335524 53599304 52936492 52349996 
2864.488 51842132 51414328 51066960 50799420 50609436 50493184 50444988 
2867.864 50457752 50522700 50629352 50766496 50920932 51078816 51226316 
2871.239 51349960 51438688 51484944 51485204 51440848 51357456 51244844 
2874.614 51114852 50980696 50856148 50753052 50681552 50648824 50658728 
2877.989 50712124 50807464 50942132 51113176 51318112 51555680 51825256 
2881.365 52126376 52458072 52817816 53201796 53604852 54020256 54441092 
2884.740 54860300 55270364 55665252 56039992 56391780 56720968 57030684 
2888.115 57327692 57620516 57919020 58233344 58572200 58944260 59357928 
2891.490 59822224 60348800 60952232 61649664 62461876 63411168 64519004 
2894.865 65805912 67284576 68957160 70807384 72798520 74867528 76922928 
2898.241 78859648 80560696 81912704 82831144 83264240 83207248 82698328 
2901.616 81816448 80665656 79353120 77986632 76657168 75430656 74356080 
2904.991 73460872 72757184 72246968 71925360 71783512 71810528 71995704 
2908.366 72329040 72801104 73403968 74130160 74971624 75919920 76965016 
2911.742 78094736 79296872 80558024 81864696 83204488 84564880 85933480 
2915.117 87298536 88647536 89968328 91249296 92478856 93646384 94742256 
2918.492 95757528 96684840 97518696 98254768 98890432 99424488 99856240 
2921.867 100185160 100411072 100534384 100556440 100479512 100308080 
2924.760 100047264 99703440 99283712 98794488 98242632 97634848 96977160 
2928.136 96275416 95534520 94757832 93947392 93103280 92224544 91308824 
2931.511 90353568 89355720 88312080 87220144 86078032 84885288 83643576 
2934.886 82357304 81034256 79684376 78320584 76957272 75608544 74289048 
2938.261 73012104 71789536 70632064 69549024 68547824 67634944 66814372 
2941.637 66087648 65452972 64904736 64433292 64024588 63662500 63328968 
2945.012 63005612 62677176 62331776 61963032 61570244 61159000 60739384 
2948.387 60324056 59927112 59560940 59233500 58948208 58702808 58490492 
2951.762 58300676 58121928 57943592 57756476 57554040 57332268 57088120 
2955.138 56820092 56526224 56205328 55855876 55477344 55070060 54634828 
2958.513 54173412 53687668 53179324 52649840 52100340 51531800 50945408 
2961.888 50342584 49724952 49095060 48455860 47810980 47165060 46523264 
2965.263 45890636 45272788 44673960 44097632 43546460 43022072 42525944 
2968.639 42059032 41622744 41218188 40846696 40509020 40205660 39936916 
2972.014 39702572 39502208 39334332 39196328 39083524 38988588 38901604 
2975.389 38809708 38698676 38554064 38362124 38112708 37800176 37424660 
2978.764 36992316 36515096 36009312 35492896 34983848 34498424 34048480 
2982.140 33641568 33280794 32965138 32690510 32450296 32237082 32042668 
2985.515 31859856 31683538 31511384 31344574 31187546 31046802 30928592 
2988.890 30836448 30769294 30720642 30679390 30630428 30560212 30457664 
2992.265 30317726 30142492 29940954 29727338 29517514 29327078 29168332 
2995.641 29047796 28966784 28921592 28905938 28911960 28932996 28964588 
2999.016 29004578 29052578 29108874 29173186 29244278 29319456 29395216 
3002.391 29468436 29536772 29599092 29654820 29704594 29748450 29786312 
3005.766 29817540 29841746 29858248 29867192 29868754 29863394 29851150 
3009.142 29831808 29804588 29768640 29723860 29670464 29609804 29543476 
3012.517 29473576 29401704 29329204 29256682 29184348 29112524 29041560 
3015.892 28972202 28905902 28844108 28788910 28741646 28703236 28673680 
3019.267 28651984 28636304 28624484 28614540 28605480 28596774 28588988 
3022.643 28583042 28579432 28578054 28578338 28579152 28580034 28581308 
3026.018 28584104 28590686 28603108 28622962 28650250 28683804 28721574 
3029.393 28761364 28801266 28840816 28880122 28920210 28961826 29005182 
3032.768 29049744 29094702 29138850 29181620 29222870 29263274 29304144 
3036.144 29346752 29392558 29442976 29498862 29560996 29629456 29704240 
3039.519 29784574 29869642 29958134 30048776 30140360 30232072 30323054 
3042.894 30412920 30501240 30587408 30671176 30752506 30831470 30908416 
3046.269 30984276 31059756 31136034 31214104 31294576 31377874 31463828 
3049.645 31551826 31641162 31730588 31819030 31905570 31989594 32070850 
3053.020 32149158 32224738 32297398 32367646 32435834 32502536 32568958 
3056.395 32636252 32705516 32777474 32852016 32928750 33006858 33085626 
3059.770 33164940 33245056 33326692 33410560 33496916 33585400 33675156 
3063.146 33765180 33854756 33943532 34031604 34119480 34207372 34295356 
3066.521 34383140 34470512 34557368 34644596 34733316 34824924 34920644 
3069.896 35020980 35125692 35234020 35345216 35458596 35574164 35692316 
3073.271 35813736 35939084 36068640 36202160 36339432 36479848 36623196 
3076.646 36768788 36916048 37064336 37212748 37360596 37507880 37655072 
3080.022 37803216 37953540 38107032 38263832 38423584 38584988 38746672 
3083.397 38907292 39066196 39223380 39379640 39535884 39693712 39854392 
3086.772 40019128 40188652 40363148 40541612 40722512 40903488 41082204 
3090.147 41256664 41426160 41590944 41752988 41914136 42076700 42242060 
3093.523 42410848 42582880 42758196 42936984 43119980 43308260 43503388 
3096.898 43705788 43915540 44131632 44352820 44578012 44806848 45038964 
3100.273 45275472 45517004 45764120 46017268 46276348 46541304 46812320 
3103.648 47089272 47372496 47661492 47955336 48252088 48548780 48842376 
3107.024 49129196 49405920 49669968 49919008 50151908 50367920 50567184 
3110.399 50750444 50918732 51073336 51215392 51345332 51463156 51568028 
3113.774 51658964 51734544 51793748 51835968 51860984 51869200 51861208 
3117.149 51838020 51800804 51750632 51688932 51616648 51534896 51444472 
3120.525 51345860 51240148 51128568 51013224 50896716 50782136 50672096 
3123.900 50568596 50472864 50385004 50304856 50232468 50168380 50113860 
3127.275 50070544 50039752 50022320 50018156 50026296 50045224 50073552 
3130.650 50110664 50155848 50209740 50272640 50344744 50425900 50515296 
3134.026 50611852 50714620 50822584 50934828 51051088 51170916 51294064 
3137.401 51420448 51549408 51680760 51813756 51948136 52083680 52220572 
3140.776 52359080 52499648 52642992 52789192 52938100 53089040 53241008 
3144.151 53393104 53544540 53695316 53845624 53996356 54148416 54301916 
3147.527 54456788 54612396 54768088 54923092 55077584 55232168 55388012 
3150.902 55546172 55707064 55870160 56034752 56198992 56361560 56521736 
3154.277 56679176 56834444 56987840 57139856 57290376 57438944 57585404 
3157.652 57729908 57873248 58017016 58163064 58313144 58468052 58627868 
3161.028 58791764 58958224 59125932 59293656 59461076 59627792 59793740 
3164.403 59958648 60121904 60282748 60440532 60594520 60744912 60892300 
3167.778 61037604 61181812 61325496 61469000 61612244 61754428 61895092 
3171.153 62033428 62169216 62302364 62433256 62562244 62689616 62815384 
3174.529 62939236 63060052 63176728 63288108 63393684 63493572 63589304 
3177.904 63682488 63775428 63869612 63965888 64063832 64162576 64260796 
3181.279 64357468 64452468 64546028 64639108 64732404 64826064 64919784 
3184.654 65012292 65102780 65189852 65273524 65353892 65431512 65507100 
3188.030 65581388 65654188 65725996 65796620 65866256 65934820 66002704 
3191.405 66069820 66136376 66202208 66267116 66330844 66393228 66453652 
3194.780 66511424 66565648 66615784 66661364 66703164 66742264 66780164 
3198.155 66818544 66858000 66898040 66937388 66973768 67005120 67030252 
3201.531 67049040 67062652 67072860 67082024 67091732 67103296 67117408 
3204.906 67134232 67153720 67175264 67198200 67221288 67242760 67261176 
3208.281 67275640 67286280 67294296 67301672 67310352 67321296 67334296 
3211.656 67347648 67359208 67366984 67370320 67370008 67368072 67367608 
3215.031 67370744 67378712 67391176 67406496 67422320 67436760 67448216 
3218.407 67456264 67461296 67464512 67466984 67470392 67475536 67483712 
3221.782 67495320 67510640 67529344 67550824 67573976 67598056 67622208 
3225.157 67646256 67670072 67693688 67717272 67740504 67763472 67786128 
3228.532 67809064 67833384 67860272 67891528 67927832 67969480 68015632 
3231.908 68065472 68117256 68169624 68221448 68271936 68320640 68367408 
3235.283 68412320 68455760 68498480 68541344 68585384 68631560 68680456 
3238.658 68732544 68787480 68845400 68906008 68969344 69034792 69101960 
3242.033 69169592 69236360 69301216 69363528 69423864 69483776 69545408 
3245.409 69611368 69682552 69759232 69840088 69922672 70004072 70082208 
3248.784 70155880 70225128 70290880 70355040 70419336 70485464 70554064 
3252.159 70625632 70699440 70774504 70849464 70922688 70993064 71059720 
3255.534 71122784 71182928 71240904 71297632 71353320 71407208 71458488 
3258.910 71506032 71549160 71587960 71623552 71657392 71690880 71725080 
3262.285 71759600 71793672 71825656 71853992 71877496 71895480 71908504 
3265.660 71917256 71923200 71927272 71930672 71933800 71936424 71937672 
3269.035 71935952 71929184 71915112 71891808 71858024 71813616 71759824 
3272.411 71697960 71630232 71558144 71483144 71405920 71327352 71247624 
3275.786 71167744 71088128 71009416 70932008 70855320 70778672 70701080 
3279.161 70621776 70540576 70457600 70373672 70289512 70205576 70121920 
3282.536 70038480 69954592 69870480 69786272 69702504 69619848 69538600 
3285.912 69459360 69382144 69307440 69236088 69169048 69108016 69053600 
3289.287 69005776 68963600 68924920 68887376 68848976 68808904 68767560 
3292.662 68726536 68687680 68652328 68620768 68592056 68564200 68535448 
3296.037 68504528 68471784 68438584 68407360 68380944 68361360 68350112 
3299.413 68347784 68354536 68370744 68396808 68433384 68481056 68539560 
3302.788 68607888 68683528 68763208 68843072 68919408 68989280 69050992 
3306.163 69103976 69148616 69186464 69219568 69250080 69280696 69313968 
3309.538 69351864 69396144 69447576 69506792 69573256 69646496 69725696 
3312.914 69809776 69897760 69988848 70082320 70177616 70274288 70372296 
3316.289 70471472 70571680 70672608 70773680 70874080 70972856 71069312 
3319.664 71163416 71255272 71345192 71433576 71520400 71605144 71687048 
3323.039 71764680 71837776 71905840 71968960 72027032 72080304 72128184 
3326.415 72170008 72204944 72232880 72254176 72269904 72281208 72289032 
3329.790 72293544 72294008 72289120 72277568 72258552 72232296 72199544 
3333.165 72161592 72119072 72072088 72019792 71961096 71894264 71818184 
3336.540 71731840 71635000 71527120 71408144 71277880 71136360 70984288 
3339.916 70822120 70651248 70472096 70285272 70090344 69886712 69673872 
3343.291 69451584 69220808 68982440 68738368 68490520 68240528 67990056 
3346.666 67740616 67493696 67250656 67012428 66779436 66550852 66325136 
3350.041 66100456 65875316 65649404 65423884 65201288 64984196 64775020 
3353.417 64575016 64383788 64200176 64023016 63851684 63686824 63530160 
3356.792 63383868 63249580 63128292 63019520 62921764 62833228 62752172 
3360.167 62677176 62607512 62542840 62482616 62427020 62375992 62329824 
3363.542 62289440 62255900 62230776 62215136 62209592 62214064 62228136 
3366.917 62250316 62278808 62311924 62347652 62384328 62420672 62455832 
3370.293 62489388 62521376 62552064 62581032 62607632 62630364 62646940 
3373.668 62655276 62653288 62639320 62612256 62571160 62514564 62440376 
3377.043 62345928 62228060 62084000 61911256 61708744 61476024 61213628 
3380.418 60922416 60603020 60256940 59884744 59487900 59068184 58627336 
3383.794 58167460 57691156 57200516 56698960 56188964 55674328 55158500 
3387.169 54645084 54136816 53635480 53141800 52654704 52172260 51692032 
3390.544 51211776 50729816 50246636 49763668 49284164 48811676 48349480 
3393.919 47899840 47463560 47040012 46627432 46224272 45829252 45441804 
3397.295 45062052 44689828 44324160 43962872 43602140 43237352 42864092 
3400.670 42479168 42081332 41672412 41255932 40836540 40419112 40007500 
3404.045 39603576 39208040 38819892 38437664 38059680 37684340 37310584 
3407.420 36937912 36565808 36194524 35824896 35458236 35096632 34741892 
3410.796 34395872 34059592 33732912 33414784 33103540 32797090 32494214 
3414.171 32194440 31898222 31606916 31321782 31044134 30774664 30513538 
3417.546 30259852 30012738 29770804 29532696 29297622 29064906 28834016 
3420.921 28605728 28380598 28159690 27943556 27732650 27526472 27324520 
3424.297 27125518 26928618 26733500 26540440 26349966 26163130 25980100 
3427.672 25800842 25624224 25449082 25274012 25098274 24921484 24744240 
3431.047 24567140 24391408 24217778 24047020 23879200 23714592 23552778 
3434.422 23393750 23236668 23081042 22926272 22772222 22619310 22468300 
3437.798 22319576 22173448 22029112 21884892 21738456 21588136 21433272 
3441.173 21274914 21115884 20960144 20811032 20670726 20538838 20412548 
3444.548 20287958 20160108 20026224 19885096 19738434 19589670 19443554 
3447.923 19304314 19174124 19053800 18941992 18836096 18732680 18628736 
3451.299 18521774 18410412 18294486 18174580 18052394 17929550 17807778 
3454.674 17688146 17571546 17457738 17346410 17237144 17129626 17023620 
3458.049 16919740 16817848 16718147 16620640 16524980 16430613 16337436 
3461.424 16245449 16154582 16065555 15979057 15895085 15813809 15734747 
3464.800 15656868 15579106 15500293 15419332 15335605 15248737 15159040 
3468.175 15067027 14973663 14880043 14787233 14696567 14608594 14524270 
3471.550 14443798 14366903 14293139 14221852 14151773 14082392 14013295 
3474.925 13944141 13875579 13808260 13742968 13680491 13621167 13564928 
3478.301 13511227 13459616 13408969 13358704 13308649 13258600 13208932 
3481.676 13160466 13113849 13069696 13028516 12990210 12954467 12920024 
3485.051 12886197 12852067 12817223 12781869 12747269 12714275 12684218 
3488.426 12657710 12635298 12616707 12601938 12591329 12585293 12584849 
3491.802 12590750 12603643 12623393 12649182 12679647 12713559 12750135 
3495.177 12788830 12829884 12873773 12920945 12972014 13026981 13086598 
3498.552 13151211 13221639 13298570 13382486 13472775 13568587 13668352 
3501.927 13770568 13874484 13980821 14091873 14210827 14341800 14487510 
3505.302 14650060 14828853 15021474 15224647 15433649 15644468 15854668 
3508.678 16063767 16273346 16486637 16707577 16939030 17182330 17436630 
3512.053 17699016 17966430 18235392 18503794 18770908 19036836 19302202 
3515.428 19567070 19831128 20092952 20351186 20604326 20851322 21090840 
3518.803 21321616 21541024 21745250 21929848 22089944 22221536 22321426 
3522.179 22388262 22421966 22423780 22395066 22338098 22254318 22144436 
3525.554 22008684 21847120 21658624 21443332 21201776 20935978 20649634 
3528.929 20347054 20032644 19710556 19383440 19052900 18719706 18384038 
3532.304 18045970 17705228 17361410 17013696 16661299 16303893 15942518 
3535.680 15579587 15219157 14866293 14525332 14199324 13888921 13592825 
3539.055 13308239 13031760 12761088 12494472 12231734 11972867 11718818 
3542.430 11469885 11226058 10987025 10751993 10519874 10290083 10062517 
3545.805 9837577 9616786 9403047 9198958 9007210 8829005 8663142 8506534 
3549.663 8354373 8201353 8043291 7878099 7706900 7533475 7363456 7202060 
3553.520 7053083 6918027 6795736 6683270 6577393 6474602 6372172 6268220 
3557.378 6161604 6052360 5941329 5830025 5720528 5615053 5515947 5424244 
3561.235 5340610 5264640 5195423 5131212 5069793 5008316 4942927 4869070 
3565.093 4781825 4677516 4555686 4419530 4277293 4139886 4017104 3916087 
3568.950 3837925 3778828 3731737 3688694 3643417 3591697 3532533 3467098 
3572.807 3398067 3328278 3259903 3193875 3130627 3069558 3010098 2951647 
3576.665 2893538 2835170 2776876 2718990 2662446 2608875 2559511 2515551 
3580.522 2477027 2443105 2412384 2383764 2356279 2329695 2304246 2279596 
3584.380 2254316 2225607 2189207 2141089 2078494 2001827 1915189 1826139 
3588.237 1743928 1675502 1624714 1590958 1570640 1558136 1547329 1533197 
3592.094 1511784 1481362 1441733 1394528 1342876 1290265 1240685 1197024 
3595.952 1160843 1131874 1108654 1088457 1068062 1044945 1017511 985562 
3599.809 950727 915795 884087 858290 840462 830967 828942 832262 837972 
3604.149 843616 845807 841690 828810 805140 769523 722525 666671 606577 
3608.489 548051 497129 457789 430889 413809 401803 389002 370629 344233 
3612.828 310577 273375 237602 207965 187247 175215 169314 164839 157116 
3617.168 141107 113333 72337 19814 -40222 -101212 -155768 -197665 -223663 
3621.507 -233267 -229293 -215947 -198394 -179185 -160471 -141525 -121286 
3625.365 -99225 -78023 -63513 -65600 -95150 -159577 -258203 -377928 -496825 
3629.704 -591205 -647287 -664359 -652151 -624888 -596764 -578102 -574197 
3633.562 -584786 -606095 -632399 -658503 -681132 -699757 -714709 -726981 
3637.419 -737070 -744942 -750665 -755064 -759662 -766541 -777754 -793828 
3641.277 -813076 -832919 -849719 -859705 -860730 -853025 -838111 -818831 
3645.134 -799252 -782814 -773355 -774116 -787709 -816284 -860929 -920878 
3648.991 -992984 -1071226 -1147141 -1210751 -1253439 -1270553 -1261666 
3652.367 -1231963 -1189009 -1143737 -1106359 -1085438 -1086331 -1109103 
3655.742 -1148033 -1192115 -1230113 -1253802 -1260476 -1253505 -1239001 
3659.117 -1224034 -1213031 -1208240 -1209165 -1214055 -1220994 -1228461 
3662.492 -1236358 -1244717 -1253043 -1260674 -1265134 -1264441 -1257271 
3665.868 -1244056 -1227272 -1211478 -1203383 -1209000 -1234078 -1280794 
3669.243 -1345706 -1418831 -1484449 -1527572 -1537445 -1512351 -1459650 
3672.618 -1393368 -1331304 -1290606 -1286807 -1327109 -1405918 -1503799 
3675.993 -1593834 -1654903 -1678833 -1671440 -1645925 -1616777 -1593603 
3679.369 -1580728 -1576502 -1576238 -1574488 -1567555 -1554877 -1537808 
3682.744 -1518492 -1498219 -1476920 -1453640 -1428046 -1401691 -1378373 
3686.119 -1363509 -1363047 -1380784 -1417114 -1467476 -1523874 -1578021 
3689.494 -1623445 -1658237 -1683190 -1701112 -1713686 -1721409 -1724214 
3692.870 -1721871 -1715171 -1705831 -1696062 -1687679 -1681903 -1678107 
3696.245 -1675070 -1671044 -1665300 -1657775 -1650150 -1644208 -1642096 
3699.620 -1645463 -1654639 -1669030 -1686557 -1704247 -1718670 -1727053 
3702.995 -1727350 -1719000 -1703323 -1682893 -1660877 -1640181 -1622917 
3706.371 -1610010 -1600832 -1593966 -1587627 -1581190 -1575445 -1572276 
3709.746 -1574389 -1584062 -1602318 -1627439 -1655365 -1680946 -1699594 
3713.121 -1708274 -1706524 -1696260 -1681210 -1664640 -1650810 -1642558 
3716.496 -1641435 -1647509 -1658798 -1672727 -1685731 -1695468 -1700683 
3719.872 -1702498 -1702498 -1702993 -1705270 -1709297 -1713719 -1716261 
3723.247 -1715369 -1711310 -1706095 -1702993 -1705270 -1714445 -1729462 
3726.622 -1746062 -1758767 -1762463 -1754774 -1736359 -1711508 -1686557 
3729.997 -1667578 -1659161 -1662528 -1674938 -1690946 -1703950 -1709495 
3733.373 -1708373 -1705633 -1708175 -1722399 -1750154 -1787377 -1825323 
3736.748 -1853500 -1865278 -1858680 -1836805 -1804634 -1767215 -1727185 
3740.123 -1685896 -1642987 -1600271 -1562008 -1536883 -1536718 -1572672 
3743.498 -1649523 -1757909 -1873889 -1965068 -2007846 -1997424 -1945112 
3746.874 -1870260 -1792459 -1728934 -1690121 -1680054 -1696359 -1732102 
3750.249 -1778071 -1826610 -1872437 -1911597 -1939537 -1951544 -1943759 
3753.624 -1914796 -1867984 -1809650 -1748339 -1691672 -1645760 -1613674 
3756.999 -1595220 -1588552 -1591292 -1601724 -1619088 -1642162 -1668502 
3760.375 -1693356 -1710650 -1716360 -1709033 -1691606 -1670416 -1653286 
3763.750 -1646057 -1651239 -1666225 -1684840 -1698933 -1702531 -1694709 
3767.125 -1678701 -1661241 -1649325 -1648136 -1659326 -1680682 -1706656 
3770.500 -1731178 -1749263 -1758239 -1758272 -1750847 -1738735 -1724214 
3773.875 -1709462 -1695930 -1684015 -1673651 -1664343 -1655959 -1649226 
3777.251 -1645694 -1647212 -1655266 -1669591 -1687679 -1705006 -1716822 
3780.626 -1719825 -1713851 -1701607 -1687910 -1677414 -1673552 -1676721 
3784.001 -1684741 -1694511 -1702861 -1708274 -1711871 -1715865 -1722399 
3787.376 -1732102 -1743586 -1753949 -1760549 -1761209 -1756391 -1747316 
3790.752 -1736689 -1725963 -1715601 -1704973 -1693158 -1680219 -1667743 
3794.127 -1658798 -1656949 -1663848 -1679031 -1698042 -1714148 -1720914 
3797.502 -1714511 -1695831 -1669987 -1645859 -1634504 -1645000 -1682959 
3800.877 -1745863 -1822518 -1894145 -1942209 -1955667 -1933830 -1884644 
3804.253 -1822122 -1762463 -1720089 -1705105 -1720815 -1760285 -1810112 
3807.628 -1852939 -1876594 -1877023 -1857261 -1824960 -1787740 -1750814 
3811.003 -1715733 -1681606 -1646222 -1609151 -1572573 -1542034 -1524436 
3814.378 -1526252 -1549661 -1590764 -1638068 -1677414 -1697448 -1693521 
3817.754 -1670317 -1637672 -1608887 -1596244 -1608524 -1648664 -1710749 
3821.129 -1781140 -1841259 -1876594 -1880421 -1855776 -1812059 -1761374 
3824.504 -1714907 -1680582 -1662165 -1658237 -1663848 -1671341 -1673552 
3827.879 -1667116 -1651800 -1630806 -1608788 -1590368 -1578549 -1574125 
3831.255 -1575577 -1579836 -1583138 -1582312 -1574851 -1560226 -1539492 
3834.630 -1515356 -1492341 -1476293 -1472429 -1485110 -1515554 -1560193 
3838.005 -1612089 -1661901 -1702234 -1728472 -1740550 -1741738 -1736326 
3841.380 -1728472 -1721046 -1715006 -1710188 -1705435 -1699825 -1692597 
3844.756 -1683652 -1673453 -1662099 -1650414 -1638300 -1625492 -1611033 
3848.131 -1593207 -1569734 -1538930 -1500332 -1456083 -1411962 -1377382 
3851.506 -1363807 -1383360 -1442246 -1537345 -1651008 -1758866 -1839016 
3854.881 -1881444 -1888966 -1871876 -1841490 -1806746 -1773188 -1742728 
3858.257 -1715601 -1691045 -1668502 -1647707 -1628496 -1610901 -1594758 
3861.632 -1580398 -1568909 -1562306 -1563296 -1573927 -1593471 -1617701 
3865.007 -1639422 -1650612 -1645826 -1624469 -1591919 -1557882 -1532954 
3868.382 -1526747 -1543685 -1580662 -1627043 -1668403 -1693323 -1697481 
3871.758 -1684246 -1661802 -1639686 -1624865 -1620342 -1624105 -1630608 
3875.133 -1633117 -1626119 -1607600 -1579440 -1546161 -1514233 -1490195 
3878.508 -1480156 -1487223 -1510601 -1544906 -1581025 -1608623 -1619451 
3881.883 -1610439 -1584062 -1548307 -1513044 -1489204 -1484647 -1502313 
3885.259 -1537742 -1580728 -1618065 -1637936 -1634834 -1610373 -1571319 
3888.634 -1526912 -1486463 -1459022 -1449611 -1460013 -1486628 -1522752 
3892.009 -1559763 -1589377 -1606577 -1609449 -1599149 -1578351 -1551014 
3895.384 -1521101 -1491582 -1465561 -1445152 -1432042 -1427319 -1430952 
3898.760 -1442510 -1459947 -1480850 -1502247 -1521695 -1537808 -1550816 
3902.135 -1561876 -1572771 -1584788 -1597993 -1611363 -1622851 -1629915 
3905.510 -1630971 -1625294 -1613278 -1596145 -1575412 -1552929 -1530115 
3908.885 -1508587 -1489832 -1474245 -1462060 -1452517 -1443897 -1434287 
3912.260 -1421771 -1405753 -1387026 -1367770 -1351222 -1340949 -1339331 
3915.636 -1347126 -1362684 -1383162 -1404729 -1424149 -1439571 -1450568 
3919.011 -1457371 -1460706 -1460475 -1456281 -1447563 -1434386 -1417940 
3922.386 -1400568 -1385012 -1374277 -1369653 -1371139 -1376853 -1384054 
3925.761 -1389470 -1391683 -1389570 -1384186 -1376358 -1367770 -1359381 
3929.137 -1351784 -1345640 -1341676 -1340223 -1342403 -1348051 -1357102 
3932.512 -1367935 -1378406 -1386465 -1390527 -1390131 -1385738 -1378472 
3935.887 -1369686 -1360305 -1351057 -1341610 -1332163 -1322616 -1313631 
3939.262 -1306297 -1302036 -1302234 -1307850 -1318751 -1334079 -1351982 
3942.638 -1369884 -1385210 -1395481 -1399214 -1395911 -1386630 -1373253 
3946.013 -1358126 -1343988 -1332889 -1325721 -1321989 -1320403 -1319280 
3949.388 -1316802 -1312442 -1306463 -1299690 -1293414 -1287930 -1283305 
3952.763 -1278581 -1273030 -1265729 -1256809 -1246435 -1235697 -1224959 
3956.139 -1214518 -1204473 -1194428 -1184779 -1176155 -1169876 -1166869 
3959.514 -1167960 -1172652 -1179724 -1187357 -1193569 -1196906 -1197237 
3962.889 -1194891 -1190892 -1186134 -1180616 -1174106 -1166010 -1155303 
3966.264 -1141986 -1126387 -1109466 -1092346 -1076151 -1061013 -1047362 
3969.640 -1034669 -1022934 -1011893 -1001910 -993414 -986637 -981711 -978306 
3973.497 -975826 -973777 -971595 -968818 -965313 -960850 -955329 -948816 
3977.354 -941344 -933442 -925110 -917142 -909967 -904081 -900014 -897997 
3981.212 -897898 -899749 -902990 -907487 -912182 -917142 -921737 -926201 
3985.069 -930235 -934500 -939327 -944584 -950436 -956519 -962305 -966966 
3988.927 -969578 -969578 -965975 -958635 -947361 -933177 -917042 -901039 
3992.784 -886887 -876272 -870386 -869725 -873858 -881728 -891748 -902494 
3996.642 -912612 -920547 -926003 -928482 -928119 -925937 -923060 -921076 
4000.499 -921539 
##END=
