
##TITLE=mdmaHCL00399_1
##JCAMP-DX=5.01  $$ Nicolet v. 1
##DATATYPE=INFRARED SPECTRUM
##ORIGIN=UniL
##OWNER=Nicolet
##LONGDATE=2011/08/24
##TIME=10:26:17
##SPECTROMETER/DATA SYSTEM=Nicolet iS5
##DATA PROCESSING=
Ratio against background
%Transmittance->Absorbance
Truncated
ElementMultiply or ElementDivide
##COMMENTS=
Number of sample scans: 32
Collection length: 51.19 sec
Sample gain: 2.0
Background collected on: Mer Aout 24 10:24:54 2011 (GMT+02:00);
Number of background scans: 32
Background gain: 2.0
Sample spacing:  1.000
Number of scan points: 12415
Resolution points: 8192
Number of FFT points: 65536
Apodization: N-B fort;
Phase correction: Mertz;
Laser frequency: 15798.0 cm-1
Number of rejected sample scans: 0
Number of rejected background scans: 0
Bench serial number: ASB1000141;
##RESOLUTION=4.000
##XUNITS=1/CM
##YUNITS=ABSORBANCE
##FIRSTX=649.893372
##LASTX=4000.122314
##FIRSTY=0.130184
##MAXX=4000.122314
##MINX=649.893372
##MAXY=0.320770
##MINY=-0.001676
##XFACTOR=1.000000
##YFACTOR=1.000000E-009
##NPOINTS=6950
##DELTAX=0.482117
##ZPD=6100
##XYDATA=(X++(Y..Y))
649.893 130183640 129064856 128125176 127355216 126724616 126198248 
652.786 125749424 125366288 125050216 124809400 124652200 124583592 
655.679 124602800 124706816 124890368 125145104 125462088 125826400 
658.571 126219600 126624688 127028064 127426488 127829536 128256064 
661.464 128727552 129261512 129866632 130539400 131268040 132034632 
664.357 132821128 133609400 134376208 135091776 135719408 136220592 
667.250 136577472 136816096 137011024 137245696 137576992 138010176 
670.142 138507776 139013600 139474336 139856496 140149040 140362864 
673.035 140517792 140629664 140697920 140704848 140625216 140442464 
675.928 140158464 139796416 139389696 138965968 138537760 138098560 
678.820 137630448 137116592 136552064 135944992 135311616 134664624 
681.713 134007456 133333072 132632968 131904288 131156920 130411160 
684.606 129690528 129011752 128378464 127783016 127214016 126665624 
687.498 126142160 125657008 125226304 124860104 124558344 124312032 
690.391 124110904 123950744 123839200 123794208 123836200 123982392 
693.284 124239680 124605760 125074072 125641656 126312656 127100024 
696.177 128018064 129073512 130258144 131544304 132889824 134241280 
699.069 135549696 136778544 137907152 138933840 139871312 140743008 
701.962 141577472 142405264 143254464 144143840 145079408 146051264 
704.855 147037616 148008832 148936912 149806432 150615104 151373184 
707.747 152095312 152793424 153470432 154122960 154745840 155341008 
710.640 155920944 156509568 157132912 157811584 158553824 159352240 
713.533 160188496 161035872 161868256 162660512 163388848 164033216 
716.425 164578304 165020048 165371216 165667728 165964160 166319776 
719.318 166789552 167405920 168171792 169063072 170036016 171040272 
722.211 172021248 172928176 173712352 174325360 174730016 174908560 
725.104 174876832 174687696 174425712 174191344 174067264 174107184 
727.996 174325760 174707328 175223424 175852528 176592304 177456624 
730.889 178464672 179626848 180939088 182386384 183956848 185654208 
733.782 187505664 189553600 191844144 194406272 197244096 200338304 
736.674 203658720 207176448 210867776 214712368 218678880 222717904 
739.567 226775712 230814656 234850544 238961072 243273728 247890480 
742.460 252792032 257735792 262209568 265512560 266821328 265470928 
745.352 261159808 254045520 244723648 234048512 222981264 212326720 
748.245 202672176 194370352 187530144 182100928 177929728 174830752 
751.138 172611184 171099088 170168560 169734448 169765744 170282576 
754.031 171342160 173007072 175302896 178176416 181466224 184913600 
756.923 188163200 190847424 192653520 193361872 192905392 191364096 
759.816 188949504 185941008 182647280 179364624 176316672 173662128 
762.709 171486912 169808848 168598832 167792816 167314048 167078416 
765.601 167010432 167053360 167166896 167330608 167538304 167791776 
768.494 168094656 168449184 168859392 169336384 169907312 170622208 
771.387 171544944 172738688 174237072 176012800 177952080 179844176 
774.279 181427120 182412864 182563216 181762656 180037072 177554256 
777.172 174555744 171310992 168033744 164836896 161735136 158659040 
780.065 155503136 152159952 148565472 144712208 140647168 136453744 
782.958 132231728 128082408 124085912 120303112 116776368 113529584 
785.850 110577840 107928168 105580400 103528136 101759568 100260784 99018848 
789.225 98025912 97279656 96782256 96538040 96550120 96820272 97350008 
792.600 98140824 99193304 100502480 102048736 103785792 105638920 107498848 
795.975 109221920 110655632 111639296 112021952 111690632 110571856 
798.867 108649000 105965536 102625176 98783216 94619704 90341176 86147520 
802.242 82205336 78650512 75562768 72969768 70858320 69187168 67904664 
805.617 66955948 66293636 65876284 65664092 65620264 65707064 65884760 
808.992 66115728 66360028 66575648 66722056 66758028 66647956 66369140 
812.367 65914148 65294668 64537876 63683792 62775640 61851152 60942392 
815.742 60072248 59255908 58505884 57831080 57237336 56725840 56292528 
819.116 55928836 55624728 55373748 55173964 55029816 54948772 54938396 
822.491 55004620 55150600 55378864 55693616 56100504 56604920 57206040 
825.866 57891532 58630296 59374340 60063460 60627324 61001608 61136684 
829.241 61002636 60597568 59946020 59097608 58115336 57071720 56039580 
832.616 55076984 54228256 53516544 52944952 52502044 52168260 51923900 
835.990 51752124 51640900 51581608 51565564 51583024 51622952 51674304 
839.365 51729504 51784676 51839592 51895896 51954224 52013940 52073668 
842.740 52132544 52193108 52261644 52346744 52457736 52600952 52779576 
846.115 52993388 53241644 53524300 53843712 54203708 54608036 55057648 
849.490 55551252 56084592 56653164 57253704 57884792 58545620 59234792 
852.865 59948568 60681424 61426860 62179960 62938920 63706168 64486332 
856.239 65284228 66103504 66945388 67809800 68697112 69610440 70555544 
859.614 71542048 72581512 73684048 74858392 76109344 77435032 78824768 
862.989 80256584 81695496 83090488 84382880 85511344 86420048 87074680 
866.364 87468024 87627720 87611632 87507408 87423120 87465712 87743488 
869.739 88351960 89363376 90831160 92779680 95200808 98043600 101209240 
873.113 104553352 107868064 110908312 113413064 115114376 115800392 
876.006 115341232 113709848 110990832 107364584 103086088 98424144 93648232 
879.381 88996944 84641256 80701560 77243008 74284600 71818696 69819112 
882.756 68250840 67069344 66224360 65662624 65326048 65161020 65123328 
886.131 65179036 65309680 65510796 65788640 66158296 66638684 67251232 
889.505 68014000 68941000 70039496 71309192 72744256 74336032 76078992 
892.880 77973304 80028848 82261912 84693360 87337632 90192288 93223024 
896.255 96351024 99450032 102328872 104757880 106494016 107299896 107008640 
899.630 105550480 102973976 99438112 95193296 90549520 85803656 81228368 
903.005 77037184 73358856 70259128 67746240 65790952 64343132 63344532 
906.379 62739880 62474964 62504424 62794096 63320032 64071940 65050348 
909.754 66262760 67717848 69419112 71358040 73509720 75825656 78226792 
913.129 80610800 82847224 84789576 86306048 87288728 87681736 87494488 
916.504 86803608 85744720 84478944 83186592 82030520 81132896 80578248 
919.879 80400344 80588696 81092160 81830848 82708272 83618152 84471336 
923.254 85207376 85806000 86293240 86737856 87241856 87914408 88863000 
926.628 90175000 91898568 94037416 96535432 99276832 102066256 104640272 
930.003 106705096 107939216 108068040 106920352 104452952 100782832 96160712 
933.378 90951168 85541928 80292576 75506936 71377880 68005984 65412484 
936.753 63561304 62385480 61805192 61747092 62139088 62908320 63978016 
940.128 65248916 66598788 67895408 68993856 69766856 70129512 70045920 
943.502 69543464 68700720 67638856 66487632 65363640 64360388 63531084 
946.877 62896600 62453308 62184012 62066264 62076124 62191852 62390492 
950.252 62648088 62942488 63252576 63562460 63862584 64149284 64423604 
953.627 64689672 64954028 65224616 65511108 65825456 66180632 66587620 
957.002 67055040 67587096 68183344 68841128 69557152 70329600 71159352 
960.377 72049136 73002896 74024888 75118288 76286928 77535320 78869464 
963.751 80297400 81828896 83473480 85240192 87135792 89164424 91326608 
967.126 93618472 96031360 98548808 101147544 103796144 106452440 109068984 
970.501 111592816 113967240 116141672 118071664 119722768 121074880 
973.394 122120640 122866320 123329728 123541016 123540696 123374184 
976.286 123093560 122751136 122394616 122071440 121825776 121698768 
979.179 121735208 121979368 122475256 123268768 124400976 125909464 
982.072 127827896 130181136 132983832 136233040 139902256 143927232 
984.964 148192432 152538896 156743328 160536064 163643872 165793072 
987.857 166766256 166442048 164803664 161955184 158097632 153523216 
990.750 148559120 143525136 138725792 134393632 130690472 127714056 
993.643 125496328 124025816 123260760 123147104 123625656 124639264 
996.535 126141264 128090768 130453528 133202480 136310368 139747824 
999.428 143479504 147451584 151586192 155779568 159886128 163734288 
1002.321 167142304 169924912 171934992 173083424 173354320 172813952 
1005.213 171604896 169939072 168051408 166190000 164588720 163427456 
1008.106 162841872 162914720 163681440 165146080 167293552 170103616 
1010.999 173556096 177637344 182343024 187674640 193639904 200251008 
1013.891 207518672 215444608 224006688 233127872 242658800 252350480 
1016.784 261822912 270619040 278223872 284136864 287998880 289645568 
1019.677 289173440 286912608 283408768 279329920 275316704 271971616 
1022.570 269750592 268919968 269588576 271707424 275119328 279578656 
1025.462 284805312 290514368 296401952 302181312 307575360 312306208 
1028.355 316137024 318881312 320428800 320769632 319993184 318278176 
1031.249 315846176 312949600 309835552 306704000 303710816 300938336 
1034.142 298385888 295966080 293512160 290813088 287623360 283722976 
1037.035 278956768 273241824 266588128 259081520 250867600 242120736 
1039.928 233029280 223789024 214574640 205544352 196834944 188545712 
1042.821 180754784 173523360 166895952 160917312 155629904 151067104 
1045.714 147255232 144204512 141907136 140340368 139469488 139255120 
1048.607 139652992 140619776 142113328 144088416 146500768 149305952 
1051.500 152457840 155915568 159640848 163594320 167735616 172010864 
1054.393 176342832 180633328 184750320 188535280 191827232 194460864 
1057.286 196294688 197234736 197238512 196334608 194620048 192268752 
1060.179 189508288 186591696 183795728 181369312 179520480 178418288 
1063.072 178170368 178833472 180415088 182878128 186140912 190076640 
1065.965 194532288 199318544 204223248 209043728 213577664 217646816 
1068.858 221112384 223859504 225803472 226885280 227065008 226326576 
1071.751 224679152 222160928 218838128 214803072 210181968 205125344 
1074.645 199811312 194452576 189265744 184470368 180276576 176848672 
1077.538 174315760 172761680 172219616 172677744 174072400 176292416 
1080.431 179159888 182434208 185838560 189046432 191740464 193665104 
1083.324 194646480 194646128 193761888 192225840 190351936 188492160 
1086.217 187012480 186214608 186325424 187477184 189687632 192866256 
1089.110 196814016 201264912 205882352 210297040 214171216 217194448 
1092.003 219132096 219849328 219301712 217538896 214682016 210914768 
1094.896 206448400 201488944 196234048 190838592 185413488 180037616 
1097.789 174757472 169601984 164592096 159742080 155062208 150559936 
1100.682 146240288 142111168 138187360 134492480 131061840 127939048 
1103.575 125167816 122793248 120854680 119382904 118404064 117936960 
1106.468 117993872 118581528 119699944 121343288 123498168 126145128 
1109.361 129257040 132794168 136706048 140924208 145353808 149881312 
1112.254 154363344 158628544 162503824 165809248 168383744 170109728 
1115.147 170912416 170773248 169725520 167852496 165274640 162129856 
1118.041 158571440 154741616 150756432 146710480 142666496 138665136 
1120.934 134737232 130908984 127209040 123671736 120331872 117225256 
1123.827 114387528 111850496 109646632 107809488 106369424 105357360 
1126.720 104799888 104716008 105117680 106006216 107371544 109188896 
1129.613 111417840 114003256 116865864 119909504 123023096 126077040 
1132.506 128946200 131520760 133719968 135514192 136929296 138050112 
1135.399 138997296 139916896 140954144 142216928 143768208 145605408 
1138.292 147664224 149817120 151893008 153709824 155077600 155835536 
1141.185 155871600 155119856 153569696 151256240 148254992 144668064 
1144.078 140615472 136236128 131665840 127035696 122468232 118060008 
1146.971 113888504 110011448 106464000 103266056 100422680 97926640 95760912 
1150.346 93902560 92328056 91014088 89941024 89094080 88460440 88029232 
1153.722 87790696 87735296 87855432 88145344 88601904 89224072 90012440 
1157.097 90968288 92093696 93391424 94865448 96520328 98360680 100389616 
1160.472 102606000 105002088 107560944 110256496 113048656 115883976 
1163.365 118700040 121418088 123951848 126214104 128113016 129566056 
1166.258 130506832 130886152 130683344 129906040 128590792 126794664 
1169.151 124590128 122059984 119283560 116339952 113304880 110243296 
1172.044 107214336 104267984 101441040 98762968 96255120 93932304 91806624 
1175.420 89885968 88174208 86670656 85369920 84264104 83343680 82600456 
1178.795 82028632 81623752 81382072 81298608 81365368 81572064 81905704 
1182.170 82351136 82893416 83516616 84204896 84944192 85722072 86529424 
1185.545 87362016 88219920 89106120 90023320 90970944 91940984 92916888 
1188.921 93871504 94771056 95578944 96257968 96778736 97123120 97286616 
1192.296 97280648 97131320 96879152 96570600 96256480 95985560 95795200 
1195.671 95711928 95748360 95904064 96167784 96518464 96928240 97357760 
1199.046 97757456 98070840 98230176 98169144 97831832 97177736 96195152 
1202.422 94902632 93350512 91610056 89766896 87914408 86135320 84502608 
1205.797 83073520 81882176 80944104 80256224 79801424 79552752 79479184 
1209.172 79550608 79736888 80010328 80345992 80719440 81109336 81499824 
1212.547 81880304 82248776 82611032 82979768 83371624 83803976 84294000 
1215.923 84855312 85497912 86227848 87046224 87949096 88927128 89967152 
1219.298 91052296 92164688 93289264 94413464 95530224 96638104 97740440 
1222.673 98844456 99959960 101099072 102274280 103496896 104776224 106115984 
1226.048 107512592 108953016 110416000 111873080 113290552 114637080 
1228.941 115884280 117010472 118002608 118855456 119571848 120161552 
1231.834 120644920 121052720 121424128 121809856 122264808 122839544 
1234.728 123580952 124522328 125682008 127064600 128659416 130443376 
1237.621 132377640 134412064 136483104 138511680 140415776 142108912 
1240.514 143507200 144542336 145158224 145314256 144986816 144165152 
1243.407 142854160 141074784 138867056 136289280 133410544 130313592 
1246.300 127084000 123805352 120566752 117453296 114543464 111909400 
1249.193 109599848 107635440 106001656 104650440 103503832 102462672 
1252.086 101430792 100321736 99074872 97666424 96107672 94443824 92738816 
1255.461 91070800 89514536 88125376 86938136 85956856 85159000 84496736 
1258.836 83906904 83320592 82665056 81878784 80915240 79745960 78366584 
1262.212 76795224 75072328 73250664 71391904 69558400 67799992 66155664 
1265.587 64650416 63296228 62097112 61051868 60155888 59401348 58777500 
1268.962 58272332 57872376 57566184 57345276 57203580 57137172 57142200 
1272.337 57213748 57345952 57533460 57772828 58063560 58408616 58812512 
1275.713 59279532 59812448 60411856 61077264 61807904 62602960 63461512 
1279.088 64380100 65350816 66361068 67391096 68417016 69413016 70350832 
1282.463 71203664 71947016 72557976 73017984 73313232 73435560 73384160 
1285.838 73165408 72792952 72284496 71660952 70944848 70157048 69320536 
1289.214 68461072 67606304 66788784 66042320 65395496 64869456 64470844 
1292.589 64189576 63996904 63848080 63690284 63463280 63115188 62609276 
1295.964 61930092 61088820 60121564 59085384 58043296 57057208 56178364 
1299.339 55437476 54847296 54404472 54095236 53899000 53792740 53753252 
1302.715 53755616 53775116 53789780 53780216 53733492 53643128 53508748 
1306.090 53333832 53123640 52884504 52623544 52349248 52073444 51810208 
1309.465 51574224 51379760 51236640 51150936 51125852 51163500 51267512 
1312.840 51443500 51698040 52036800 52462896 52976092 53573928 54254500 
1316.216 55018304 55868992 56812688 57855532 59001832 60252068 61603344 
1319.591 63048712 64578244 66177852 67825600 69491008 71130976 72687848 
1322.966 74099384 75299952 76233728 76868512 77202440 77270400 77135152 
1326.341 76885792 76618112 76415784 76346056 76443992 76711768 77121504 
1329.717 77625440 78169384 78701944 79189744 79621128 80008448 80382160 
1333.092 80784560 81263720 81861008 82609672 83530552 84629176 85895952 
1336.467 87305456 88821128 90392248 91959408 93462136 94837304 96030000 
1339.842 97000808 97726744 98204712 98446424 98473392 98309112 97975712 
1343.218 97493976 96881888 96156328 95333584 94426360 93444312 92394824 
1346.593 91285352 90129120 88950176 87782664 86674784 85683808 84867192 
1349.968 84285352 83994176 84040696 84466712 85302128 86562792 88248376 
1353.343 90341176 92804208 95576880 98579816 101711776 104846328 107850384 
1356.719 110581768 112898576 114681736 115832968 116288800 116028472 
1359.612 115074384 113492792 111379512 108866368 106108960 103270176 
1362.505 100525528 98031016 95899568 94191240 92900680 91970336 91303424 
1365.880 90790936 90327056 89817632 89198432 88435832 87527152 86496184 
1369.255 85384352 84242544 83118336 82056056 81093760 80260568 79583208 
1372.630 79086776 78793816 78725256 78893816 79297584 79916440 80713616 
1376.006 81643112 82655080 83707416 84769152 85821304 86859168 87888976 
1379.381 88925624 89985944 91083560 92221104 93385720 94542872 95634984 
1382.756 96591792 97329736 97766336 97834360 97483696 96696808 95497944 
1386.131 93970480 92253392 90517480 88941560 87656680 86725032 86144248 
1389.507 85865552 85820128 85934280 86144128 86392272 86623736 86789160 
1392.882 86841848 86745344 86484784 86072816 85549112 84963048 84359496 
1396.257 83762176 83172096 82577608 81968688 81349664 80746376 80199664 
1399.632 79751536 79431520 79245496 79178688 79202704 79286936 79403752 
1403.008 79532424 79660936 79785816 79911064 80046216 80203656 80395512 
1406.383 80629264 80907656 81228608 81588656 81985296 82420672 82902448 
1409.758 83442168 84051264 84736288 85495816 86319712 87192608 88096192 
1413.133 89015376 89940088 90864856 91788768 92712192 93634920 94556184 
1416.509 95474704 96391648 97314152 98259088 99253560 100324528 101495536 
1419.884 102773512 104145584 105589904 107081272 108600496 110133504 
1422.777 111675160 113227256 114795528 116386952 118006176 119652712 
1425.670 121318008 122984520 124623632 126200360 127669912 128981648 
1428.563 130089744 130955128 131552968 131875512 131932888 131753560 
1431.456 131381560 130878584 130312520 129742608 129213584 128742736 
1434.349 128323704 127938152 127575576 127254920 127037648 127008256 
1437.242 127237904 127748248 128497600 129398064 130334344 131194216 
1440.135 131866816 132256584 132299032 131956992 131226632 130130736 
1443.028 128713680 127032904 125149656 123130168 121032400 118899320 
1445.921 116764496 114656320 112614680 110707400 109026776 107673224 
1448.814 106731832 106244528 106212152 106605392 107385168 108510640 
1451.708 109938760 111623320 113498992 115480440 117475272 119369600 
1454.601 121036256 122343192 123152960 123373304 123008272 122200048 
1457.494 121172224 120124944 119167360 118309464 117515528 116749056 
1460.387 115996360 115265096 114572288 113926400 113323640 112749880 
1463.280 112193224 111659264 111179544 110799768 110560952 110472064 
1466.173 110504072 110595232 110673800 110677432 110554456 110267856 
1469.066 109785312 109068088 108068800 106739416 105056776 103056472 
1471.959 100858856 98664440 96681696 95060064 93847040 93004680 92456888 
1475.334 92132776 91992616 92022720 92224136 92594568 93120400 93777536 
1478.709 94541976 95395864 96333824 97360536 98483832 99708232 101030624 
1482.085 102440480 103924376 105469112 107061512 108687808 110327824 
1484.978 111949320 113511984 114962288 116235232 117259016 117945920 
1487.871 118192216 117888840 116931312 115258568 112892392 109955360 
1490.764 106653336 103209200 99812744 96565928 93482312 90517320 87597448 
1494.139 84654904 81657304 78618664 75600896 72697760 69999784 67567432 
1497.514 65420032 63549876 61936664 60562140 59413356 58477036 57736760 
1500.890 57172776 56765904 56500604 56365596 56347072 56420340 56542604 
1504.265 56639420 56609448 56337452 55723560 54740164 53464116 52049388 
1507.640 50641380 49315048 48071580 46878280 45705544 44546436 43414468 
1511.015 42340016 41355160 40479960 39722540 39079212 38541284 38100048 
1514.391 37746536 37469156 37249860 37068164 36908364 36769072 36666452 
1517.766 36626364 36670672 36802720 37003968 37236464 37460416 37650804 
1521.141 37815972 37994260 38233652 38559280 38958608 39391356 39809976 
1524.516 40182616 40501232 40787108 41078416 41415404 41819672 42289540 
1527.892 42808656 43361600 43945420 44570744 45254620 46010116 46838120 
1531.267 47729756 48673076 49664616 50718120 51864048 53134648 54539696 
1534.642 56062688 57666484 59315348 60982504 62659032 64356276 66091120 
1538.017 67881880 69734760 71631256 73524248 75349536 77060800 78642296 
1541.393 80111720 81508656 82866552 84205176 85526840 86821488 88071360 
1544.768 89259680 90377032 91418368 92376256 93233080 93949208 94464168 
1548.143 94711840 94631200 94197488 93435432 92412824 91203224 89845624 
1551.518 88325520 86583416 84551072 82198888 79572376 76799784 74061152 
1554.894 71505368 69207056 67141576 65201984 63227088 61038864 58508084 
1558.269 55626644 52586668 49730896 47371056 45624168 44421556 43609580 
1561.644 43038460 42595124 42199008 41800844 41378268 40935448 40498544 
1565.019 40103316 39780384 39538132 39360160 39209852 39045532 38830400 
1568.395 38544216 38190344 37794248 37393852 37023380 36704312 36443056 
1571.770 36235256 36070080 35932100 35800784 35647892 35440944 35152888 
1575.145 34775132 34333184 33885312 33504970 33243020 33112586 33093564 
1578.520 33153568 33263874 33409276 33588336 33808196 34077900 34402076 
1581.896 34779584 35205060 35673072 36178752 36717148 37280076 37852740 
1585.271 38415876 38951288 39447596 39906836 40344608 40788928 41271856 
1588.646 41824448 42474896 43244636 44150888 45205352 46410388 47752576 
1592.021 49196316 50687772 52154736 53519768 54719116 55704160 56451244 
1595.396 56959356 57245464 57338772 57273212 57086872 56814880 56486676 
1598.772 56124972 55740100 55330728 54884776 54385880 53820568 53186476 
1602.147 52495648 51775716 51064392 50398768 49811788 49326256 48955072 
1605.522 48705172 48580164 48578980 48692456 48898664 49164592 49447988 
1608.897 49710944 49931688 50108844 50262148 50422472 50623060 50886212 
1612.273 51220948 51624148 52087416 52601628 53159476 53756516 54386636 
1615.648 55042828 55720588 56424564 57173116 57987896 58888856 59879116 
1619.023 60943996 62053228 63171244 64269060 65326512 66342040 67330856 
1622.398 68317576 69322168 70351336 71397480 72445176 73483464 74511744 
1625.774 75537920 76572656 77622384 78687648 79766464 80863584 81994376 
1629.149 83188072 84477256 85884536 87415336 89054624 90776800 92551512 
1632.524 94361504 96211696 98127368 100152368 102333152 104705168 107268760 
1635.899 109995184 112850152 115805712 118858592 122019568 125295760 
1638.792 128679648 132144632 135659440 139186256 142695792 146173760 
1641.686 149605680 152969392 156228592 159319856 162170896 164717872 
1644.579 166916256 168759584 170278896 171538992 172609648 173557456 
1647.472 174447344 175334880 176273920 177306320 178449024 179681472 
1650.365 180931456 182086608 182983600 183461712 183454384 183108592 
1653.258 182774608 182775952 183222272 183977296 184817648 185540816 
1656.151 186027072 186233856 186167872 185863472 185353680 184651952 
1659.044 183746096 182607568 181206800 179526384 177565216 175336816 
1661.937 172865024 170186704 167358384 164456208 161565296 158755024 
1664.830 156052048 153427344 150792496 148016432 144943600 141433408 
1667.723 137397936 132834840 127842800 122600304 117325000 112213000 
1670.616 107402560 102961840 98893800 95150968 91644672 88259456 84875576 
1673.991 81410728 77869680 74377824 71156464 68421128 66296412 64770096 
1677.367 63736864 63059056 62628412 62391828 62347724 62523552 62942908 
1680.742 63601852 64471380 65519504 66742144 68194392 69992896 72278432 
1684.117 75117736 78449616 82112016 85941624 89865704 93904696 98124168 
1687.492 102581112 107280256 112166456 117109736 121949408 126543792 
1690.385 130792456 134661952 138171024 141363120 144280672 146950048 
1693.279 149373104 151535744 153415568 154999712 156298864 157358864 
1696.172 158238944 158960960 159479712 159663248 159316480 158189952 
1699.065 156064720 152883440 148895392 144643840 140691568 137345328 
1701.958 134560048 132090640 129642248 126983408 123978160 120596328 
1704.851 116905424 113041864 109167344 105405720 101822104 98422648 95176384 
1708.226 92031192 88926072 85803624 82618240 79351760 76017920 72663800 
1711.601 69352952 66137916 63054384 60107560 57281152 54557540 51934208 
1714.977 49431648 47086136 44929484 42971732 41191740 39561252 38067208 
1718.352 36730020 35595888 34706464 34071200 33658400 33405982 33240694 
1721.727 33106220 32975756 32862558 32805704 32851264 33022444 33308304 
1725.102 33668676 34056008 34438088 34805968 35172864 35557008 35966080 
1728.478 36388000 36794784 37157920 37466808 37735476 37996680 38283408 
1731.853 38614720 38985760 39375324 39762440 40152852 40583736 41110908 
1735.228 41769144 42551376 43421248 44332640 45251940 46161912 47068004 
1738.603 47990048 48946468 49937372 50937472 51902280 52788784 53570144 
1741.979 54241808 54814892 55303292 55709812 56020880 56208308 56240968 
1745.354 56098768 55778260 55293092 54663312 53905188 53020376 51993960 
1748.729 50800760 49420216 47849820 46113680 44261968 42359192 40468572 
1752.104 38635836 36883296 35213320 33614076 32065534 30543434 29021404 
1755.479 27478286 25908134 24328570 22782000 21323808 19999612 18830628 
1758.855 17805052 16886220 16024573 15177877 14327383 13484157 12683672 
1762.230 11967077 11360012 10861781 10449712 10092258 9765019 9455804 
1765.605 9163864 8893155 8644822 8413217 8188489 7962391 7735502 7517259 
1769.463 7320861 7153316 7008296 6865579 6698715 6489905 6242135 5980934 
1773.320 5740438 5545512 5399082 5284428 5175572 5052027 4906868 4748258 
1777.177 4593557 4458092 4346264 4248417 4146410 4023926 3877774 3719138 
1781.035 3569213 3445088 3351618 3277764 3204723 3114541 3001724 2874893 
1784.892 2753634 2655912 2588542 2544079 2506886 2462265 2405287 2341854 
1788.750 2285526 2248088 2231369 2225374 2210953 2171424 2101699 2013344 
1792.607 1927869 1865437 1832728 1820882 1813263 1795263 1762858 1722471 
1796.465 1686446 1664792 1658672 1658805 1650191 1620756 1568910 1505001 
1800.322 1447152 1409620 1396224 1397753 1399348 1387947 1361189 1327055 
1804.179 1299305 1288504 1295616 1311202 1320707 1313163 1286244 1248926 
1808.037 1214933 1195961 1193934 1200447 1201045 1184565 1150013 1107524 
1811.894 1071816 1054511 1056869 1070155 1079788 1075270 1055341 1029135 
1815.752 1011267 1012496 1033951 1065903 1093108 1103505 1095466 1078060 
1819.609 1066568 1073443 1100582 1139249 1175196 1196094 1197224 1183502 
1823.467 1164963 1150113 1140312 1129250 1107790 1071915 1026279 982673 
1827.324 953218 943521 947772 951823 937976 897201 834420 767698 717513 
1831.664 695875 701052 719770 735568 736962 723056 704039 694182 702844 
1836.003 729561 763051 789174 798136 791630 781008 782601 807630 856497 
1840.343 919016 980149 1028405 1060257 1081548 1102874 1132904 1172106 
1844.200 1212541 1244240 1263680 1277139 1298374 1339818 1405465 1487712 
1848.058 1571338 1639215 1680891 1697755 1701048 1704708 1716882 1735445 
1851.915 1749617 1747088 1720974 1675303 1622286 1576559 1545434 1525849 
1855.772 1505001 1469160 1410584 1333004 1248893 1173169 1114799 1071484 
1859.630 1032656 985562 924296 853741 787580 739584 717248 716816 725644 
1863.969 729461 720500 701417 683562 679613 694282 720965 744264 746919 
1868.309 720367 670653 615071 573431 555748 557606 563810 558435 531994 
1872.649 487244 436064 393512 368474 360183 358260 350102 329013 297811 
1876.988 266744 246852 243073 249405 253416 241680 208595 160033 110317 
1881.328 73530 56961 55867 57226 47086 18986 -22629 -63513 -88558 -90214 
1886.150 -72325 -48240 -32768 -35087 -53673 -78487 -96243 -99556 -90943 
1890.489 -80408 -77791 -87034 -102438 -112839 -108136 -85941 -53640 -25313 
1894.829 -13651 -22066 -42442 -58709 -56589 -30217 14512 63820 103324 126689 
1899.651 137925 148697 169911 205313 248079 285742 307360 310809 304575 
1903.990 303945 322414 363433 417656 468071 498721 502702 485983 462764 
1908.330 448535 451022 465948 480875 483130 467408 438949 410260 392152 
1912.669 388604 393412 394540 381109 350633 310145 272778 249438 241912 
1917.009 241183 232994 205645 159403 106406 65312 50234 63489 93680 121453 
1921.831 130170 112637 75088 32837 1656 -11232 -10205 -6229 -9542 -21437 
1926.653 -34060 -34855 -14181 26938 76513 117343 135373 128115 105014 82710 
1931.474 73795 81086 94839 100507 86322 52620 10569 -21470 -30449 -15904 
1936.296 9410 27734 25248 1822 -28693 -46550 -35087 7620 69023 127153 164342 
1941.600 173789 164574 154233 158210 179955 209656 230508 230674 211943 
1945.940 189037 182805 208363 266147 341182 411222 457192 474274 473080 
1950.279 472483 488106 522672 564905 596159 602297 581328 544634 510696 
1954.619 493712 493812 497593 485983 446346 380280 305371 245029 216949 
1958.958 221756 242807 255372 241017 198783 144819 102561 89073 105379 
1963.298 137362 163315 168651 154564 137859 140544 176109 238564 304973 
1967.638 348146 350699 316412 267971 236077 241349 284482 346554 399183 
1971.977 423560 418552 402002 400178 433476 503531 594997 683861 754686 
1976.317 807398 858124 924528 1015020 1116261 1202473 1244706 1229420 
1980.174 1163701 1074240 991872 935652 908225 895641 878741 846438 803414 
1984.514 766901 757607 785821 844678 912774 967132 993068 993732 986293 
1988.854 991274 1020766 1070055 1119284 1145628 1136492 1096695 1047303 
1992.711 1013658 1012928 1044779 1093639 1137920 1163136 1169016 1167953 
1996.568 1175893 1201742 1241316 1278601 1296048 1284051 1248261 1205929 
2000.426 1178585 1176060 1194300 1214734 1217425 1190479 1139681 1082943 
2004.283 1044280 1037837 1061054 1096662 1123337 1128619 1115929 1102575 
2008.141 1108022 1142505 1199616 1259061 1298740 1308544 1294918 1278800 
2011.998 1282755 1318248 1378739 1442929 1485684 1490870 1459951 1409587 
2015.855 1361754 1331974 1322103 1321505 1318281 1307879 1297776 1304788 
2019.713 1344039 1417099 1510554 1598142 1655579 1671311 1651388 1614437 
2023.570 1582345 1566416 1562758 1556706 1533796 1489973 1437777 1399082 
2027.428 1392102 1421853 1475045 1526181 1550289 1537686 1496257 1450443 
2031.285 1424645 1432059 1468429 1516572 1556108 1575462 1578089 1576592 
2035.143 1584640 1606589 1633228 1648528 1640745 1609316 1568445 1538983 
2039.000 1538717 1571371 1625013 1677764 1709830 1714787 1701215 1688242 
2042.857 1693531 1724367 1772173 1819485 1847901 1850397 1834092 1817488 
2046.715 1818786 1847967 1900180 1960453 2009216 2033317 2028890 2001094 
2050.572 1958522 1907102 1849299 1785448 1717914 1654115 1605491 1581048 
2054.430 1583542 1605159 1629271 1637386 1619027 1575528 1520263 1471454 
2058.287 1443628 1440802 1455562 1474413 1485351 1485351 1480830 1483157 
2062.145 1501377 1536722 1579718 1618462 1642075 1648428 1645069 1644736 
2066.002 1656710 1682853 1715352 1742132 1752944 1745758 1726995 1707568 
2069.859 1696558 1695660 1698188 1693664 1673939 1639148 1597543 1561362 
2073.717 1541244 1540579 1554179 1572568 1587600 1596645 1603862 1615967 
2077.574 1636953 1664759 1691535 1707202 1705905 1688907 1664659 1645035 
2081.432 1637918 1644071 1656976 1667653 1669416 1662198 1652685 1649758 
2085.289 1658971 1678762 1699884 1710795 1703776 1677997 1640579 1602332 
2089.146 1572502 1553747 1542574 1531634 1515973 1496523 1480331 1475843 
2093.004 1489175 1519099 1557704 1593785 1618428 1628871 1629404 1626909 
2096.861 1626444 1628173 1627375 1618827 1600968 1578787 1561861 1560198 
2100.719 1578388 1612309 1650224 1679161 1690737 1684417 1667919 1651721 
2104.576 1644237 1646133 1652087 1653683 1646166 1630468 1613872 1605258 
2108.434 1610047 1626078 1646166 1660169 1661699 1651987 1638550 1630268 
2112.291 1633029 1645435 1660069 1667553 1661998 1644603 1623051 1607520 
2116.148 1604427 1613540 1628106 1639148 1640512 1632896 1622320 1617763 
2120.006 1625546 1644902 1669548 1691169 1704508 1710529 1715818 1727993 
2123.863 1751313 1782852 1813196 1831197 1829899 1809969 1779825 1750083 
2127.721 1728392 1715219 1703643 1683552 1647264 1594550 1532266 1471687 
2131.578 1421487 1384590 1357733 1334367 1309939 1285380 1266073 1258097 
2135.436 1262351 1272619 1276773 1264012 1230783 1184698 1140512 1114301 
2139.293 1115098 1140013 1175661 1205132 1217292 1211710 1198187 1189981 
2143.150 1196892 1218389 1244473 1261453 1260257 1241117 1214501 1194699 
2147.008 1191110 1203902 1224137 1239987 1242778 1234637 1224769 1225134 
2150.865 1240419 1265807 1285114 1281857 1244174 1172937 1079821 983005 
2154.723 896803 827482 773374 730258 700222 694547 729494 817489 955509 
2159.062 1122307 1283885 1407625 1475710 1491768 1475444 1450044 1432857 
2162.920 1428934 1431194 1430496 1422684 1411481 1408157 1422618 1455130 
2166.777 1496523 1530703 1543306 1529905 1498983 1466002 1447484 1451573 
2170.635 1472451 1496722 1509955 1504768 1486714 1469625 1468462 1490937 
2174.492 1533330 1580682 1615269 1626909 1615069 1590626 1567780 1557870 
2178.349 1563956 1582013 1604693 1626976 1649226 1675502 1707901 1744194 
2182.207 1774602 1787876 1776365 1742032 1696724 1657442 1639514 1648162 
2186.064 1677498 1714687 1746989 1768580 1782886 1798690 1824975 1863840 
2189.922 1908633 1947505 1970538 1975364 1969107 1965445 1976729 2008650 
2193.779 2057020 2111821 2161135 2200163 2230503 2260211 2295918 2339689 
2197.636 2384797 2421380 2439873 2438007 2421547 2402322 2390794 2391694 
2201.494 2401489 2411018 2412218 2402755 2387296 2376435 2379900 2401156 
2205.351 2435575 2473095 2503520 2523216 2534514 2545712 2564410 2593909 
2209.209 2629476 2662579 2683916 2689950 2683416 2672347 2663479 2659845 
2213.066 2657545 2648611 2625309 2584809 2530381 2470229 2412917 2363042 
2216.924 2320568 2282228 2244891 2209288 2180316 2163399 2161734 2172856 
2220.781 2188008 2196067 2188974 2164531 2128103 2088581 2054690 2030155 
2224.638 2014010 2000628 1986182 1970205 1956725 1950834 1955593 1967942 
2228.496 1979824 1981955 1967842 1937521 1898416 1861943 1837852 1830964 
2232.353 1839815 1859082 1882608 1908034 1935956 1969040 2008085 2049829 
2236.211 2087716 2114884 2127837 2129502 2128503 2134429 2154741 2190339 
2240.068 2235798 2282061 2322533 2354880 2383032 2413284 2451402 2498155 
2243.926 2550045 2600275 2643510 2678148 2707421 2735895 2767139 2800119 
2247.783 2829300 2848110 2851879 2841006 2821329 2801620 2789415 2787747 
2251.640 2794717 2804688 2812792 2816560 2817427 2818695 2822897 2829167 
2255.498 2834036 2832302 2821096 2800886 2776509 2753101 2735028 2722591 
2259.355 2712455 2699752 2681282 2657512 2632009 2610275 2595208 2587242 
2263.213 2583142 2578343 2570177 2559144 2548479 2541880 2541046 2543713 
2267.070 2544679 2538613 2523183 2500221 2475694 2456234 2446470 2446537 
2270.927 2452102 2457467 2458599 2455201 2450469 2449203 2454668 2466630 
2274.785 2481293 2493623 2499854 2499921 2497088 2495955 2500154 2509952 
2278.642 2522349 2533747 2540846 2543513 2544779 2548545 2558044 2574043 
2282.500 2594675 2617275 2639943 2662779 2687416 2716056 2748933 2783979 
2286.357 2817294 2844808 2864453 2877461 2887234 2898475 2913952 2934167 
2290.215 2957118 2979871 3000456 3019340 3038726 3061482 3089279 3120916 
2294.072 3153689 3183661 3207961 3225920 3239072 3249821 3259669 3268883 
2297.929 3276094 3279867 3279767 3277163 3274425 3274091 3276795 3281135 
2301.787 3283840 3281937 3273891 3261238 3246917 3235433 3229358 3229124 
2305.644 3232796 3237136 3239706 3239706 3237904 3235600 3233965 3232262 
2309.502 3229124 3222815 3212868 3200384 3188101 3178554 3173114 3170911 
2313.359 3169443 3165437 3156626 3142775 3125020 3105731 3086443 3067489 
2317.217 3048402 3028215 3007062 2985976 2967360 2953282 2944575 2940605 
2321.074 2939371 2938370 2935601 2929664 2919556 2904045 2881230 2849211 
2324.931 2806689 2754701 2696418 2637510 2584009 2540446 2508552 2487124 
2328.789 2472795 2462198 2453801 2448203 2447903 2455167 2470696 2492856 
2332.646 2518884 2545912 2572876 2600508 2630876 2665213 2703353 2742730 
2336.504 2779611 2810824 2835503 2855281 2873258 2892804 2915120 2939504 
2340.361 2963991 2986610 3007262 3027581 3050237 3076765 3106866 3137836 
2344.219 3167306 3193942 3219978 3250222 3290851 3345941 3415766 3496457 
2348.076 3581173 3662597 3734711 3794304 3840800 3875367 3899504 3914148 
2351.933 3919230 3914583 3900908 3880749 3857615 3836120 3819440 3808242 
2355.791 3801657 3797546 3794371 3791931 3791998 3796176 3805802 3819941 
2359.648 3836856 3854038 3870486 3886633 3904319 3925583 3951094 3979985 
2363.506 4010081 4039477 4067069 4093726 4120987 4150457 4182405 4215794 
2367.363 4248617 4279435 4307711 4334182 4360053 4385523 4410124 4432384 
2371.220 4451398 4468236 4485711 4509146 4542996 4590343 4650756 4721159 
2375.078 4797035 4874598 4952210 5031143 5114080 5203974 5302305 5408677 
2378.935 5520913 5636737 5754103 5872642 5992457 6113750 6235648 6356033 
2382.793 6472383 6582035 6683001 6774836 6857635 6931292 6995197 7048402 
2386.650 7089657 7119060 7137956 7149038 7155405 7159379 7161704 7161299 
2390.508 7156112 7144423 7125494 7100435 7070595 7037424 7001628 6962604 
2394.365 6919745 6873456 6825287 6778436 6736673 6702887 6678357 6662443 
2398.222 6653560 6650162 6651878 6659381 6673849 6696056 6724928 6758345 
2402.080 6793616 6829024 6864805 6902979 6946813 6999069 7060862 7130984 
2405.937 7206709 7284940 7363692 7442154 7521372 7602493 7686967 7775405 
2409.795 7868213 7965733 8068911 8178326 8294084 8414839 8537351 8657058 
2413.652 8769461 8870902 8959819 9036303 9101466 9156419 9201090 9234698 
2417.510 9256360 9265804 9264315 9254430 9239065 9220313 9198958 9174219 
2421.367 9145455 9112124 9075447 9037725 9001324 8967869 8937664 8909897 
2425.224 8883686 8859439 8839014 8826097 8824068 8835058 8858864 8893155 
2429.082 8934857 8980926 9030586 9084650 9144609 9212022 9286825 9367497 
2432.939 9451977 9538675 9627219 9718765 9815344 9918421 10028845 10146420 
2436.797 10270541 10401621 10540820 10690149 10851318 11024782 11208888 
2440.172 11400692 11596869 11795008 11995075 12198881 12409432 12629192 
2443.547 12859268 13099233 13347394 13601988 13862032 14127504 14398893 
2446.922 14676004 14958092 15243453 15529860 15815219 16098736 16380100 
2450.298 16659372 16936102 17208908 17475642 17734048 17982178 18218910 
2453.673 18443844 18656094 18854054 19035176 19195870 19332514 19442516 
2457.048 19524370 19577398 19601386 19595320 19557018 19484412 19374882 
2460.423 19227628 19043276 18824330 18574196 18295730 17991572 17663642 
2463.799 17313582 16944234 16558953 16162664 15759965 15354965 14950993 
2467.174 14550823 14157251 13774193 13406646 13059759 12737852 12443460 
2470.549 12176152 11933904 11713577 11513025 11330626 11166390 11019887 
2473.924 10890217 10774954 10671030 10575176 10485318 10401078 10322961 
2477.300 10252018 10188174 10130276 10076149 10023589 9971646 9920285 
2480.675 9871201 9825783 9784843 9747838 9713343 9680274 9648088 9617971 
2484.532 9592091 9572715 9560861 9556152 9557270 9561944 9569091 9578033 
2488.390 9588873 9601813 9616142 9630539 9643718 9654661 9664079 9674040 
2492.247 9687524 9706634 9732217 9763425 9797687 9832697 9866795 9899471 
2496.104 9931438 9963136 9994531 10024437 10051327 10074081 10093343 
2499.480 10110774 10128953 10150083 10175149 10203167 10232171 10260227 
2502.855 10286181 10310475 10334261 10358591 10383702 10408713 10432301 
2506.230 10453004 10471130 10487796 10505210 10524592 10546183 10568590 
2509.605 10589266 10605766 10616802 10622608 10624305 10623593 10620911 
2512.981 10615953 10607872 10595547 10579047 10559253 10537663 10515834 
2516.356 10494076 10472148 10449407 10425683 10401824 10379562 10360864 
2519.731 10346680 10336194 10327848 10318957 10308303 10296394 10285367 
2523.106 10278446 10278073 10284926 10297582 10313461 10329849 10344983 
2526.482 10358862 10372368 10386790 10402299 10418250 10433557 10447268 
2529.857 10459997 10473404 10490138 10511998 10539733 10572596 10608789 
2533.232 10646717 10685904 10726793 10770403 10817482 10867455 10918928 
2536.607 10969354 11017236 11062133 11104995 11147521 11191310 11236905 
2539.983 11283729 11330558 11376406 11421612 11467265 11514863 11564814 
2543.358 11616165 11666739 11713712 11754971 11790785 11822823 11854217 
2546.733 11887759 11924777 11964727 12005736 12045558 12082453 12115978 
2550.108 12146779 12175368 12202153 12226656 12248059 12266293 12281971 
2553.484 12297037 12313671 12333817 12357816 12384748 12413045 12440937 
2556.859 12467499 12492904 12517184 12540511 12561725 12578846 12589659 
2560.234 12592558 12587714 12576697 12562270 12546718 12531268 12516058 
2563.609 12500064 12482059 12461941 12440220 12418501 12398385 12380964 
2566.985 12366645 12355328 12347078 12342032 12340669 12343635 12350248 
2570.360 12359555 12369373 12377657 12383180 12385873 12386862 12388158 
2573.735 12391225 12396749 12404454 12413864 12424229 12436128 12450279 
2577.110 12467192 12487208 12509340 12531985 12553607 12573116 12590818 
2580.486 12607497 12624689 12642769 12661838 12681147 12700082 12718881 
2583.861 12739387 12763613 12793812 12830839 12873773 12920331 12967678 
2587.236 13013255 13056174 13096672 13135944 13174981 13214022 13252758 
2590.611 13290473 13326928 13362565 13398615 13436343 13476056 13517004 
2593.987 13557647 13596347 13632176 13665684 13698614 13733153 13770773 
2597.362 13811953 13855909 13901408 13947597 13994850 14044677 14098889 
2600.737 14158860 14224933 14295707 14368855 14442360 14514471 14585053 
2604.112 14654720 14724811 14796489 14870340 14946432 15024629 15104694 
2607.488 15186009 15268025 15349438 15428671 15504449 15575329 15641412 
2610.863 15703209 15762063 15818827 15873777 15925640 15972834 16013572 
2614.238 16046507 16072020 16091136 16105406 16116204 16123803 16128067 
2617.613 16128033 16123528 16115000 16103791 16091790 16081061 16072845 
2620.989 16067790 16066002 16067447 16071744 16078930 16088832 16101280 
2624.364 16115859 16132435 16150970 16172396 16197914 16228663 16265193 
2627.739 16307471 16353983 16403325 16454253 16506497 16560743 16618472 
2631.114 16680960 16748657 16820808 16895866 16971900 17047672 17122804 
2634.490 17197910 17274000 17351892 17431834 17513448 17596080 17679380 
2637.865 17763284 17848376 17935180 18023830 18113984 18204258 18293310 
2641.240 18379786 18462926 18542658 18619294 18693106 18764438 18833430 
2644.615 18900322 18965874 19030986 19097010 19164842 19235214 19308160 
2647.990 19383302 19460328 19539376 19620868 19705562 19794298 19886936 
2651.366 19983340 20082126 20182046 20282264 20382612 20483190 20584870 
2654.741 20688102 20793234 20900654 21010012 21121622 21235490 21351720 
2658.116 21470138 21590190 21710904 21831232 21950374 22068222 22185198 
2661.491 22302032 22419488 22537954 22656696 22774668 22890436 23002532 
2664.867 23110360 23213388 23311758 23405536 23495170 23580868 23663260 
2668.242 23743114 23821584 23899820 23978876 24059138 24140674 24223104 
2671.617 24305758 24388744 24471816 24555220 24639024 24722774 24805490 
2674.992 24886184 24963526 25036668 25105364 25169790 25230430 25287780 
2678.368 25342500 25395506 25447608 25500414 25555656 25615120 25680392 
2681.743 25752498 25831892 25918828 26013238 26115376 26225456 26343978 
2685.118 26471094 26606592 26749744 26899290 27054422 27214408 27378794 
2688.493 27547512 27720396 27897268 28077676 28261130 28447386 28636376 
2691.869 28828352 29023742 29222340 29424148 29628532 29835534 30045226 
2695.244 30258324 30476216 30700086 30930512 31167468 31409502 31655166 
2698.619 31903182 32152370 32402630 32654538 32908700 33165586 33424482 
2701.994 33684360 33943672 34200808 34453944 34701944 34943624 35177824 
2705.370 35403160 35618220 35821476 36011720 36187792 36348764 36493652 
2708.745 36621572 36731532 36822916 36895596 36950248 36987696 37009344 
2712.120 37015912 37007864 36984920 36946172 36890728 36818192 36728688 
2715.495 36622868 36501580 36365696 36216208 36053808 35879448 35694656 
2718.871 35500876 35300000 35093540 34882652 34668028 34450356 34230496 
2722.246 34010460 33793076 33581352 33378500 33186686 33007074 32839474 
2725.621 32683332 32537640 32402382 32277700 32164502 32063644 31975862 
2728.996 31901042 31838748 31788300 31748980 31720356 31702250 31694588 
2732.372 31697258 31709984 31732618 31764738 31805914 31855434 31912632 
2735.747 31976930 32047092 32122150 32201290 32283514 32368184 32454472 
2739.122 32541494 32628212 32713306 32795698 32874282 32948554 33018478 
2742.497 33084158 33146058 33204674 33260796 33314816 33367730 33419720 
2745.873 33471540 33523404 33574804 33625532 33675228 33723744 33771448 
2749.248 33819332 33868440 33919884 33974304 34031996 34092668 34156540 
2752.623 34224148 34296576 34375716 34463236 34560848 34669288 34789132 
2755.998 34920140 35062144 35214688 35377780 35550752 35732424 35921340 
2759.374 36115228 36311516 36507384 36700708 36889064 37070288 37242312 
2762.749 37402160 37547472 37675592 37784668 37873308 37941172 37988616 
2766.124 38016064 38024132 38013748 37985940 37942224 37885128 37817636 
2769.499 37743356 37665912 37588332 37513012 37441632 37374856 37312824 
2772.875 37255380 37202064 37152360 37105804 37062424 37022408 36986580 
2776.250 36955768 36930656 36910924 36895308 36880700 36863672 36840084 
2779.625 36806220 36759736 36699264 36624708 36536900 36437216 36327472 
2783.000 36209544 36086100 35959704 35833168 35709296 35590168 35477184 
2786.375 35370988 35271752 35179224 35093648 35014840 34942976 34877948 
2789.751 34819288 34766228 34718276 34674632 34635264 34600100 34569208 
2793.126 34542696 34520376 34501756 34486188 34473240 34462084 34451932 
2796.501 34441208 34428296 34410508 34385832 34352336 34309052 34256348 
2799.876 34194464 34124640 34047408 33962840 33870948 33771340 33664344 
2803.252 33550642 33431676 33308696 33183110 33055626 32926750 32797270 
2806.627 32668222 32541458 32419414 32304182 32197688 32100636 32012954 
2810.002 31934172 31864028 31803240 31752828 31714580 31690240 31680830 
2813.377 31686674 31707454 31742316 31790510 31851266 31923686 32007034 
2816.753 32100636 32203648 32315604 32436762 32568242 32711018 32867026 
2820.128 33037570 33222950 33423052 33637096 33864284 34103672 34355096 
2823.503 34617968 34892028 35176456 35470280 35772076 36080556 36394412 
2826.878 36712208 37032296 37352616 37670572 37983520 38288836 38584700 
2830.254 38870400 39146176 39413236 39672980 39926784 40176076 40422276 
2833.629 40667924 40916448 41172028 41439972 41725300 42032312 42364048 
2837.004 42722184 43107764 43521956 43966540 44445268 44963368 45527048 
2840.379 46143340 46819152 47560072 48370740 49254512 50212640 51245960 
2843.755 52353696 53533556 54781320 56090624 57452520 58855008 60283208 
2847.130 61720624 63147716 64545148 65892936 67170736 68359416 69440616 
2850.505 70396536 71211312 71870728 72362112 72676640 72808592 72756712 
2853.880 72524888 72121496 71559512 70854728 70026416 69094656 68079768 
2857.256 67002452 65882488 64737252 63582860 62433068 61299016 60191016 
2860.631 59117996 58088520 57111020 56193448 55342884 54565580 53865880 
2864.006 53247488 52712496 52262464 51898024 51618924 51423056 51306292 
2867.381 51262256 51282576 51356112 51470620 51613068 51769108 51924984 
2870.757 52067356 52183876 52264668 52302640 52294380 52241088 52147712 
2874.132 52023764 51880588 51731704 51591124 51471328 51382740 51333700 
2877.507 51328668 51370024 51457448 51588996 51762388 51974800 52224344 
2880.882 52509112 52827136 53176364 53553840 53955500 54376308 54809552 
2884.258 55248048 55683784 56108536 56515204 56898728 57256616 57590356 
2887.633 57904784 58208488 58511080 58823140 59154632 59513968 59908708 
2891.008 60347700 60840076 61399648 62042912 62789612 63662812 64686216 
2894.383 65881796 67269184 68859608 70652888 72629248 74748056 76941128 
2897.759 79110544 81144200 82917680 84311296 85236280 85640064 85520912 
2901.134 84923760 83936680 82674200 81252376 79787056 78373808 77081024 
2904.509 75957720 75030256 74308896 73793912 73478480 73352576 73404280 
2907.884 73622016 73995024 74513784 75170168 75956504 76864712 77885456 
2911.260 79007952 80218440 81502984 82846296 84233336 85650920 87085704 
2914.635 88525680 89959536 91374896 92760272 94104032 95394256 96619648 
2918.010 97770240 98836224 99809832 100685560 101459240 102128960 102693544 
2921.385 103152384 103505088 103750408 103887888 103917728 103842056 
2924.278 103665128 103392992 103033576 102595176 102086040 101513904 
2927.171 100885888 100207912 99485192 98721536 97919576 97080312 96203096 
2930.547 95286048 94326336 93320560 92265520 91158056 89996456 88779912 
2933.922 87509768 86189216 84823928 83422688 81995624 80555592 79117224 
2937.297 77694816 76304024 74959576 73674232 72459856 71326064 70279624 
2940.672 69325744 68467752 67706624 67041040 66466548 65975048 65553328 
2944.048 65185116 64850608 64528188 64199448 63849492 63469836 63059820 
2947.423 62626308 62181720 61741552 61321756 60935872 60592392 60294512 
2950.798 60039260 59819676 59624864 59443292 59263692 59076192 58873184 
2954.173 58649368 58400844 58125072 57820292 57485272 57119448 56723048 
2957.549 56297132 55843368 55363772 54860528 54335112 53788840 53222132 
2960.924 52635736 52030264 51407020 50767648 50114792 49451180 48780312 
2964.299 48106148 47433180 46766528 46112096 45475428 44862064 44276500 
2967.674 43721836 43199580 42710116 42252760 41826420 41430496 41064940 
2971.050 40731352 40431516 40168264 39943344 39757176 39608040 39490524 
2974.425 39395896 39312568 39225520 39118692 38976008 38782176 38525824 
2977.800 38200440 37805924 37348680 36841672 36303444 35753976 35214076 
2981.175 34702232 34231644 33810700 33442124 33123526 32849084 32610032 
2984.551 32397348 32201436 32014382 31831190 31650286 31473872 31307324 
2987.926 31158104 31032710 30934462 30861920 30807494 30759334 30701864 
2991.301 30621290 30507176 30355388 30169270 29959058 29739898 29527906 
2994.676 29338280 29182330 29065616 28988532 28946914 28934554 28944010 
2998.052 28969300 29006136 29052260 29106572 29168828 29238358 29313748 
3001.427 29393018 29473682 29553370 29630200 29702608 29769386 29829536 
3004.802 29881922 29925830 29960548 29985932 30002300 30010182 30010254 
3008.177 30002938 29988170 29965696 29935060 29896014 29848774 29794084 
3011.552 29733016 29666668 29595970 29521736 29444784 29365898 29286172 
3014.928 29206994 29129850 29056226 28987362 28924142 28866984 28815994 
3018.303 28770994 28731416 28696972 28666708 28640412 28617548 28598438 
3021.678 28583290 28572640 28566482 28564570 28565844 28568994 28573064 
3025.053 28577700 28583538 28592350 28605834 28625830 28652798 28686000 
3028.429 28723556 28763242 28803178 28842054 28879908 28917448 28955874 
3031.804 28995616 29037098 29079716 29122942 29166028 29208872 29251720 
3035.179 29295212 29340548 29388764 29441238 29499286 29563692 29635026 
3038.554 29713394 29797562 29885578 29975352 30064472 30151086 30234630 
3041.930 30315416 30394724 30474190 30555200 30638926 30725372 30814110 
3045.305 30904218 30994952 31085312 31174836 31263310 31350914 31438000 
3048.680 31525068 31612546 31700612 31789120 31877328 31964696 32050126 
3052.055 32132782 32212354 32288584 32361936 32432906 32502286 32570816 
3055.431 32639392 32708730 32779652 32852304 32926928 33003320 33080940 
3058.806 33159432 33238620 33318680 33400218 33483926 33570224 33659148 
3062.181 33750032 33841788 33933496 34024544 34114960 34205400 34296896 
3065.556 34390064 34485220 34581908 34679296 34776276 34872708 34968764 
3068.932 35065340 35163776 35265392 35371132 35481388 35596136 35714836 
3072.307 35836948 35961868 36089196 36218764 36350784 36485324 36622940 
3075.682 36763844 36908112 37055244 37204588 37355144 37505856 37656440 
3079.057 37806900 37958060 38111516 38267956 38428216 38592088 38758772 
3082.433 38927044 39095888 39264472 39432612 39600524 39768436 39936916 
3085.808 40106516 40277600 40450972 40627248 40806836 40989484 41174544 
3089.183 41360188 41544200 41724860 41900964 42072428 42240456 42406864 
3092.558 42573704 42742400 42913832 43088188 43265900 43447576 43634376 
3095.934 43828152 44030596 44243000 44465492 44697172 44936580 45181600 
3099.309 45430948 45683792 45940248 46201088 46467504 46740400 47020668 
3102.684 47307944 47602148 47901908 48206104 48512912 48820424 49126968 
3106.059 49430276 49728552 50019864 50302176 50573768 50832980 51078404 
3109.435 51309092 51524300 51723904 51908068 52077068 52230924 52369620 
3112.810 52492656 52599232 52688740 52760460 52813700 52848204 52863996 
3116.185 52861676 52841916 52806216 52756344 52694200 52621672 52539960 
3119.560 52450184 52352500 52246544 52132840 52012148 51886372 51758580 
3122.936 51632544 51511800 51399264 51296668 51204320 51122308 51050232 
3126.311 50988144 50936764 50897384 50871308 50859240 50861512 50876936 
3129.686 50903980 50940976 50986244 51038972 51099052 51166780 51242832 
3133.061 51327772 51421716 51524488 51635420 51753692 51878196 52008188 
3136.437 52142596 52280516 52421284 52563592 52706620 52849176 52990688 
3139.812 53130604 53269852 53409176 53549828 53692844 53839212 53989000 
3143.187 54142072 54297828 54455664 54615288 54776360 54939036 55102672 
3146.562 55266972 55430964 55593808 55754940 55914740 56074372 56235464 
3149.938 56399968 56569364 56744152 56923392 57105048 57286896 57466172 
3153.313 57641244 57811240 57976724 58138668 58298592 58457892 58617288 
3156.688 58777268 58937696 59098748 59260160 59422244 59585224 59749596 
3160.063 59915512 60083016 60251840 60421532 60591664 60761944 60932328 
3163.438 61102932 61273948 61444992 61616176 61786896 61956536 62124292 
3166.814 62289972 62453460 62614516 62773192 62929348 63082808 63232988 
3170.189 63379228 63521264 63659048 63793116 63924268 64053812 64183004 
3173.564 64312816 64443940 64576476 64709484 64842032 64972652 65099924 
3176.939 65222768 65340608 65453352 65561384 65665788 65767392 65867604 
3180.315 65967640 66068320 66170564 66274836 66381068 66488712 66596932 
3183.690 66704364 66809496 66911644 67010260 67105344 67197744 67288216 
3187.065 67377288 67465160 67551440 67635336 67716192 67793840 67868016 
3190.440 67939608 68009392 68078112 68146592 68215128 68283528 68351240 
3193.816 68417944 68482448 68543984 68601760 68654728 68702504 68745200 
3197.191 68783320 68818184 68850872 68882520 68913432 68943560 68972416 
3200.566 68999336 69024072 69046952 69068672 69090384 69112840 69136344 
3203.941 69160896 69185800 69210280 69233560 69255168 69274632 69291696 
3207.317 69306232 69318168 69328000 69336440 69344440 69353344 69364032 
3210.692 69376744 69390584 69404032 69415312 69422696 69425728 69424528 
3214.067 69421024 69417408 69415384 69416552 69420864 69427632 69435408 
3217.442 69442560 69447928 69450920 69451976 69451976 69452128 69454344 
3220.818 69459320 69467952 69480240 69495592 69513288 69532376 69551984 
3224.193 69572048 69592856 69614680 69638168 69663640 69690800 69719192 
3227.568 69748416 69778096 69808688 69840944 69875968 69914696 69957312 
3230.943 70003560 70052112 70101600 70150312 70197008 70241176 70282544 
3234.319 70321696 70359600 70397352 70436248 70477480 70522216 70571136 
3237.694 70624656 70682440 70743776 70807928 70874080 70941256 71009376 
3241.069 71077824 71146280 71213968 71280920 71346488 71411072 71475480 
3244.444 71540528 71607496 71677048 71749392 71824016 71900136 71976776 
3247.820 72053472 72130456 72208040 72286768 72366920 72447992 72529040 
3251.195 72609080 72687496 72764160 72839784 72915608 72992864 73072480 
3254.570 73154424 73237920 73321424 73403304 73481624 73555136 73622920 
3257.945 73684632 73740784 73792144 73839824 73885184 73929376 73973416 
3261.321 74017424 74061192 74104104 74145128 74183256 74217296 74246344 
3264.696 74269896 74287512 74299344 74306184 74309016 74309528 74309056 
3268.071 74308272 74306768 74303240 74294544 74277600 74249808 74209752 
3271.446 74157672 74095968 74027752 73956288 73884240 73812408 73740312 
3274.822 73666848 73590104 73509288 73424136 73335864 73245920 73155952 
3278.197 73067224 72980048 72894168 72808944 72723648 72637320 72549632 
3281.572 72460368 72369232 72276712 72183072 72089496 71996720 71905880 
3284.947 71817640 71732544 71650632 71571704 71495760 71423072 71354176 
3288.323 71289552 71229584 71173528 71119936 71066664 71011568 70952960 
3291.698 70891200 70828048 70766624 70710160 70661696 70622200 70590976 
3295.073 70565680 70543496 70522064 70499968 70477864 70456976 70439672 
3298.448 70427280 70421048 70421120 70427712 70441072 70461968 70491816 
3301.823 70532000 70583336 70645048 70715272 70790576 70867176 70941408 
3305.199 71010504 71073136 71129264 71179304 71224896 71267608 71309304 
3308.574 71352024 71397992 71449040 71507160 71573504 71648056 71730312 
3311.949 71819320 71913344 72011464 72112816 72217152 72324384 72434256 
3315.324 72546504 72660432 72775208 72889704 73002968 73114240 73222864 
3318.700 73328368 73430616 73529744 73626176 73720752 73814416 73907888 
3322.075 74001664 74095456 74188176 74278584 74364728 74444168 74515320 
3325.450 74576808 74627912 74669464 74702488 74729288 74752272 74773840 
3328.825 74795136 74816704 74837328 74855240 74867720 74872800 74868664 
3332.201 74854496 74829848 74794656 74748648 74691896 74624456 74547064 
3335.576 74461040 74368160 74269976 74166984 74058872 73943480 73818024 
3338.951 73679456 73525384 73355008 73168544 72967584 72753976 72529752 
3342.326 72296512 72055744 71808648 71556424 71300448 71041880 70781448 
3345.702 70520000 70257808 69995504 69734024 69474328 69217776 68965272 
3349.077 68716944 68472056 68229240 67986840 67743840 67499880 67256336 
3352.452 67014636 66777228 66546528 66324012 66111064 65908440 65716900 
3355.827 65537304 65370344 65216728 65076872 64950684 64837144 64735092 
3359.203 64642960 64559176 64482256 64411304 64345904 64286232 64232984 
3362.578 64187424 64150816 64124128 64107612 64100856 64102352 64110912 
3365.953 64125164 64145444 64172132 64206824 64250804 64304480 64366496 
3369.328 64434328 64503892 64571016 64632268 64685368 64729592 64765288 
3372.704 64793408 64814752 64829372 64836100 64832912 64817212 64785944 
3376.079 64736100 64665184 64571404 64453044 64309516 64139680 63942388 
3379.454 63716060 63458672 63168676 62844904 62487204 62097112 61676972 
3382.829 61230188 60760192 60270836 59765412 59247284 58719648 58185948 
3386.205 57649380 57113556 56581328 56054696 55534948 55022520 54516368 
3389.580 54015192 53516804 53019552 52521636 52022868 51524112 51027272 
3392.955 50535316 50051096 49576956 49114204 48662884 48222280 47791708 
3396.330 47370688 46959340 46557976 46166704 45784256 45407696 45032536 
3399.706 44653912 44266920 43868256 43456692 43033560 42601920 42165744 
3403.081 41729496 41297216 40871556 40454356 40046704 39648260 39258124 
3406.456 38874532 38495444 38118788 37743104 37367640 36993036 36621140 
3409.831 36253808 35893340 35540788 35196720 34860608 34531464 34207764 
3413.207 33888788 33573836 33262800 32956060 32654502 32358688 32069422 
3416.582 31787944 31514592 31249424 30992318 30742122 30497542 30256724 
3419.957 30018348 29781202 29545320 29311090 29079716 28852182 28630040 
3423.332 28413604 28203140 27997940 27797254 27599626 27404062 27209928 
3426.708 27017114 26826148 26638086 26453696 26273854 26098382 25926424 
3430.083 25756576 25587392 25417218 25245776 25073210 24900500 24728596 
3433.458 24558058 24388534 24219426 24049716 23878780 23706966 23535638 
3436.833 23367176 23203394 23045854 22894314 22747538 22602904 22457344 
3440.208 22308868 22156780 22001642 21845866 21692548 21544260 21402988 
3443.584 21268790 21140512 21015470 20890154 20761432 20627014 20485900 
3446.959 20338824 20188014 20037120 19889260 19747450 19613622 19488222 
3450.334 19370794 19259736 19153346 19049716 18947288 18844642 18740810 
3453.709 18635410 18528518 18420542 18312732 18205778 18100580 17997166 
3457.085 17894744 17792106 17688076 17581450 17472400 17361548 17250382 
3460.460 17140138 17031854 16925904 16821738 16719077 16617920 16519094 
3463.835 16423764 16333411 16248683 16169231 16093440 16018728 15942965 
3467.210 15863845 15780821 15694277 15605449 15515711 15426576 15338900 
3470.586 15253336 15170019 15089394 15011390 14935732 14861562 14787850 
3473.961 14713191 14636831 14558394 14478670 14399304 14321800 14247633 
3477.336 14177687 14112033 14050426 13992729 13938632 13887929 13841097 
3480.711 13797143 13755349 13714173 13672318 13628962 13584210 13539154 
3484.087 13495060 13453294 13414369 13378215 13344421 13312578 13282479 
3487.462 13254706 13230111 13209444 13192366 13178328 13165725 13153806 
3490.837 13142263 13132290 13126041 13126655 13136149 13155685 13184784 
3494.212 13221605 13263451 13308000 13353135 13398512 13444613 13492360 
3497.588 13543461 13599389 13660898 13728981 13803745 13885089 13972471 
3500.963 14065690 14163720 14266122 14372863 14484700 14602974 14729952 
3504.338 14867700 15018421 15182921 15361144 15551494 15751857 15959153 
3507.713 16170608 16384572 16600467 16819018 17042364 17272654 17511484 
3511.089 17759832 18016990 18281594 18552238 18827826 19107742 19391722 
3514.464 19679318 19969082 20258658 20544952 20824694 21095604 21356418 
3517.839 21607428 21849280 22082272 22305518 22516176 22710424 22883450 
3521.214 23030972 23149428 23236180 23289734 23309450 23295292 23247890 
3524.590 23168266 23057630 22917506 22749598 22554810 22334504 22090500 
3527.965 21824820 21540536 21241094 20929304 20607662 20277578 19939490 
3531.340 19594244 19242312 18885164 18524574 18162108 17798906 17434766 
3534.715 17069452 16702790 16336095 15971564 15613109 15264216 14928428 
3538.091 14607052 14299680 14004740 13720192 13444545 13177099 12917669 
3541.466 12666341 12422490 12184910 11951410 11719601 11487474 11253634 
3544.841 11018222 10782087 10547066 10315428 10089985 9872964 9666383 
3548.216 9471280 9287298 9112835 8945038 8780348 8615417 8447507 8276623 
3552.074 8103916 7932762 7766567 7608832 7461907 7326488 7202397 7088344 
3555.931 6982435 6882377 6785639 6689865 6592935 6493840 6392650 6290676 
3559.789 6190239 6094058 6003778 5920336 5843525 5771965 5703742 5637073 
3563.646 5569944 5500074 5424646 5339939 5242203 5128798 4999635 4858649 
3567.503 4713287 4572997 4446510 4339705 4253837 4186554 4133029 4087404 
3571.361 4043992 3998811 3949456 3895492 3837324 3776723 3715161 3654143 
3575.218 3594436 3536207 3478888 3421477 3362637 3301968 3239372 3175818 
3579.076 3113373 3054075 2999822 2951714 2910083 2874226 2843374 2816260 
3582.933 2791816 2768940 2745698 2719357 2686616 2643777 2587709 2517584 
3586.791 2435775 2347485 2260278 2181947 2117615 2069238 2035415 2012179 
3590.648 1994470 1977694 1957890 1932528 1901045 1863541 1821880 1778627 
3594.505 1736277 1697256 1663329 1634492 1610147 1588630 1567946 1545667 
3598.363 1520196 1489873 1454133 1413144 1368269 1322103 1277836 1239455 
3602.220 1209850 1191310 1183967 1186293 1195463 1207225 1217093 1221114 
3606.078 1215897 1199483 1171408 1133303 1088690 1042055 999179 963910 
3609.935 938541 921739 909951 897733 879704 852447 815232 771382 726308 
3614.275 686018 654824 633620 619683 608203 592907 568090 530999 481074 
3618.614 421570 357961 296617 243205 201236 171900 154531 147537 148731 
3622.954 156752 171005 191822 219402 254345 295291 338330 377494 403163 
3627.293 404821 374012 308421 215524 111543 16037 -56854 -103630 -129104 
3631.633 -143446 -156993 -177628 -208528 -248235 -291183 -331578 -364255 
3635.490 -387693 -403650 -416096 -429138 -445490 -465813 -488353 -510593 
3639.348 -529986 -544779 -554177 -558578 -557883 -552721 -542595 -527504 
3643.205 -507019 -481899 -453070 -422518 -392858 -366440 -346112 -334458 
3647.063 -333895 -346576 -374418 -418215 -477530 -549610 -628561 -706306 
3650.920 -773520 -823163 -850777 -857225 -846577 -826470 -805536 -791910 
3654.778 -792009 -808182 -837780 -874156 -909107 -935690 -951295 -957346 
3658.635 -957610 -956453 -956784 -959528 -963693 -968024 -971231 -973446 
3662.492 -975694 -979099 -984257 -990670 -995794 -997282 -991992 -978901 
3666.350 -958536 -933541 -908677 -890326 -884539 -896906 -928879 -976620 
3670.207 -1030603 -1077903 -1106723 -1110325 -1089504 -1051460 -1008422 
3673.583 -974140 -962933 -984356 -1038272 -1113366 -1189901 -1250201 
3676.958 -1284593 -1295066 -1290209 -1280959 -1275640 -1278547 -1288921 
3680.333 -1303258 -1316637 -1324829 -1326184 -1320337 -1307850 -1289317 
3683.708 -1264342 -1232195 -1193040 -1148958 -1103815 -1063327 -1034041 
3687.083 -1021512 -1028950 -1055757 -1098361 -1150247 -1205398 -1258923 
3690.459 -1308412 -1352543 -1390032 -1419888 -1441355 -1454828 -1461796 
3693.834 -1465098 -1467212 -1470250 -1474906 -1479925 -1482765 -1480751 
3697.209 -1472330 -1457470 -1437755 -1415991 -1395548 -1380024 -1371602 
3700.584 -1371536 -1379496 -1393434 -1410344 -1426758 -1439769 -1447497 
3703.960 -1449611 -1446804 -1440331 -1431877 -1422167 -1411533 -1399577 
3707.335 -1385705 -1370479 -1355120 -1342601 -1336490 -1340421 -1356903 
3710.710 -1385573 -1424149 -1467278 -1508686 -1542958 -1566366 -1578021 
3714.085 -1579011 -1572474 -1561117 -1548274 -1536751 -1528167 -1523148 
3717.461 -1521431 -1521497 -1521695 -1520407 -1517007 -1511526 -1505384 
3720.836 -1499837 -1496204 -1494884 -1495643 -1498087 -1501587 -1506903 
3724.211 -1515158 -1528398 -1548010 -1574158 -1604563 -1635395 -1660811 
3727.586 -1675730 -1676457 -1662264 -1634735 -1597795 -1556528 -1515653 
3730.962 -1479199 -1449379 -1426295 -1408858 -1395184 -1385573 -1381775 
3734.337 -1387191 -1404729 -1435179 -1475665 -1519549 -1558905 -1587363 
3737.712 -1602186 -1603771 -1594296 -1576040 -1549562 -1514695 -1470877 
3741.087 -1419327 -1364071 -1313532 -1280001 -1276004 -1310328 -1380387 
3744.463 -1469556 -1550321 -1598984 -1605850 -1574950 -1520242 -1457008 
3747.838 -1400568 -1360339 -1342039 -1344550 -1363609 -1392344 -1425172 
3751.213 -1458593 -1490525 -1517997 -1537610 -1544972 -1537841 -1516709 
3754.588 -1485440 -1449677 -1415661 -1388513 -1371635 -1365822 -1370611 
3757.964 -1384450 -1406314 -1435245 -1469655 -1506540 -1540581 -1566234 
3761.339 -1578813 -1577327 -1564320 -1545368 -1527704 -1516610 -1514827 
3764.714 -1520738 -1529388 -1534407 -1531667 -1519846 -1502082 -1483789 
3768.089 -1470316 -1465297 -1469854 -1481411 -1495280 -1507530 -1514629 
3771.465 -1516346 -1513969 -1509941 -1506903 -1506705 -1509676 -1514893 
3774.840 -1520506 -1523709 -1522256 -1515356 -1503865 -1491020 -1480850 
3778.215 -1477944 -1484449 -1499969 -1520573 -1540218 -1553523 -1557551 
3781.590 -1552566 -1541704 -1529818 -1520870 -1516841 -1517568 -1520837 
3784.966 -1523973 -1524799 -1523049 -1520110 -1517997 -1518030 -1521035 
3788.341 -1526186 -1532657 -1538930 -1544543 -1549364 -1553391 -1556231 
3791.716 -1557089 -1554778 -1549298 -1541043 -1532657 -1526747 -1526450 
3795.091 -1532987 -1545170 -1558938 -1568446 -1568446 -1555967 -1531601 
3798.467 -1499870 -1467377 -1442643 -1433429 -1445284 -1478109 -1525888 
3801.842 -1576073 -1615127 -1633810 -1629189 -1605124 -1570130 -1535232 
3805.217 -1510766 -1504691 -1519945 -1552698 -1593933 -1631830 -1657247 
3808.592 -1667149 -1663452 -1650975 -1634669 -1617536 -1599908 -1580265 
3811.968 -1556825 -1529124 -1499638 -1473255 -1456215 -1453739 -1467674 
3815.343 -1494322 -1523709 -1543784 -1544774 -1522884 -1481774 -1430159 
3818.718 -1380123 -1343096 -1329322 -1344814 -1388281 -1450899 -1516841 
3822.093 -1571385 -1604200 -1613212 -1603275 -1582973 -1561744 -1546986 
3825.469 -1543421 -1551609 -1568083 -1586901 -1601460 -1607864 -1604926 
3828.844 -1593867 -1578285 -1561744 -1546656 -1534077 -1523082 -1511757 
3832.219 -1497129 -1477548 -1451790 -1421044 -1387654 -1355351 -1329190 
3835.594 -1314193 -1314556 -1332262 -1366086 -1411698 -1461400 -1507530 
3838.969 -1544510 -1570196 -1585349 -1593570 -1598357 -1603044 -1608887 
3842.345 -1616117 -1624303 -1632490 -1639818 -1645496 -1648763 -1648763 
3845.720 -1644010 -1633645 -1616711 -1592645 -1561183 -1522058 -1475467 
3849.095 -1421176 -1359876 -1293315 -1225620 -1163730 -1117101 -1097667 
3852.470 -1115547 -1174668 -1267579 -1377019 -1481807 -1566168 -1623775 
3855.846 -1656322 -1669030 -1667578 -1656685 -1639686 -1618692 -1595782 
3859.221 -1572474 -1549958 -1529388 -1510832 -1493728 -1477680 -1462952 
3862.596 -1450667 -1442609 -1440892 -1445714 -1454564 -1462952 -1464966 
3865.971 -1456215 -1436269 -1408230 -1379298 -1357762 -1351255 -1363972 
3869.347 -1394094 -1433363 -1469788 -1493629 -1499936 -1491119 -1473882 
3872.722 -1457173 -1448323 -1451427 -1466188 -1487949 -1509742 -1524865 
3876.097 -1528827 -1521332 -1504889 -1483888 -1464108 -1451064 -1447827 
3879.472 -1454993 -1469193 -1484185 -1492803 -1488940 -1470151 -1438680 
3882.848 -1400204 -1362353 -1333880 -1321889 -1329685 -1355615 -1392344 
3886.223 -1429862 -1457668 -1470019 -1465891 -1449115 -1426196 -1404465 
3889.598 -1390329 -1388744 -1400766 -1424248 -1453871 -1483128 -1505879 
3892.973 -1518657 -1520044 -1511195 -1493992 -1471141 -1445086 -1418006 
3896.349 -1391617 -1367407 -1346532 -1330148 -1318949 -1312970 -1311880 
3899.724 -1314424 -1319412 -1325886 -1333451 -1342997 -1355813 -1373088 
3903.099 -1395548 -1422993 -1452781 -1481807 -1506374 -1523544 -1531931 
3906.474 -1531501 -1523412 -1510106 -1494190 -1477944 -1463249 -1451130 
3909.850 -1441619 -1434056 -1426725 -1417940 -1405852 -1389570 -1368959 
3913.225 -1344814 -1319280 -1294702 -1273427 -1257668 -1248351 -1245344 
3916.600 -1248186 -1255619 -1266786 -1280926 -1297279 -1315250 -1332989 
3919.975 -1348282 -1357960 -1360041 -1353369 -1338967 -1320436 -1302333 
3923.351 -1289582 -1285617 -1291035 -1303324 -1317859 -1329025 -1332493 
3926.726 -1326580 -1312244 -1292852 -1272403 -1254860 -1242933 -1237250 
3930.101 -1237547 -1242569 -1250961 -1261335 -1273030 -1284692 -1295264 
3933.476 -1303159 -1307189 -1306727 -1302234 -1294801 -1286707 -1279869 
3936.852 -1276103 -1275640 -1278085 -1281686 -1284692 -1285518 -1283338 
3940.227 -1278448 -1272072 -1265993 -1261699 -1260641 -1262789 -1267447 
3943.602 -1272700 -1276565 -1277391 -1273988 -1266522 -1256148 -1244585 
3946.977 -1233384 -1224166 -1217359 -1212502 -1208901 -1205795 -1202491 
3950.353 -1199186 -1196245 -1193602 -1191388 -1188811 -1185044 -1179724 
3953.728 -1172817 -1165118 -1157947 -1152296 -1148892 -1146943 -1145489 
3957.103 -1142878 -1137954 -1130584 -1121727 -1112639 -1105335 -1100609 
3960.478 -1098593 -1098659 -1099188 -1098758 -1096478 -1091883 -1085141 
3963.854 -1076448 -1066500 -1054964 -1042304 -1028619 -1014075 -999563 
3967.229 -985810 -973413 -963131 -954767 -948320 -942898 -938269 -933277 
3971.086 -927887 -921638 -914463 -906858 -899650 -893335 -889003 -886920 
3974.944 -887184 -888904 -890557 -890557 -887482 -880174 -868601 -853720 
3978.801 -837086 -820749 -807090 -797697 -793729 -794853 -800476 -808446 
3982.658 -816714 -823494 -827562 -828388 -827099 -824453 -821840 -820385 
3986.516 -820484 -822204 -825147 -829314 -834341 -840261 -846941 -853918 
3990.373 -860334 -865327 -868601 -870452 -872106 -874883 -880472 -888937 
3994.231 -899320 -909471 -916844 -919158 -915588 -906991 -895418 -883249 
3998.088 -873230 -866418 -863111 -862748 -864500 -867708 
##END=
