
##TITLE=mdmaHCL00403_3
##JCAMP-DX=5.01  $$ Nicolet v. 1
##DATATYPE=INFRARED SPECTRUM
##ORIGIN=UniL
##OWNER=Nicolet
##LONGDATE=2011/08/23
##TIME=11:14:25
##SPECTROMETER/DATA SYSTEM=Nicolet iS5
##DATA PROCESSING=
Ratio against background
%Transmittance->Absorbance
Truncated
ElementMultiply or ElementDivide
##COMMENTS=
Number of sample scans: 32
Collection length: 51.19 sec
Sample gain: 2.0
Background collected on: Mar Aout 23 11:12:59 2011 (GMT+02:00);
Number of background scans: 32
Background gain: 2.0
Sample spacing:  1.000
Number of scan points: 12415
Resolution points: 8192
Number of FFT points: 65536
Apodization: N-B fort;
Phase correction: Mertz;
Laser frequency: 15798.0 cm-1
Number of rejected sample scans: 0
Number of rejected background scans: 0
Bench serial number: ASB1000141;
##RESOLUTION=4.000
##XUNITS=1/CM
##YUNITS=ABSORBANCE
##FIRSTX=649.893372
##LASTX=4000.122314
##FIRSTY=0.093432
##MAXX=4000.122314
##MINX=649.893372
##MAXY=0.248031
##MINY=-0.000111
##XFACTOR=1.000000
##YFACTOR=1.000000E-009
##NPOINTS=6950
##DELTAX=0.482117
##ZPD=6100
##XYDATA=(X++(Y..Y))
649.893 93431696 92827680 92313472 91922184 91654616 91487488 91386064 
653.268 91326152 91303056 91330328 91427576 91608584 91871416 92201888 
656.643 92581816 93000984 93462224 93975656 94547824 95171640 95822384 
660.018 96469176 97088936 97679440 98263368 98877072 99555936 100317392 
663.393 101151688 102028832 102911776 103771864 104587240 105344648 
666.285 106024784 106591624 106998472 107207000 107218792 107079368 
669.178 106853352 106585616 106283296 105921896 105463336 104880032 
672.071 104166264 103347264 102467752 101578504 100712088 99874336 99048768 
675.446 98212552 97353200 96477328 95607608 94769616 93980056 93236528 
678.820 92521544 91812104 91093528 90365160 89639888 88934280 88259008 
682.195 87612848 86984968 86360216 85730392 85097600 84473792 83873304 
685.570 83305264 82769720 82259504 81765728 81285176 80822360 80388096 
688.945 79992992 79640872 79324712 79030008 78740552 78446480 78148560 
692.320 77856760 77586736 77353264 77164560 77024208 76932504 76891288 
695.694 76905528 76982264 77126928 77339448 77613272 77937384 78300824 
699.069 78697968 79130856 79606408 80130968 80704672 81316704 81948600 
702.444 82577976 83185904 83762664 84306912 84822480 85311680 85770792 
705.819 86191200 86562464 86879120 87144576 87370040 87571088 87760928 
709.194 87945976 88127688 88305632 88484160 88675904 88899480 89172640 
712.569 89504232 89886856 90294992 90688480 91025768 91270880 91401688 
715.943 91413704 91316344 91130672 90884088 90612184 90359816 90175488 
719.318 90115304 90230016 90553072 91092296 91818776 92668512 93541576 
722.693 94323832 94906096 95196392 95147840 94764264 94103496 93261536 
726.068 92356752 91505696 90791216 90257544 89905648 89706200 89614472 
729.443 89588976 89604208 89650440 89728976 89842688 89988752 90156032 
732.817 90329504 90495568 90648968 90793016 90936784 91088456 91250400 
736.192 91417840 91583016 91739816 91888496 92036032 92192920 92367608 
739.567 92560824 92766216 92972008 93167952 93348504 93514368 93669488 
742.942 93817592 93957928 94086872 94200496 94299912 94392928 94493736 
746.317 94616208 94767768 94945680 95138064 95328672 95504136 95659552 
749.692 95799496 95933696 96070168 96211112 96351736 96484120 96602096 
753.066 96706784 96805240 96908104 97023016 97150224 97283136 97412032 
756.441 97529976 97636800 97739280 97846976 97967360 98101120 98242888 
759.816 98384824 98522736 98659112 98803272 98966320 99155800 99371504 
763.191 99607072 99853656 100108304 100377800 100681216 101044920 101493648 
766.566 102046096 102705760 103459472 104273632 105097544 105868744 
769.458 106515952 106978680 107223664 107260952 107151280 107000168 
772.351 106936120 107061168 107418984 107963600 108566456 109033928 
775.244 109160104 108798304 107885688 106467976 104666624 102646744 
778.136 100558528 98496888 96498640 94545352 92590960 90585400 88498504 
781.511 86325776 84086976 81816168 79553552 77340712 75213936 73204544 
784.886 71338944 69633736 68098336 66733376 65533220 64489984 63597136 
788.261 62852220 62257392 61817536 61537596 61420676 61467816 61679720 
791.636 62058888 62611916 63348560 64278968 65408320 66730788 68224240 
795.010 69850016 71552400 73258472 74890312 76364856 77603568 78548584 
798.385 79169944 79479224 79530432 79420384 79271384 79198648 79297472 
801.760 79607800 80102152 80678096 81175440 81410928 81200560 80417960 
805.135 79020432 77063968 74690248 72095368 69491824 67041816 64837336 
808.510 62884576 61119144 59434896 57723628 55915796 53990768 51980928 
811.885 49949564 47974172 46120568 44429084 42917232 41582048 40410460 
815.259 39385844 38492912 37718636 37050228 36474948 35980656 35556220 
818.634 35194136 34890300 34642800 34450644 34311564 34221856 34178012 
822.009 34177940 34223072 34318124 34470584 34688304 34976484 35337776 
825.384 35770204 36267460 36817652 37403100 37999792 38576336 39098972 
828.759 39537228 39869864 40093832 40227436 40312536 40404856 40570348 
832.133 40875088 41369848 42084656 43017352 44128956 45336008 46514156 
835.508 47521184 48198884 48412188 48079348 47183268 45784364 44001592 
838.883 41998880 39941964 37971296 36194348 34668208 33409022 32403060 
842.258 31619992 31023314 30576246 30247914 30011566 29844796 29731772 
845.633 29661526 29628994 29632578 29672558 29747810 29854556 29986784 
849.008 30138018 30304010 30483468 30678252 30891270 31124394 31377092 
852.382 31646862 31930674 32227698 32540318 32874246 33236186 33632584 
855.757 34067760 34544308 35064692 35633684 36258780 36950968 37723624 
859.132 38589736 39562960 40657956 41889760 43276372 44833412 46568488 
862.507 48470904 50503456 52598564 54652936 56547248 58158712 59376732 
865.882 60131384 60400128 60216784 59662192 58860168 57960328 57105920 
869.256 56433396 56050888 56026836 56397776 57165252 58302532 59755372 
872.631 61446860 63281476 65136416 66875428 68358608 69446176 70030152 
876.006 70046616 69485720 68393200 66861480 65016792 62988452 60902132 
879.381 58864720 56949196 55200900 53636792 52251664 51027196 49940384 
882.756 48972764 48112740 47359008 46717708 46198616 45810284 45555936 
886.131 45433488 45436984 45559468 45796368 46147136 46614076 47200332 
889.505 47905976 48726152 49651024 50668968 51768920 52944240 54194584 
892.880 55525612 56946324 58466684 60094852 61833428 63676432 65601772 
896.255 67565528 69499992 71302592 72851104 74016784 74675528 74742632 
899.630 74184120 73026528 71349992 69277400 66959852 64542956 62164548 
903.005 59939856 57947380 56238892 54838084 53745792 52948468 52423712 
906.379 52147972 52098584 52257792 52614192 53160748 53894236 54813612 
909.754 55918172 57207244 58678080 60323448 62129264 64069824 66103384 
913.129 68176944 70226408 72184680 73998208 75631384 77077024 78355824 
916.504 79514960 80618696 81732048 82916080 84209480 85617792 87106312 
919.879 88597432 89981544 91119312 91877808 92155880 91906384 91160472 
923.254 90031680 88715320 87445736 86479848 86061184 86363248 87479048 
926.628 89390888 91975584 95001512 98156024 101109784 103520528 105101856 
930.003 105663392 105106200 103435168 100735944 97160328 92897112 88152168 
933.378 83151712 78109768 73221912 68664312 64565136 61011864 58052576 
936.753 55697228 53933476 52734644 52069596 51902540 52188364 52868824 
940.128 53857552 55038052 56277476 57423288 58332964 58898532 59051900 
943.502 58782808 58132268 57187856 56059520 54861052 53699520 52652868 
946.877 51769144 51068788 50548456 50190364 49969416 49862180 49847016 
950.252 49905328 50022280 50183220 50374136 50583336 50801652 51024740 
953.627 51253048 51490872 51743876 52017264 52313892 52634876 52979572 
957.002 53347284 53737952 54151532 54587784 55045688 55522524 56015228 
960.377 56521092 57039188 57569892 58114620 58674440 59249112 59836632 
963.751 60434592 61041760 61658332 62287028 62931224 63593760 64275400 
967.126 64975040 65690836 66421724 67169152 67937128 68731112 69555832 
970.501 70414184 71306688 72233000 73193720 74192216 75234392 76327488 
973.876 77478320 78690344 79964232 81298880 82693480 84149104 85669848 
977.251 87260376 88925008 90665616 92482176 94374432 96345192 98401408 
980.625 100555144 102819648 105206152 107720144 110359480 113114000 
983.518 115965376 118888000 121843808 124776240 127610608 130245520 
986.411 132559912 134434992 135758208 136449200 136474560 135850208 
989.304 134642208 132953808 130925384 128710744 126462608 124331304 
992.196 122438104 120871224 119686192 118901504 118509040 118482144 
995.089 118789288 119398520 120282568 121420632 122792936 124378776 
997.982 126157208 128104072 130194592 132405176 134706640 137061984 
1000.874 139423264 141723968 143886528 145832496 147486608 148797008 
1003.767 149739712 150322640 150583648 150586656 150420256 150181552 
1006.660 149977200 149914272 150081488 150550000 151364496 152540928 
1009.552 154073264 155940624 158117424 160576864 163294688 166248672 
1012.445 169412624 172756784 176249904 179859200 183555696 187312624 
1015.338 191094416 194849104 198494912 201909744 204949072 207456400 
1018.231 209288896 210357392 210639296 210196288 209160976 207736544 
1021.123 206172416 204718128 203625120 203105232 203301920 204295920 
1024.016 206090976 208627872 211792736 215443712 219432528 223602464 
1026.909 227808912 231914944 235779248 239272320 242275648 244692048 
1029.802 246463568 247570800 248030896 247882736 247178144 245970640 
1032.695 244308928 242242048 239817936 237078000 234055696 230767824 
1035.588 227213936 223381248 219257360 214844208 210167824 205280208 
1038.481 200252384 195169536 190114000 185161248 180381120 175828976 
1041.374 171548384 167566096 163883920 160475600 157286768 154248304 
1044.267 151284672 148334704 145368992 142393632 139452000 136610288 
1047.160 133951696 131557944 129496592 127822520 126568984 125748840 
1050.053 125355896 125366736 125743848 126437288 127394856 128563944 
1052.947 129894152 131342320 132864800 134411520 135925920 137336592 
1055.840 138561792 139522160 140141952 140362304 140149360 139493920 
1058.733 138415792 136961152 135207936 133258088 131228504 129252808 
1061.626 127455992 125945984 124811616 124108400 123864008 124079824 
1064.519 124735032 125787752 127174272 128815712 130611776 132446352 
1067.412 134206384 135779504 137071808 138018592 138578480 138734080 
1070.305 138485648 137844800 136831536 135471024 133796512 131845352 
1073.198 129657880 127280328 124761048 122154568 119527952 116954864 
1076.091 114518104 112306672 110398440 108861008 107742736 107066512 
1078.984 106831912 107012672 107561280 108402992 109439496 110558424 
1081.877 111629192 112524672 113143144 113415520 113328104 112922248 
1084.770 112294400 111574264 110907200 110445224 110316200 110620488 
1087.663 111423616 112745968 114562792 116800128 119348272 122058320 
1090.556 124758528 127286184 129486456 131237152 132460656 133116576 
1093.449 133202288 132744480 131794896 130421536 128699600 126712904 
1096.343 124539640 122250488 119909944 117570032 115272920 113052744 
1099.236 110929528 108909160 106979776 105113464 103269584 101403368 
1102.129 99481152 97486928 95431776 93351416 91305016 89363056 87593712 
1105.504 86061872 84818216 83896408 83317264 83087000 83199984 83639400 
1108.879 84379904 85388144 86622120 88036784 89582128 91200728 92833256 
1112.254 94411736 95860728 97107664 98081720 98724488 98999408 98890176 
1115.630 98403240 97561872 96404304 94977384 93331448 91522064 89601960 
1119.005 87617992 85610360 83607904 81628680 79685096 77785208 75938352 
1122.380 74157048 72455904 70850680 69355672 67980760 66732720 65616144 
1125.755 64635536 63798144 63115104 62599400 62264924 62123072 62179388 
1129.131 62431956 62869832 63473284 64211048 65042228 65918008 66779316 
1132.506 67568168 68232808 68734648 69059376 69218632 69250848 69210552 
1135.881 69163304 69174344 69293832 69554744 69965064 70508424 71143160 
1139.256 71807672 72431784 72936416 73248744 73311392 73081968 72539728 
1142.632 71682712 70524704 69090888 67415672 65543236 63522032 61404952 
1146.007 59248312 57102820 55014772 53023596 51157088 49436104 47873572 
1149.382 46476100 45245652 44180052 43273772 42518744 41904684 41421568 
1152.757 41059988 40812660 40675456 40645840 40723056 40905196 41189624 
1156.133 41572164 42047496 42609928 43254592 43976876 44772428 45636384 
1159.508 46563176 47546320 48579980 49657448 50771336 51912288 53065640 
1162.883 54210240 55319776 56360804 57297748 58097268 58726592 59158540 
1166.258 59372212 59351432 59087776 58581944 57844364 56894572 55760216 
1169.634 54475160 53073428 51588996 50054256 48496872 46943244 45417408 
1173.009 43939740 42529120 41201064 39966956 38835508 37812392 36900824 
1176.384 36103024 35420164 34852996 34401396 34064752 33841432 33729940 
1179.759 33729512 33840824 34066256 34409644 34874936 35465644 36183508 
1183.135 37028432 37998632 39090736 40298104 41609032 43005608 44458884 
1186.510 45929492 47371944 48732344 49957296 51000180 51820176 52389728 
1189.885 52695660 52739620 52538612 52123352 51537656 50829924 50051840 
1193.260 49255064 48482496 47770960 47148844 46633884 46236028 45956708 
1196.635 45789816 45721968 45732788 45797512 45885296 45962420 45994760 
1200.011 45945804 45782048 45475608 45005004 44361480 43550124 42592052 
1203.386 41520540 40377224 39208908 38057008 36956812 35934404 35004568 
1206.761 34174068 33443234 32808632 32264526 31804450 31421934 31110476 
1210.136 30864340 30679534 30553742 30486630 30479522 30534156 30651940 
1213.512 30832892 31075880 31378552 31738110 32150480 32610818 33112298 
1216.887 33645224 34198480 34759732 35317072 35861596 36386848 36889032 
1220.262 37366340 37817564 38242228 38641376 39018744 39381816 39741384 
1223.637 40111928 40508800 40945900 41435052 41983548 42593768 43262864 
1227.013 43982448 44738492 45510380 46274136 47002760 47669476 48253496 
1230.388 48740276 49124520 49410004 49609344 49743528 49839400 49932392 
1233.763 50063736 50276324 50617104 51129840 51851612 52813852 54038156 
1237.138 55537584 57317596 59375896 61702368 64275668 67064436 70024080 
1240.514 73096240 76218208 79320696 82332920 85190920 87831296 90195304 
1243.889 92233848 93904448 95178240 96040904 96491816 96541880 96210376 
1247.264 95524408 94516808 93225408 91694392 89966912 88079960 86060376 
1250.639 83918880 81652352 79249712 76701760 74009920 71194096 68291936 
1254.015 65359480 62464132 59671016 57043344 54631068 52464988 50558620 
1257.390 48905152 47481596 46249292 45160752 44165452 43210892 42252616 
1260.765 41257608 40204680 39087476 37912068 36694540 35456220 34221316 
1264.140 33014938 31858108 30768974 29761116 28842480 28016566 27282252 
1267.516 26634950 26067452 25571610 25140016 24766094 24444860 24172728 
1270.891 23946278 23762186 23617358 23508914 23435120 23395674 23391442 
1274.266 23423894 23494118 23601824 23745040 23919110 24116506 24327168 
1277.641 24537056 24729088 24885762 24989602 25026874 24990970 24882324 
1281.017 24708534 24481386 24214414 23919984 23607106 23283022 22953624 
1284.392 22625490 22307612 22010392 21745806 21525356 21358540 21252646 
1287.767 21213502 21245094 21351338 21535696 21800920 22147716 22574180 
1291.142 23075554 23643284 24264832 24923660 25596950 26256538 26871512 
1294.518 27408192 27838584 28144418 28320366 28376284 28334408 28227254 
1297.893 28088986 27952918 27849006 27799196 27819614 27919386 28099768 
1301.268 28353964 28665682 29012548 29365046 29692354 29967756 30169236 
1304.643 30283440 30306392 30241804 30099768 29895304 29647050 29374406 
1308.019 29096758 28831680 28592350 28387426 28221810 28096692 28012078 
1311.394 27968078 27965500 28005292 28087856 28211734 28373136 28567330 
1314.769 28789830 29037346 29308964 29605156 29926896 30275092 30649522 
1318.144 31050256 31477898 31934776 32423876 32947410 33504396 34088368 
1321.520 34687088 35281744 35848212 36361480 36796696 37133124 37359908 
1324.895 37477824 37503688 37467676 37413900 37392412 37447632 37615576 
1328.270 37912320 38333892 38856848 39446360 40064836 40677676 41261688 
1331.645 41805336 42308056 42777500 43227360 43674500 44135812 44627764 
1335.021 45162956 45748068 46382148 47055188 47751020 48447600 49120772 
1338.396 49747764 50307316 50781432 51157048 51425632 51585004 51638476 
1341.771 51594704 51465096 51261548 50996160 50678164 50315240 49913544 
1345.146 49477948 49013264 48524216 48014544 47486992 46942024 46378056 
1348.521 45791988 45181048 44545224 43889552 43226008 42573044 41956836 
1351.897 41407788 40956896 40636380 40473556 40488252 40690596 41077140 
1355.272 41627960 42305280 43059244 43830316 44554992 45178584 45654640 
1358.647 45951108 46053144 45962896 45700100 45298716 44810116 44297668 
1362.022 43826724 43463872 43259644 43239588 43401252 43715132 44132988 
1365.398 44591780 45026908 45375880 45580736 45600648 45414320 45025332 
1368.773 44459692 43760792 42980736 42165928 41355668 40579044 39853736 
1372.148 39194768 38616820 38136692 37773896 37545340 37459440 37512104 
1375.523 37687160 37962364 38314168 38725228 39186824 39698144 40265276 
1378.899 40899552 41617124 42436276 43377200 44456684 45678788 47025428 
1382.274 48444672 49855640 51144636 52182160 52848316 53034300 52667236 
1385.649 51725360 50255680 48381444 46282468 44174580 42243816 40610364 
1389.024 39323520 38367152 37688460 37218452 36893032 36655276 36456460 
1392.400 36257660 36024720 35730988 35362072 34918880 34418216 33885240 
1395.775 33344582 32811418 32288228 31769584 31250316 30732768 30232462 
1399.150 29774886 29387664 29092400 28896342 28793902 28770924 28811640 
1402.525 28903352 29038268 29214400 29432588 29694412 29999672 30345296 
1405.901 30726368 31137886 31576268 32040280 32530640 33048440 33593848 
1409.276 34164928 34757832 35367104 35988072 36616668 37250040 37885492 
1412.651 38518652 39143928 39754528 40344896 40913460 41463048 42001504 
1416.026 42538988 43085956 43651780 44243696 44867136 45525616 46216784 
1419.402 46931800 47652244 48352628 49003880 49579668 50062100 50443240 
1422.777 50730336 50946004 51126856 51313080 51537804 51820328 52162096 
1426.152 52553160 52979612 53430912 53900616 54385432 54882524 55387560 
1429.527 55896200 56406984 56925848 57466400 58045152 58678344 59374416 
1432.903 60133132 60946396 61805116 62704816 63648656 64649456 65725452 
1436.278 66894716 68162216 69517216 70937472 72392056 73845472 75253304 
1439.653 76564680 77712288 78617792 79208432 79417440 79197856 78527696 
1443.028 77406048 75854928 73915432 71652664 69147224 66485012 63759348 
1446.404 61056632 58456716 56038260 53866816 51987348 50414136 49129420 
1449.779 48092712 47258328 46594820 46092604 45763528 45627072 45695168 
1453.154 45956044 46373708 46885032 47411040 47870572 48184408 48302152 
1456.529 48224020 48016028 47783236 47622776 47595972 47719108 47983760 
1459.905 48373740 48873040 49465696 50130264 50839276 51552356 52216012 
1463.280 52775836 53180932 53403184 53449048 53360172 53198348 53019628 
1466.655 52864256 52748600 52670560 52617000 52567972 52498824 52374856 
1470.030 52152720 51782284 51214720 50424968 49432020 48311116 47170336 
1473.406 46115596 45215940 44491300 43930464 43512472 43224324 43066052 
1476.781 43045340 43166460 43422200 43791464 44245312 44752704 45290516 
1480.156 45848692 46430488 47049724 47724836 48475420 49317792 50266692 
1483.531 51339852 52558544 53947244 55526024 57301456 59252108 61316184 
1486.906 63396060 65349968 67004428 68184000 68717608 68479816 67426816 
1490.282 65614336 63195808 60375224 57365576 54330304 51363832 48511284 
1493.657 45777040 43153540 40649188 38294116 36145764 34276460 32747534 
1497.032 31590418 30797926 30338014 30166360 30240704 30528182 31000468 
1500.407 31631112 32393314 33255930 34184536 35145128 36094992 36983476 
1503.783 37747476 38294844 38507792 38252360 37412020 35956828 33993940 
1507.158 31749908 29464250 27297316 25304460 23471210 21761310 20148656 
1510.533 18625104 17203222 15904503 14745514 13733597 12862818 12118533 
1513.908 11482507 10937276 10467599 10058346 9696300 9372101 9081774 8829140 
1517.766 8621804 8465718 8359034 8289727 8236032 8175321 8092068 7989221 
1521.623 7888728 7820980 7807689 7849995 7932155 8030229 8124442 8204291 
1525.481 8273517 8345861 8438555 8562290 8716856 8893359 9080996 9273319 
1529.338 9470771 9679088 9904962 10150490 10411870 10679384 10942135 
1532.713 11194506 11440152 11692233 11964931 12266191 12592591 12932244 
1536.089 13267994 13582945 13864940 14103374 14291530 14424958 14500665 
1539.464 14517521 14478602 14394611 14281942 14158552 14036840 13918377 
1542.839 13794099 13648075 13466145 13242681 12985908 12715231 12454302 
1546.214 12220215 12015479 11829259 11643392 11441649 11216096 10972990 
1549.590 10729306 10506669 10319161 10168671 10045630 9935777 9827918 
1552.965 9718730 9614177 9525669 9463863 9431829 9423431 9423905 9414729 
1556.822 9373658 9276669 9102448 8842193 8514407 8166914 7858732 7629199 
1560.680 7485402 7411718 7382801 7373802 7362378 7333228 7279819 7205732 
1564.537 7122563 7045640 6987520 6952132 6934255 6922303 6904460 6872311 
1568.395 6824480 6766624 6709920 6666480 6644106 6646158 6672335 6720049 
1572.252 6785807 6864367 6948059 7025065 7082147 7107508 7097235 7060121 
1576.109 7017623 6996611 7015266 7076758 7172079 7286962 7408954 7530710 
1579.967 7650849 7771830 7897467 8030364 8170931 8317522 8468218 8621231 
1583.824 8774431 8924474 9065399 9188535 9284996 9347352 9373658 9368546 
1587.682 9343188 9312450 9292748 9299417 9344035 9435182 9578609 9776405 
1591.539 10026065 10317328 10631775 10941898 11214906 11420320 11533372 
1594.914 11542015 11448384 11267951 11025359 10747307 10460608 10187089 
1598.290 9943168 9742144 9593649 9503858 9475783 9508803 9599340 9742856 
1602.147 9935506 10174436 10456263 10776483 11125629 11489346 11850200 
1605.522 12187806 12481889 12715742 12874831 12949687 12935453 12832273 
1608.897 12645293 12383453 12061228 11696829 11311615 10929122 10569473 
1612.273 10246589 9966560 9726727 9518218 9328225 9144575 8957045 8761617 
1616.130 8562560 8373018 8211146 8092810 8027157 8013893 8045451 8108845 
1619.988 8189332 8273078 8348360 8409366 8457103 8499674 8549111 8616532 
1623.845 8708202 8823493 8957147 9102718 9255142 9411343 9569463 9727845 
1627.702 9883844 10034677 10179185 10318482 10456772 10598908 10748631 
1631.078 10906288 11067979 11225378 11367971 11484412 11564133 11599150 
1634.453 11586864 11532794 11451208 11362563 11288082 11239761 11220040 
1637.828 11222148 11234865 11245134 11241597 11217694 11172509 11112032 
1641.203 11046057 10985428 10936699 10900784 10871362 10837491 10786572 
1644.579 10706959 10592050 10442789 10269964 10092020 9932116 9811108 
1647.954 9741772 9727133 9761460 9833273 9925743 10016435 10078997 10080286 
1651.811 9988937 9792333 9518218 9236695 9020911 8907901 8886223 8921802 
1655.669 8978626 9031533 9067834 9083297 9080556 9064722 9040600 9010322 
1659.526 8973112 8925590 8863666 8784101 8685553 8569758 8442136 8311849 
1663.384 8189197 8084202 8003565 7948454 7914878 7894329 7874962 7843585 
1667.241 7788291 7700694 7579531 7430997 7267824 7106767 6962233 6843766 
1671.098 6754340 6691043 6646797 6610496 6569858 6510994 6422409 6300627 
1674.956 6153606 6001091 5865892 5765015 5701593 5666814 5644995 5620961 
1678.813 5585853 5539505 5489772 5447897 5422197 5412233 5407100 5386132 
1682.671 5326455 5211586 5043512 4848329 4667435 4535529 4462746 4438342 
1686.528 4441221 4452334 4457858 4451096 4430543 4398308 4358346 4315207 
1690.385 4274717 4243565 4227136 4228843 4247613 4276189 4301286 4306942 
1694.243 4277728 4206761 4102590 3989783 3899739 3852233 3848288 3869917 
1698.100 3890344 3879646 3814760 3689897 3524750 3360767 3238805 3179289 
1701.958 3175584 3206659 3247852 3279299 3288914 3271287 3229058 3171412 
1705.815 3110604 3056911 3016571 2990013 2974066 2964258 2956718 2949512 
1709.673 2943007 2939204 2940338 2947978 2962656 2982506 3005026 3027448 
1713.530 3048002 3065587 3079668 3088745 3089546 3077132 3046901 2998020 
1717.387 2936069 2873392 2825698 2804054 2811891 2844808 2893505 2947110 
1721.245 2996686 3037024 3067055 3089112 3107300 3126322 3148983 3176352 
1725.102 3207994 3242944 3279900 3316993 3351618 3380668 3400805 3410156 
1728.960 3409822 3404211 3398868 3398601 3403477 3407284 3397031 3355424 
1732.817 3268015 3130527 2958453 2783312 2642243 2558078 2531781 2548145 
1736.675 2585675 2625142 2651278 2656011 2638910 2606075 2568077 2535614 
1740.532 2515984 2511652 2520816 2539347 2563610 2590542 2618542 2647411 
1744.389 2677481 2709421 2743731 2780344 2818228 2855981 2891136 2921157 
1748.247 2943541 2955751 2955784 2942407 2915687 2878528 2836837 2798785 
1752.104 2772908 2764938 2776309 2803821 2839806 2874326 2898174 2904645 
1755.962 2892637 2866721 2836837 2813125 2801653 2802887 2811425 2819128 
1759.819 2817694 2801720 2770373 2727993 2682316 2641777 2613442 2600608 
1763.677 2602975 2617342 2639210 2663046 2682816 2693951 2693318 2681949 
1767.534 2664546 2648711 2641643 2647044 2662646 2680549 2690117 2681282 
1771.391 2649544 2598575 2540580 2491223 2461898 2456400 2470596 2496222 
1775.249 2525082 2552012 2575676 2597342 2618909 2640577 2660745 2676214 
1779.106 2684183 2684183 2678448 2671880 2669247 2672747 2681315 2691317 
1782.964 2698219 2698952 2693117 2683216 2673514 2668213 2669580 2677715 
1786.821 2691851 2710421 2732094 2756068 2780844 2803354 2819195 2823230 
1790.678 2811091 2781711 2738863 2690384 2645677 2612542 2593909 2588442 
1794.536 2591475 2598175 2605542 2611942 2617275 2622109 2626142 2628343 
1798.393 2626976 2620742 2609042 2592809 2574343 2556178 2540813 2529682 
1802.251 2523116 2521016 2523183 2529148 2538813 2551645 2566777 2583442 
1806.108 2600908 2618575 2636276 2653111 2668413 2680182 2686483 2685916 
1809.966 2678681 2666213 2652111 2640277 2634076 2634676 2641643 2652744 
1813.823 2665379 2677381 2688217 2698519 2710088 2724225 2742264 2763871 
1817.680 2788447 2814593 2841240 2867555 2893772 2919823 2946043 2972565 
1821.538 2999021 3024211 3046300 3063117 3072694 3074596 3070358 3064085 
1825.395 3060915 3065253 3079001 3100125 3123619 3141741 3147882 3138036 
1829.253 3113640 3081570 3051706 3034221 3035022 3054608 3088445 3130160 
1833.110 3173414 3213502 3248553 3278632 3305374 3330215 3354790 3380268 
1836.968 3407851 3439210 3476316 3521543 3576362 3641212 3715061 3795240 
1840.825 3877941 3959220 4034059 4098175 4149320 4187725 4217768 4247111 
1844.682 4285023 4337830 4407145 4488992 4575274 4656617 4724274 4772981 
1848.540 4801524 4812948 4811273 4801055 4784438 4761222 4729734 4688669 
1852.397 4637594 4579192 4516478 4452770 4389573 4326720 4262671 4196256 
1856.255 4127510 4058139 3990986 3928659 3871923 3820042 3770707 3721979 
1860.112 3673156 3625341 3580605 3541085 3507914 3480859 3458648 3440813 
1863.969 3427956 3421710 3423647 3433533 3448662 3463324 3470973 3465996 
1867.827 3446692 3416267 3381637 3351451 3332953 3328078 3335457 3350249 
1871.684 3367545 3383474 3395462 3402675 3405013 3403009 3396764 3387214 
1875.542 3375994 3364807 3355391 3348613 3343470 3337560 3328245 3313220 
1879.399 3292019 3266213 3239072 3213969 3193474 3178354 3167907 3160831 
1883.257 3155525 3151319 3147715 3144744 3141607 3137269 3130093 3119113 
1887.114 3104163 3086142 3066788 3048035 3031619 3019040 3011599 3010632 
1890.971 3017171 3031986 3053908 3079969 3106098 3126989 3139004 3140873 
1894.829 3135233 3126489 3120649 3121616 3130761 3146180 3165037 3183895 
1898.686 3201452 3217741 3234065 3251390 3269785 3287913 3304005 3317026 
1902.544 3327310 3336192 3345808 3356560 3368380 3379266 3387080 3390553 
1906.401 3390854 3389919 3390586 3394193 3400237 3406081 3408786 3406182 
1910.259 3398734 3388549 3379734 3375660 3378164 3387581 3402642 3421644 
1914.116 3442817 3464727 3485435 3501969 3510921 3508649 3494086 3468701 
1917.973 3438275 3410456 3391254 3383273 3384375 3388349 3388082 3378364 
1921.831 3357995 3330449 3302703 3281302 3271187 3273390 3284808 3301301 
1925.688 3318295 3333086 3344372 3351651 3354356 3351885 3343704 3330449 
1929.546 3314355 3298663 3286978 3281569 3282938 3289415 3298396 3307911 
1933.403 3317260 3326609 3336792 3347778 3357762 3364206 3364740 3358463 
1937.260 3347010 3334255 3324038 3319096 3319597 3323069 3326342 3327543 
1941.118 3326509 3326175 3329981 3340833 3358763 3382038 3406816 3430727 
1944.975 3452970 3474045 3495555 3517869 3539782 3558289 3570816 3575794 
1948.833 3574257 3570081 3566741 3567676 3573589 3582543 3591229 3597777 
1952.690 3601285 3603056 3604693 3606931 3607566 3603757 3590962 3566607 
1956.548 3530662 3487172 3442183 3402708 3374825 3362436 3367345 3389017 
1960.405 3425551 3474312 3530529 3587788 3638439 3674960 3692671 3691368 
1964.262 3674526 3648830 3621131 3596842 3577398 3562464 3549770 3538245 
1968.120 3528224 3521810 3520641 3524883 3533368 3542855 3550973 3557654 
1971.977 3564903 3576663 3596107 3624405 3660157 3700624 3744671 3793602 
1975.835 3851631 3923343 4010850 4111186 4215426 4311024 4386862 4435028 
1979.692 4453305 4445372 4417287 4375749 4326485 4273914 4221114 4170998 
1983.550 4127075 4091050 4064159 4044862 4029745 4015365 3999581 3981924 
1987.407 3965673 3954873 3951596 3956411 3967145 3979383 3990619 3999414 
1991.264 4007506 4018274 4033859 4054427 4077437 4098978 4115468 4125369 
1995.122 4130621 4133497 4137144 4141693 4145038 4143600 4134367 4116572 
1998.979 4092990 4069109 4050815 4042287 4044895 4055798 4070313 4082956 
2002.837 4089612 4087705 4077337 4060012 4039276 4019077 4004195 3999012 
2006.694 4007038 4028742 4061350 4099446 4135839 4165043 4185684 4199735 
2010.552 4212449 4229111 4253703 4285324 4320428 4353459 4379967 4397338 
2014.409 4406208 4407848 4404367 4397304 4387163 4375884 4367483 4367181 
2018.266 4382343 4417086 4471416 4539647 4611875 4676712 4724810 4752546 
2022.124 4760619 4754556 4741291 4726887 4715230 4708531 4707660 4713053 
2025.981 4726049 4746115 4770803 4797202 4820487 4837071 4846687 4852920 
2029.839 4861665 4879591 4910923 4956433 5011802 5071603 5128764 5179193 
2033.696 5220237 5251895 5275372 5293148 5306028 5317600 5329709 5344837 
2037.553 5363924 5385998 5408509 5427699 5440281 5445045 5443502 5439744 
2041.411 5436859 5437161 5438771 5437664 5428605 5409482 5380731 5347789 
2045.268 5318137 5298950 5294993 5308342 5336283 5375497 5421358 5469103 
2049.126 5513094 5547526 5565011 5560144 5530377 5478129 5411763 5343495 
2052.983 5286742 5251962 5243209 5257664 5286507 5319512 5346950 5364427 
2056.841 5371371 5371136 5366977 5362079 5357718 5354732 5353659 5356577 
2060.698 5365433 5381972 5406227 5435718 5466754 5495410 5519269 5538599 
2064.555 5554942 5570078 5584477 5596660 5603507 5602030 5591122 5571622 
2068.413 5546787 5520208 5494739 5471083 5448501 5425519 5401396 5377477 
2072.270 5356075 5339906 5330648 5327931 5329541 5332728 5335646 5337960 
2076.128 5341315 5348057 5359395 5375095 5393445 5411394 5426625 5437463 
2079.985 5444139 5447797 5449776 5450884 5451353 5451252 5450011 5448166 
2083.843 5445717 5442697 5438838 5433101 5424478 5412602 5398746 5384018 
2087.700 5370835 5360066 5351546 5343092 5332661 5318069 5298984 5277284 
2091.557 5256054 5238749 5228319 5225436 5229996 5240560 5255417 5273024 
2095.415 5292377 5311931 5330145 5345172 5356075 5362716 5367312 5372344 
2099.272 5380865 5393915 5410790 5428571 5444475 5456352 5464540 5471787 
2103.130 5482457 5499738 5525343 5557963 5594009 5629487 5661074 5687460 
2106.987 5709449 5728922 5747522 5766123 5784658 5802253 5818708 5834155 
2110.844 5849335 5864380 5879090 5892256 5902568 5908983 5911770 5912140 
2114.702 5912543 5914525 5919127 5925979 5933603 5940221 5945696 5950398 
2118.559 5955841 5964070 5976198 5992423 6011976 6033713 6056257 6079072 
2122.417 6101384 6122218 6140264 6154211 6162948 6166443 6166376 6165133 
2126.274 6165704 6170275 6178643 6189734 6200288 6207380 6209060 6205296 
2130.132 6196961 6186945 6178341 6173871 6176224 6188222 6210741 6244454 
2133.989 6287449 6335961 6383638 6424595 6453718 6468751 6471172 6464681 
2137.846 6453852 6442721 6432699 6424259 6416827 6410539 6406773 6408117 
2141.704 6416390 6431657 6451700 6472383 6489266 6500601 6505814 6507328 
2145.561 6506924 6505208 6499693 6487584 6465186 6431959 6390296 6345980 
2149.419 6303249 6264489 6227581 6187314 6137105 6073763 5997529 5913450 
2153.276 5828614 5747992 5673595 5604414 5539102 5481619 5442462 5438402 
2157.134 5488330 5604850 5786169 6013454 6253967 6472282 6638386 6737850 
2160.991 6771975 6753903 6702147 6634248 6563601 6498414 6441779 6394129 
2164.848 6354755 6322143 6293163 6265228 6235816 6202708 6166040 6126822 
2168.706 6086330 6044699 6000553 5950500 5892391 5825458 5751820 5678194 
2172.563 5613039 5563366 5534101 5525242 5532558 5549069 5567125 5580617 
2176.421 5585416 5579207 5560681 5529672 5487759 5436691 5381133 5326388 
2180.278 5277284 5237709 5209306 5190762 5179864 5174231 5173224 5176577 
2184.135 5185229 5198307 5213430 5226441 5233819 5232880 5225234 5214101 
2187.993 5206153 5206153 5217387 5239319 5269570 5303479 5337356 5368520 
2191.850 5395358 5416997 5433671 5445146 5451521 5454373 5456051 5458903 
2195.708 5465043 5474740 5486417 5496752 5502255 5500745 5492055 5478532 
2199.565 5463063 5448971 5437966 5430014 5424948 5422063 5421794 5424747 
2203.423 5431625 5442294 5455413 5468667 5480310 5489538 5498396 5509369 
2207.280 5525947 5549439 5578603 5609247 5636703 5655837 5663692 5660469 
2211.137 5648251 5630494 5610455 5591122 5574106 5560715 5551385 5546653 
2214.995 5546049 5548633 5552459 5555714 5557023 5555848 5553029 5550244 
2218.852 5547895 5546116 5543297 5537390 5527122 5512759 5496249 5481283 
2222.710 5470479 5464607 5461721 5458198 5449609 5433202 5408643 5378315 
2226.567 5346011 5316627 5292678 5275875 5266048 5262125 5262661 5267356 
2230.425 5274098 5281308 5286474 5287010 5281912 5271817 5259475 5249682 
2234.282 5246563 5252600 5267289 5287949 5309550 5328031 5341147 5349097 
2238.139 5353994 5359295 5367681 5380697 5398545 5420754 5446052 5473968 
2241.997 5503900 5535176 5566588 5596962 5624284 5647512 5665975 5679604 
2245.854 5689038 5694543 5696222 5694543 5689541 5682055 5673629 5666177 
2249.712 5661577 5661343 5665908 5674837 5687695 5703272 5721099 5740538 
2253.569 5760986 5780998 5798660 5811992 5819044 5818708 5810850 5796411 
2257.427 5776499 5752491 5725866 5698169 5671212 5646908 5626533 5611194 
2261.284 5600654 5593438 5587363 5580751 5572394 5563165 5555278 5550781 
2265.141 5551586 5557862 5567561 5578133 5586558 5590384 5589578 5584778 
2268.999 5577697 5570179 5564339 5560883 5560849 5564574 5572092 5582362 
2272.856 5594009 5604011 5609985 5609952 5604245 5594579 5584913 5578805 
2276.714 5579006 5585584 5596559 5608072 5617067 5621632 5622337 5621498 
2280.571 5622337 5627271 5637442 5651708 5668593 5685747 5701593 5714921 
2284.428 5725766 5733588 5738591 5740270 5738994 5734998 5729660 5724456 
2288.286 5720528 5718044 5716365 5714183 5710691 5705924 5700754 5697229 
2292.143 5697330 5702063 5711228 5722979 5735502 5746683 5755681 5763001 
2296.001 5769951 5777472 5785867 5794396 5801649 5806048 5806518 5803395 
2299.858 5797888 5792045 5788150 5787479 5790903 5798291 5808701 5820790 
2303.716 5833014 5843726 5851686 5855749 5855816 5852122 5846077 5839361 
2307.573 5833685 5830260 5829588 5831066 5833887 5836976 5839495 5841611 
2311.430 5843592 5845909 5849167 5853264 5857630 5861861 5864951 5866664 
2315.288 5866798 5865892 5864380 5862869 5862164 5862466 5864448 5869015 
2319.145 5876874 5889233 5907035 5930144 5957890 5987720 6015436 6035762 
2323.003 6043120 6033041 6003106 5954195 5889939 5816592 5741042 5669902 
2326.860 5608206 5558433 5520645 5493061 5473398 5459238 5448702 5441422 
2330.718 5437161 5436121 5438469 5444207 5453265 5465613 5481316 5500175 
2334.575 5521517 5544103 5566722 5587967 5607266 5624653 5641168 5657817 
2338.432 5675576 5694744 5714753 5734797 5754103 5772369 5789460 5805544 
2342.290 5820353 5832174 5840032 5842685 5841040 5837749 5837984 5847286 
2346.147 5871265 5912745 5971864 6045573 6129006 6216757 6302745 6382461 
2350.005 6452507 6510287 6555124 6587149 6607905 6619950 6626207 6629605 
2353.862 6632398 6635997 6640607 6646192 6652113 6658001 6664226 6671292 
2357.719 6679972 6690942 6704267 6719309 6735529 6751749 6767263 6781331 
2361.577 6794154 6805799 6817176 6829629 6844406 6862987 6886214 6913819 
2365.434 6944928 6977149 7007925 7034763 7055912 7070831 7080463 7086357 
2369.292 7090566 7095013 7101378 7110202 7122395 7138259 7157931 7181308 
2373.149 7207888 7237198 7268397 7300744 7333800 7367534 7402618 7439795 
2377.007 7479840 7523462 7571371 7623568 7680357 7741505 7806710 7875467 
2380.864 7946733 8019327 8091966 8163436 8232554 8298914 8362276 8422473 
2384.721 8479503 8533330 8583817 8630525 8673215 8711515 8745220 8773857 
2388.579 8797186 8815040 8827550 8835362 8839319 8840874 8841178 8841009 
2392.436 8840806 8840366 8839217 8837121 8834212 8831000 8828633 8828126 
2396.294 8830459 8835970 8844458 8855821 8869787 8886594 8906616 8930461 
2400.151 8958838 8991345 9028049 9068004 9110196 9154050 9199128 9245562 
2404.009 9294000 9345321 9400372 9460037 9524822 9594733 9669093 9747093 
2407.866 9827478 9909810 9993514 10079235 10167721 10260126 10356927 
2411.241 10457756 10561222 10664986 10766225 10862392 10951752 11033346 
2414.616 11107239 11173733 11233334 11286620 11333211 11373413 11407224 
2417.992 11434879 11457196 11475363 11490162 11502648 11513604 11523062 
2421.367 11531161 11537897 11542866 11546030 11547630 11548242 11548957 
2424.742 11551134 11556612 11566957 11583563 11607657 11639920 11681206 
2428.117 11731992 11792692 11863752 11944599 12034078 12130186 12230269 
2431.493 12331669 12432446 12531712 12630044 12729219 12831693 12939686 
2434.868 13054910 13178363 13310152 13449637 13595765 13747414 13903016 
2438.243 14061446 14221543 14382898 14545683 14710963 14880009 15054610 
2441.618 15235354 15422388 15615169 15812365 16012849 16216144 16422078 
2444.994 16631553 16844918 17062422 17283032 17505238 17726834 17945298 
2448.369 18159238 18367860 18571120 18770182 18966186 19160548 19354234 
2451.744 19547486 19739612 19928874 20113186 20289314 20454710 20607384 
2455.119 20746382 20871658 20983964 21083918 21171544 21246104 21305920 
2458.495 21348866 21373334 21377894 21362090 21325860 21269798 21194504 
2461.870 21100788 20989632 20862654 20722054 20569930 20409110 20242618 
2465.245 20072860 19903204 19736354 19575736 19424844 19286924 19164634 
2468.620 19059790 18973144 18904754 18854400 18821840 18807444 18811148 
2471.996 18833224 18872500 18926764 18993150 19067890 19147736 19230122 
2475.371 19313702 19397644 19481500 19564366 19644960 19721200 19790830 
2478.746 19852388 19904660 19947572 19981224 20006030 20022060 20029452 
2482.121 20027924 20017308 19997946 19970088 19934494 19891792 19843198 
2485.497 19789756 19733094 19674740 19616742 19560242 19506280 19454678 
2488.872 19404470 19353750 19300540 19242936 19179662 19109924 19033514 
2492.247 18950126 18860006 18763642 18661146 18553344 18441008 18324726 
2495.622 18205192 18082512 17956346 17826386 17692148 17553192 17409864 
2498.998 17262552 17111464 16957428 16801212 16643500 16485192 16327733 
2502.373 16172258 16020035 15871886 15728049 15588345 15452807 15321224 
2505.748 15194415 15073339 14959292 14853333 14755798 14666133 14583100 
2509.123 14505153 14430884 14359780 14291975 14227774 14167657 14111588 
2512.499 14058948 14008504 13959435 13910953 13863264 13817495 13775151 
2515.874 13738112 13707950 13685551 13671429 13664727 13664453 13668762 
2519.249 13675909 13684320 13692732 13700939 13709317 13718926 13731170 
2522.624 13746867 13766464 13788900 13813082 13837129 13859808 13880300 
2526.000 13898431 13914820 13929702 13943286 13955124 13964534 13970727 
2529.375 13973122 13971753 13966997 13959332 13949273 13936990 13922141 
2532.750 13904693 13884610 13862511 13839523 13817221 13797109 13780246 
2536.125 13767079 13757126 13749637 13743036 13736299 13728707 13719953 
2539.500 13710172 13699844 13689586 13679738 13670745 13662778 13656008 
2542.876 13650708 13646947 13644828 13643973 13644212 13644485 13644143 
2546.251 13642400 13638775 13633510 13627150 13620449 13614193 13608893 
2549.626 13604654 13601235 13598226 13595150 13591833 13588449 13584860 
2553.001 13581509 13578535 13575595 13572962 13570604 13568279 13566262 
2556.377 13564279 13561818 13558331 13553203 13545854 13535941 13524318 
2559.752 13510919 13496632 13481081 13463957 13443998 13420417 13392635 
2563.127 13361163 13327543 13293787 13262290 13234790 13211904 13193220 
2566.502 13177885 13164496 13151689 13138983 13126143 13113200 13100736 
2569.878 13089330 13079530 13072290 13068739 13069832 13076319 13088373 
2573.253 13105243 13126006 13148854 13172215 13194928 13216208 13235644 
2576.628 13252895 13267960 13280566 13290747 13299287 13306872 13315619 
2580.003 13327338 13343635 13365674 13393421 13426124 13462009 13499673 
2583.379 13537548 13574979 13611868 13649032 13687329 13727955 13771902 
2586.754 13819513 13870892 13924741 13979692 14033965 14085814 14133768 
2590.129 14177722 14218427 14257254 14296221 14337143 14380980 14427938 
2593.504 14477095 14527011 14576007 14622713 14665824 14705171 14741195 
2596.880 14774686 14807083 14840133 14875140 14913237 14954937 14999866 
2600.255 15047200 15095912 15144903 15193489 15241771 15290127 15339484 
2603.630 15390597 15444223 15500534 15559874 15622038 15686994 15755018 
2607.005 15825871 15899450 15975447 16053144 16132090 16211981 16292369 
2610.381 16373010 16454013 16534720 16614374 16691910 16765980 16835756 
2613.756 16900654 16960910 17017108 17070038 17120390 17168612 17214632 
2617.131 17257898 17297756 17333892 17366136 17394828 17420936 17445356 
2620.506 17469330 17493786 17519382 17546430 17574686 17603876 17633758 
2623.882 17663988 17694634 17726108 17758622 17792866 17829008 17866950 
2627.257 17906174 17945918 17985460 18024210 18062238 18099854 18137888 
2630.632 18177102 18218358 18262172 18308482 18357112 18407198 18458052 
2634.007 18508462 18557874 18605356 18650976 18695076 18738388 18781980 
2637.383 18826960 18874298 18924340 18976572 19030466 19084510 19137728 
2640.758 19189082 19238330 19286026 19332998 19380286 19429244 19480772 
2644.133 19535182 19592372 19651894 19712878 19774462 19836192 19897584 
2647.508 19958708 20020396 20082680 20146816 20212940 20281536 20352368 
2650.884 20425154 20499344 20574134 20649252 20724278 20799178 20874300 
2654.259 20950304 21027538 21106910 21188728 21273000 21359620 21448032 
2657.634 21537506 21627488 21717556 21807296 21896774 21985960 22074638 
2661.009 22162604 22249330 22334400 22417498 22498414 22577636 22655578 
2664.385 22733048 22810670 22889250 22969274 23050748 23133424 23216744 
2667.760 23300186 23382876 23464426 23544698 23623970 23703046 23782836 
2671.135 23864288 23948168 24034624 24123162 24213014 24303236 24393124 
2674.510 24482262 24570716 24658628 24746592 24834608 24922642 25010730 
2677.885 25098904 25186854 25275276 25364348 25454564 25546238 25639478 
2681.261 25734426 25831470 25931350 26035260 26144688 26261218 26386052 
2684.636 26519518 26661444 26810640 26965636 27125132 27287756 27452802 
2688.011 27619892 27789094 27960870 28135472 28313010 28494086 28678566 
2691.386 28866206 29057148 29251224 29448296 29648434 29851966 30059182 
2694.762 30270436 30486274 30706914 30932290 31162234 31396288 31633750 
2698.137 31874050 32116372 32359902 32604248 32848872 33093564 33338248 
2701.512 33582820 33827248 34071704 34315616 34558516 34799792 35038508 
2704.887 35273408 35503572 35727460 35943908 36151452 36349160 36535888 
2708.263 36711088 36874352 37025364 37163908 37289680 37402736 37503076 
2711.638 37591332 37668364 37735732 37794824 37847024 37892612 37931520 
2715.013 37962580 37984280 37994872 37993284 37978600 37951008 37910692 
2718.388 37858812 37796704 37725792 37647988 37565536 37480644 37395912 
2721.764 37313764 37236356 37165856 37104104 37052500 37012124 36983548 
2725.139 36966700 36961108 36965976 36980340 37003572 37035400 37076284 
2728.514 37127096 37188672 37261376 37345212 37439468 37542848 37654020 
2731.889 37771620 37894532 38021744 38152212 38284964 38418840 38552944 
2735.265 38686324 38818372 38948936 39077980 39204920 39329688 39451588 
2738.640 39570076 39684596 39795268 39902156 40005760 40106876 40205916 
2742.015 40303628 40400712 40497964 40596976 40698964 40805420 40917392 
2745.390 41035224 41158696 41286652 41418284 41551748 41685980 41819560 
2748.766 41951144 42078744 42200908 42315724 42421624 42517904 42604116 
2752.141 42680616 42747884 42806828 42857984 42902348 42940644 42973380 
2755.516 43001220 43024124 43041756 43052988 43056280 43049624 43031328 
2758.891 43000452 42956332 42899056 42828620 42745364 42648964 42539388 
2762.267 42416180 42279384 42129636 41968112 41796468 41616872 41431444 
2765.642 41242452 41052048 40862532 40676076 40494760 40320684 40155432 
2769.017 40000636 39857588 39727476 39611088 39509032 39421544 39348480 
2772.392 39288736 39240932 39203288 39173732 39150200 39131492 39115972 
2775.768 39103032 39091464 39080372 39067896 39052276 39031104 39001452 
2779.143 38961220 38908344 38841596 38760984 38667272 38561996 38447692 
2782.518 38327016 38202136 38076172 37950828 37827940 37709056 37594980 
2785.893 37486276 37382372 37282460 37184736 37086964 36987228 36884052 
2789.269 36776176 36663716 36546992 36426876 36304164 36179904 36055140 
2792.644 35930804 35808052 35688576 35573516 35464456 35362180 35267476 
2796.019 35180408 35101012 35029676 34966824 34912960 34868828 34834616 
2799.394 34810276 34795340 34788804 34789524 34796416 34808516 34824668 
2802.770 34844344 34866784 34891556 34918276 34946644 34976772 35008520 
2806.145 35041600 35075648 35109816 35142720 35173260 35199992 35221804 
2809.520 35237940 35247924 35251736 35249580 35241496 35227588 35207572 
2812.895 35180768 35146564 35104136 35052916 34992860 34925168 34851564 
2816.271 34774880 34698356 34625504 34559448 34502944 34458032 34426572 
2819.646 34409824 34409360 34426464 34462300 34517508 34592208 34685796 
2823.021 34796276 34921828 35059376 35205776 35357760 35511880 35664728 
2826.396 35813272 35954380 36085600 36205080 36310868 36401836 36477144 
2829.771 36536252 36578964 36605960 36618580 36618432 36607692 36588548 
2833.147 36562452 36531060 36495380 36456460 36415492 36373984 36333092 
2836.522 36294152 36257444 36222836 36189772 36157796 36126752 36097804 
2839.897 36072528 36053552 36043940 36046136 36062520 36095176 36146236 
2843.272 36218440 36315116 36440172 36597888 36792120 37025512 37298780 
2846.648 37609468 37951804 38315364 38685888 39045532 39373220 39648080 
2850.023 39851412 39968704 39992060 39921004 39762844 39529716 39238500 
2853.398 38908128 38556492 38201052 37857040 37535804 37246284 36993904 
2856.773 36780864 36605924 36466048 36356152 36270236 36202376 36147384 
2860.149 36100360 36057768 36016224 35973024 35926272 35874444 35816332 
2863.524 35752140 35682852 35610268 35537088 35467188 35404848 35354416 
2866.899 35320016 35305140 35311968 35341512 35393492 35466828 35559420 
2870.274 35668828 35792040 35925332 36064176 36203852 36339252 36465648 
2873.650 36580084 36680804 36768208 36844052 36911032 36971892 37028324 
2877.025 37082272 37134096 37184664 37234804 37285528 37338748 37396276 
2880.400 37459584 37529808 37607372 37691892 37782608 37878152 37976536 
2883.775 38075488 38172252 38263688 38346596 38418224 38476800 38521444 
2887.151 38553304 38574524 38588900 38601032 38616100 38639164 38675168 
2890.526 38728848 38805036 38908996 39047164 39227804 39460332 39756524 
2893.901 40128972 40589776 41149772 41815656 42587592 43456288 44401888 
2897.276 45391696 46379196 47311380 48128952 48773528 49199512 49375776 
2900.652 49292736 48962264 48416188 47701056 46866576 45965696 45045140 
2904.027 44140800 43281644 42487024 41768744 41134000 40585556 40123124 
2907.402 39744580 39446328 39224500 39075152 38995472 38983224 39036216 
2910.777 39152124 39327072 39555304 39829408 40139476 40473920 40820668 
2914.153 41166200 41496804 41799968 42063852 42279204 42440220 42544324 
2917.528 42592896 42590152 42542644 42457212 42340272 42196924 42030048 
2920.903 41841052 41630404 41398348 41146564 40878764 40600580 40320536 
2924.278 40048340 39793200 39563832 39367232 39206876 39084360 38999064 
2927.654 38948428 38929036 38936428 38965280 39009424 39062388 39117532 
2931.029 39168584 39210432 39239012 39251668 39246084 39220984 39174896 
2934.404 39106836 39016352 38903852 38771020 38620444 38455804 38281452 
2937.779 38101568 37920924 37744224 37576664 37423468 37289608 37179396 
2941.155 37095696 37038788 37006928 36996104 36999964 37010572 37018944 
2944.530 37015440 36989572 36931960 36834640 36692092 36502876 36269944 
2947.905 36000960 35705984 35398056 35089840 34792436 34514712 34262332 
2951.280 34038088 33842112 33672864 33527806 33403334 33296104 33202886 
2954.656 33120702 33047616 32981836 32922354 32868348 32819246 32774758 
2958.031 32735028 32700158 32670754 32647538 32631070 32621320 32618568 
2961.406 32622282 32631784 32646966 32667686 32694050 32726380 32764968 
2964.781 32809704 32860630 32917742 32980726 33050154 33126316 33209398 
2968.156 33299360 33396068 33498850 33607632 33722960 33845908 33978424 
2971.532 34122704 34279900 34450176 34632072 34822268 35015920 35207140 
2974.907 35389248 35555208 35697600 35809564 35884376 35916768 35903524 
2978.282 35843964 35740592 35598368 35425448 35230892 35025004 34818100 
2981.657 34618940 34434716 34270292 34127436 34005084 33899464 33805220 
2985.033 33715796 33624888 33527770 33420902 33303152 33174954 33037890 
2988.408 32894008 32744818 32590996 32431908 32265454 32088402 31897798 
2991.783 31691130 31468138 31230698 30983316 30732450 30484640 30245998 
2995.158 30020124 29808030 29608172 29417516 29232794 29051054 28870524 
2998.534 28690920 28512380 28335608 28160750 27987870 27817142 27648882 
3001.909 27483902 27323250 27168340 27020148 26879620 26746818 26621598 
3005.284 26503776 26392954 26288604 26190438 26097536 26008946 25923716 
3008.659 25841174 25760690 25682678 25607880 25536714 25470058 25408154 
3012.035 25350542 25296806 25245916 25197036 25149600 25103154 25057518 
3015.410 25013186 24970894 24931556 24896290 24866360 24841976 24823240 
3018.785 24809172 24798298 24788966 24779774 24769988 24759674 24749538 
3022.160 24739962 24731682 24724810 24718986 24714216 24710674 24709166 
3025.536 24711480 24719828 24736244 24762446 24798964 24844608 24896746 
3028.911 24952120 25006062 25054008 25092480 25118600 25131274 25130782 
3032.286 25118846 25097468 25069068 25035826 24999288 24960928 24922044 
3035.661 24883938 24847976 24815276 24786544 24762060 24741400 24723582 
3039.037 24708112 24694820 24683878 24676092 24672200 24672584 24676758 
3042.412 24683808 24692506 24701694 24710884 24720072 24729824 24740908 
3045.787 24753712 24768374 24784826 24802928 24822468 24843730 24866886 
3049.162 24891974 24919344 24948224 24978090 25008414 25038740 25068750 
3052.538 25098416 25127552 25155814 25183062 25209184 25234364 25259718 
3055.913 25286690 25316612 25350788 25389604 25432360 25478208 25525576 
3059.288 25573368 25621166 25669004 25717340 25766842 25818036 25871138 
3062.663 25926072 25983232 26042404 26104046 26168266 26235030 26303810 
3066.039 26373976 26444436 26514588 26583836 26651826 26718452 26783610 
3069.414 26847050 26908420 26967294 27023390 27076778 27127460 27175852 
3072.789 27222450 27267854 27312348 27356278 27400178 27444120 27488418 
3076.164 27532934 27577734 27622788 27668304 27714390 27761472 27810076 
3079.540 27859994 27911294 27963168 28014940 28066012 28116276 28166158 
3082.915 28216506 28268168 28321958 28377876 28435536 28494156 28552788 
3086.290 28611142 28669080 28726990 28785474 28845418 28907320 28971566 
3089.665 29038550 29108486 29181478 29257676 29336792 29418084 29500848 
3093.041 29584336 29668016 29751714 29835498 29919796 30004820 30090820 
3096.416 30177652 30265286 30353646 30442984 30533088 30624240 30715840 
3099.791 30807388 30897994 30986696 31073532 31158568 31242446 31326092 
3103.166 31410110 31494644 31579618 31664788 31750120 31835720 31922366 
3106.542 32010708 32101422 32194510 32289584 32385926 32482930 32579996 
3109.917 32677184 32774508 32872028 32969430 33066064 33161472 33255144 
3113.292 33347550 33439156 33531204 33624636 33719664 33816072 33912828 
3116.667 34008844 34103208 34195652 34286532 34376756 34467428 34559160 
3120.042 34652348 34746844 34842296 34937952 35033408 35128096 35221876 
3123.418 35314376 35405676 35495952 35585456 35674544 35764048 35854472 
3126.793 35946496 36040416 36136944 36235872 36337128 36440280 36544360 
3130.168 36648212 36750972 36851556 36950032 37047016 37143912 37241844 
3133.543 37342072 37445032 37549964 37655864 37761248 37865356 37968004 
3136.919 38069664 38171312 38273564 38376784 38480636 38584156 38686940 
3140.294 38788480 38888920 38989308 39090232 39192628 39296824 39402748 
3143.669 39509936 39618312 39727548 39837540 39948428 40060184 40172292 
3147.044 40284292 40395840 40505780 40614440 40721384 40826896 40931444 
3150.420 41035916 41140992 41247444 41355924 41466696 41579680 41694080 
3153.795 41808760 41922824 42035488 42146356 42256012 42365440 42475444 
3157.170 42586460 42698240 42809972 42920600 43029060 43134844 43238596 
3160.545 43341352 43444608 43549940 43658672 43770944 43886436 44004452 
3163.921 44123416 44241828 44358436 44471952 44582124 44688872 44792960 
3167.296 44895424 44997216 45098992 45200972 45303020 45404572 45505156 
3170.671 45604436 45702528 45799536 45895828 45991296 46085272 46177316 
3174.046 46266320 46351732 46433432 46511724 46587628 46662256 46736972 
3177.422 46812984 46891380 46972852 47057256 47144004 47232136 47320028 
3180.797 47406384 47489912 47570164 47647588 47722988 47797368 47871500 
3184.172 47945940 48020724 48095560 48170304 48245052 48320296 48396888 
3187.547 48475348 48556264 48639680 48724932 48811080 48897292 48982292 
3190.923 49065012 49144628 49220776 49293220 49362448 49429608 49496000 
3194.298 49562732 49630776 49700060 49770316 49840512 49909940 49978376 
3197.673 50045816 50112708 50179836 50247344 50315016 50382508 50449416 
3201.048 50515588 50581440 50647488 50713948 50780984 50847768 50913664 
3204.424 50977676 51039904 51100540 51160404 51220424 51280488 51340004 
3207.799 51398144 51453760 51506652 51557692 51608436 51660572 51715360 
3211.174 51772764 51831488 51889996 51946608 52000756 52053124 52105232 
3214.549 52158732 52214408 52272028 52330372 52387828 52443156 52496432 
3217.925 52548712 52602000 52658256 52719040 52784404 52853368 52924440 
3221.300 52995672 53065528 53133300 53198648 53261688 53323380 53384448 
3224.675 53445676 53508148 53572728 53640168 53710544 53783816 53859200 
3228.050 53935500 54011064 54084688 54155172 54222252 54286112 54348068 
3231.426 54409916 54473392 54540148 54610852 54685032 54761288 54837824 
3234.801 54912600 54984388 55053172 55119676 55185208 55251096 55318420 
3238.176 55387408 55458632 55532464 55609472 55690676 55776340 55865748 
3241.551 55957364 56047948 56134472 56214456 56287284 56354240 56418376 
3244.927 56484072 56554644 56632324 56717608 56809328 56905676 57004464 
3248.302 57104068 57203352 57301492 57397720 57491252 57581620 57668412 
3251.677 57752236 57833800 57913948 57993652 58073448 58153180 58232700 
3255.052 58311856 58390608 58469488 58548728 58628400 58707932 58786868 
3258.427 58864264 58939780 59013524 59086064 59158504 59231412 59304752 
3261.803 59378060 59450320 59520544 59588076 59652688 59714088 59772184 
3265.178 59826936 59877744 59924716 59968080 60009204 60049800 60091540 
3268.553 60136176 60183976 60234828 60287356 60339968 60391216 60439848 
3271.928 60485240 60527328 60566524 60603472 60639172 60675024 60711836 
3275.304 60750168 60789996 60830548 60870340 60907776 60942280 60974076 
3278.679 61004584 61035776 61069752 61107624 61149808 61195356 61242928 
3282.054 61291344 61339540 61387356 61435220 61482968 61531072 61579176 
3285.429 61627136 61675176 61723868 61773944 61826588 61882176 61941212 
3288.805 62003200 62067756 62134348 62203360 62274792 62349524 62427520 
3292.180 62509284 62594348 62682576 62773764 62867956 62965544 63066944 
3295.555 63172088 63280784 63392728 63507268 63624220 63743844 63866116 
3298.930 63991144 64118824 64248540 64379796 64512008 64645492 64780904 
3302.306 64919472 65062248 65210104 65363296 65521656 65684752 65852216 
3305.681 66023880 66199696 66379792 66564372 66753352 66947168 67146376 
3309.056 67351816 67564296 67783888 68009936 68241064 68474848 68709376 
3312.431 68943448 69177520 69413096 69652096 69896360 70146528 70402264 
3315.807 70662040 70924472 71188400 71453488 71719728 71987336 72255776 
3319.182 72524496 72792368 73058520 73322600 73585080 73846344 74106968 
3322.557 74366576 74624648 74880352 75133536 75385208 75636424 75888232 
3325.932 76140776 76392520 76640520 76881280 77111728 77330384 77537456 
3329.308 77734520 77923112 78104688 78279088 78445128 78601424 78746824 
3332.683 78880464 79002064 79111256 79207112 79288160 79352712 79399768 
3336.058 79429696 79443928 79444336 79432432 79408648 79371848 79320024 
3339.433 79251336 79164688 79060216 78939000 78802160 78650120 78482080 
3342.809 78296304 78091048 77865352 77619064 77353424 77070296 76770632 
3346.184 76455056 76123800 75776888 75414840 75039440 74653024 74258064 
3349.559 73856832 73450384 73039160 72623264 72202672 71777696 71349136 
3352.934 70917960 70484880 70050432 69615064 69179816 68745944 68315208 
3356.310 67889560 67470152 67057392 66650972 66250176 65854764 65465256 
3359.685 65083220 64710328 64348204 63997328 63656516 63324028 62997648 
3363.060 62676064 62358512 62045852 61739492 61441208 61151908 60872440 
3366.435 60602488 60341988 60090548 59848236 59614264 59387900 59168148 
3369.811 58953292 58742444 58534168 58328000 58123632 57920648 57718632 
3373.186 57516324 57312684 57106260 56895892 56680872 56460260 56233536 
3376.561 55999960 55758332 55508028 55248424 54979120 54700552 54413000 
3379.936 54116588 53811756 53498404 53176440 52846368 52508472 52163216 
3383.312 51811332 51452940 51087944 50716556 50339012 49955776 49568192 
3386.687 49177356 48784128 48389072 47992380 47594012 47194532 46795200 
3390.062 46397632 46004152 45616436 45235280 44860632 44491412 44126496 
3393.437 43764676 43405428 43048780 42694912 42344360 41996908 41652792 
3396.813 41311792 40974484 40641036 40311848 39986540 39664124 39342928 
3400.188 39021388 38698240 38373668 38048940 37726116 37407360 37093748 
3403.563 36784976 36479884 36176232 35871960 35566468 35259680 34952676 
3406.938 34647144 34344408 34045220 33749564 33457298 33167802 32880858 
3410.313 32596354 32314320 32034784 31757892 31483560 31212218 30944388 
3413.689 30680742 30422550 30170550 29925368 29687210 29455812 29230526 
3417.064 29010210 28793724 28579680 28366662 28153608 27940058 27726398 
3420.439 27514116 27305148 27101572 26905140 26716058 26533430 26355492 
3423.814 26179634 26003776 25827040 25649284 25471568 25295610 25122498 
3427.190 24952928 24787036 24624154 24463718 24304636 24146594 23989626 
3430.565 23833834 23679496 23526612 23375638 23226602 23079644 22935424 
3433.940 22794432 22656764 22522564 22391542 22262722 22135372 22008614 
3437.315 21881722 21754968 21628462 21502724 21378450 21255602 21133832 
3440.691 21012794 20892066 20771442 20651372 20532482 20415186 20299416 
3444.066 20184164 20067100 19946080 19819094 19685800 19547902 19408386 
3447.441 19271720 19141882 19021156 18909770 18805750 18706250 18608228 
3450.816 18509360 18408926 18307134 18204638 18102032 17999342 17895678 
3454.192 17790794 17684210 17575998 17467224 17358618 17250864 17143932 
3457.567 17037370 16930350 16822704 16714601 16606629 16499786 16394723 
3460.942 16291406 16189178 16087182 15984695 15881440 15777936 15674971 
3464.317 15573852 15475262 15379749 15287622 15198808 15113168 15030083 
3467.693 14949039 14869037 14788331 14705993 14620862 14532664 14442360 
3471.068 14351424 14261705 14174641 14090880 14009941 13931311 13853959 
3474.443 13777305 13701178 13626159 13552759 13481798 13413685 13348419 
3477.818 13286032 13226182 13168526 13112175 13056276 12999837 12941939 
3481.194 12882306 12821045 12759245 12698308 12639391 12583144 12529325 
3484.569 12477183 12425661 12374316 12323011 12272257 12223214 12176356 
3487.944 12131855 12089710 12049067 12009824 11972561 11937855 11907170 
3491.319 11881323 11860483 11843764 11829770 11816866 11803723 11789935 
3494.695 11775670 11762017 11750204 11741694 11737472 11738664 11746017 
3498.070 11759634 11779686 11804847 11833277 11862969 11891539 11917898 
3501.445 11942316 11966362 11993031 12025698 12066985 12118295 12179355 
3504.820 12248433 12323624 12402510 12483355 12565305 12647954 12731778 
3508.196 12817188 12905176 12996902 13093530 13195748 13303763 13416932 
3511.571 13533616 13652281 13770773 13888168 14004364 14119871 14235067 
3514.946 14350773 14466372 14580221 14690639 14795701 14894034 14984911 
3518.321 15068674 15145555 15215828 15278664 15333203 15377656 15410509 
3521.697 15429907 15435022 15425031 15399832 15359634 15304542 15234874 
3525.072 15151011 15052825 14939916 14812225 14669629 14512827 14343273 
3528.447 14163824 13977091 13786027 13592893 13398820 13204492 13009636 
3531.822 12813741 12616161 12415978 12212445 12004408 11791160 11572197 
3535.198 11348413 11121652 10895008 10671709 10454973 10246657 10047359 
3538.573 9856761 9674074 9498507 9329816 9167789 9011946 8861603 8715166 
3542.430 8570400 8424974 8276995 8124712 7968365 7808094 7645824 7483918 
3546.288 7325982 7175380 7035773 6909106 6796106 6694912 6601883 6512002 
3550.145 6421030 6325707 6225396 6121949 6018964 5919731 5827271 5742150 
3554.002 5663222 5587732 5513363 5438033 5361341 5283589 5205449 5127658 
3557.860 5050518 4973559 4896245 4818342 4740219 4662578 4586960 4515005 
3561.717 4448385 4388133 4334551 4286462 4241490 4195654 4143867 4081752 
3565.575 4005734 3915452 3814259 3709079 3608201 3519305 3446792 3390486 
3569.432 3347644 3312819 3281236 3249154 3214637 3177386 3137970 3097155 
3573.290 3055042 3011866 2967260 2921091 2873459 2824798 2775642 2726926 
3577.147 2678848 2631876 2586176 2542046 2500188 2460832 2424312 2390195 
3581.004 2358378 2328962 2302114 2278997 2260611 2247922 2240128 2234766 
3584.862 2227306 2211952 2183213 2137160 2073899 1997732 1917086 1842045 
3588.719 1780923 1739137 1717515 1713024 1719610 1730721 1740235 1742497 
3592.577 1734114 1713922 1682754 1643705 1600603 1558369 1520495 1488876 
3596.434 1463841 1444027 1426939 1409720 1389842 1366607 1340316 1312365 
3600.292 1285280 1261154 1241615 1227161 1217824 1212541 1210448 1211013 
3604.149 1213438 1216728 1219652 1220050 1214701 1201676 1179249 1148020 
3608.006 1110780 1072414 1037837 1010271 990511 975600 962250 945613 923001 
3612.346 894147 861577 830005 804277 787946 782137 785522 793887 802186 
3616.686 805373 798501 777954 743202 696273 642347 589025 544037 513317 
3621.025 499152 500148 512156 530103 549245 566995 583484 600638 620347 
3625.365 643508 667301 685753 689768 670056 620712 543871 451652 362306 
3629.704 294860 259517 256035 275961 308023 341215 367645 383629 389333 
3634.044 387808 382734 377229 372685 368673 363698 356403 346654 335081 
3638.384 323143 312831 304542 298540 293832 289721 285808 282824 282294 
3642.723 286372 296617 313295 335081 359255 381938 398785 406347 401538 
3647.063 382833 350301 304741 248476 185225 120591 61368 15705 -9409 -10238 
3651.885 12723 54972 109124 165304 214330 248476 262136 254311 228552 192849 
3656.706 157017 129341 115089 114791 126159 144554 165933 186286 202860 
3661.046 214761 221822 225237 226994 229281 234420 244133 260312 284084 
3665.385 315650 354513 398553 443924 485054 515905 532525 535444 532226 
3669.725 538729 576616 664149 811746 1017743 1270392 1550787 1836355 2103231 
3674.065 2323300 2468263 2515817 2456867 2302314 2077495 1813329 1534294 
3677.922 1256402 991075 746787 532591 357365 226132 138389 87283 63191 55469 
3682.744 56662 64085 78269 101004 132755 170541 207601 235448 245393 231370 
3687.566 193015 136003 70746 9078 -40057 -73186 -91307 -98264 -97734 -92765 
3692.387 -84086 -72623 -58378 -42177 -25214 -8681 6461 20311 33731 48212 
3697.209 64384 82047 99910 115089 123872 122845 110250 86123 53614 17826 
3702.031 -14910 -38566 -49698 -47114 -31940 -7190 23525 57425 91956 125331 
3706.853 156487 184065 206838 223082 230839 227789 212407 183767 143030 
3711.192 93017 39596 -10337 -49698 -72723 -77129 -63248 -34689 3412 45164 
3716.014 84400 116614 138886 150487 152841 148333 140080 130368 121420 
3720.354 114062 108693 105611 104848 105909 108229 110118 109356 103821 
3724.693 92122 74292 53083 33102 20112 20046 35653 66670 109057 156089 
3729.515 200009 233326 251692 254046 243802 227259 211546 200971 195534 
3733.855 190264 178662 155791 120856 79131 39729 12326 2286 10271 32870 
3738.677 65013 104086 148300 198617 254676 313163 366252 401737 404257 
3743.016 361609 271087 147206 19847 -74247 -110984 -88525 -22729 62694 
3747.356 145184 206838 237901 235779 205645 156719 99512 42181 -9575 -51818 
3752.177 -80044 -89552 -77394 -43734 6858 66008 124204 173557 208562 227823 
3756.999 233160 228287 216916 200606 180120 155691 129308 105412 89404 85858 
3761.821 96265 117542 143262 165734 178894 179855 171204 158840 150255 
3766.161 150752 161061 177237 192485 199976 195369 178529 153238 126921 
3770.500 106870 97922 101667 116514 138588 163547 187844 209325 226894 
3774.840 241315 253217 263263 271485 276193 275298 266446 248742 223314 
3779.179 194109 167491 149460 144455 152841 171336 194275 215026 228419 
3783.519 231701 225701 213170 199015 187347 180551 179491 183269 190396 
3787.859 199214 208894 218375 227093 235050 242111 248974 256931 267043 
3792.198 280072 295225 309980 320259 322149 312632 292373 265451 239592 
3796.538 224010 225403 246023 281531 323575 359686 377229 367479 326890 
3800.877 261904 187380 123441 87449 87151 119332 171800 229547 276226 299767 
3805.699 293998 260810 210186 157812 119630 104417 113366 140709 178794 
3810.039 220330 261572 301922 343139 386746 431752 474141 506483 520715 
3814.378 510531 475136 420508 361808 315749 295158 304177 336838 379683 
3818.718 416329 432183 416694 367446 292771 210286 142400 106207 108096 
3823.058 142864 197921 258124 309847 344531 358990 356469 344067 331400 
3827.397 325962 331400 346355 366650 386813 401903 409497 410061 406048 
3831.737 401040 398785 402002 411487 426976 446644 467739 486215 497693 
3836.076 498522 485519 459082 422598 383032 348278 324437 314589 318103 
3840.416 330737 347118 362206 372254 375537 372321 364229 354480 346322 
3844.756 342442 344996 355010 372254 395734 424256 456827 492982 533222 
3849.095 577877 626088 674768 716849 741675 736498 689138 594035 458850 
3853.435 306697 168718 71310 26342 29424 67366 124668 189468 253682 312831 
3858.257 365091 409862 446578 474937 494939 507313 513251 514545 511824 
3862.596 504825 491855 472018 446113 418916 398089 391754 405318 438120 
3866.936 482799 526686 556478 560426 533885 481439 417590 360847 325431 
3871.275 315915 327023 347682 365622 372719 367180 354148 342940 343039 
3875.615 361112 397326 447142 501508 550904 586105 599709 588129 553525 
3879.955 503365 448999 403196 376466 372652 388803 415898 442034 454671 
3884.294 445549 413477 365423 316578 282659 275994 299734 347582 407342 
3888.634 465782 511061 534947 535146 514777 482003 446876 418950 404556 
3892.973 405949 422730 452216 491556 537202 585209 631861 672843 704005 
3897.313 722525 726740 717546 697866 672379 645831 621674 601434 583849 
3901.653 565800 543970 516601 484325 450691 420939 400709 393777 400808 
3905.992 419547 445483 473876 500678 523369 541482 555648 567492 578242 
3910.332 588826 600074 612019 624893 639062 654061 669060 682633 692390 
3914.671 696372 693153 683098 667866 650311 633520 619783 609829 603392 
3919.011 599609 598481 600306 606345 617294 632624 650145 666206 676593 
3923.351 678286 670719 656085 638796 624428 617460 619750 630501 646395 
3927.690 663751 678717 688839 692987 691228 684292 672976 658275 641783 
3932.030 625192 611156 602230 600439 606212 618456 634947 652468 668330 
3936.369 680907 689967 696671 702943 710544 720235 731619 742870 751666 
3940.709 755715 753292 744629 731088 715754 702047 693120 691129 695841 
3945.049 705731 717646 728134 734241 734207 728001 717580 705930 696273 
3949.388 691328 692191 698994 710411 724450 739120 752827 764511 773805 
3953.728 780576 784991 787780 789705 791829 795281 801057 809589 820543 
3958.067 833158 845740 856497 864233 867851 867387 863502 857626 851086 
3962.407 845342 841425 839798 840628 843682 848662 855036 862340 869976 
3966.747 877546 884319 889963 894280 897268 899526 902016 905701 911412 
3971.086 919415 929243 939703 949333 956472 960125 960125 957335 952985 
3975.426 948801 946012 944817 945049 945912 946610 946676 946244 946112 
3979.765 946942 949399 953550 958631 964077 968792 972578 975334 977625 
3984.105 979684 981810 983503 984267 983304 980648 976430 972080 968759 
3988.445 967431 968726 972013 976197 979917 982042 982009 980149 977559 
3992.784 975102 973640 972910 972212 970253 966003 959029 949797 939670 
3997.124 930638 924428 922768 925723 933062 943289 954546 965106 
##END=
