
##TITLE=mdmaHCL00403_7
##JCAMP-DX=5.01  $$ Nicolet v. 1
##DATATYPE=INFRARED SPECTRUM
##ORIGIN=UniL
##OWNER=Nicolet
##LONGDATE=2011/08/23
##TIME=11:31:15
##SPECTROMETER/DATA SYSTEM=Nicolet iS5
##DATA PROCESSING=
Ratio against background
%Transmittance->Absorbance
Truncated
ElementMultiply or ElementDivide
##COMMENTS=
Number of sample scans: 32
Collection length: 51.22 sec
Sample gain: 2.0
Background collected on: Mar Aout 23 11:29:33 2011 (GMT+02:00);
Number of background scans: 32
Background gain: 2.0
Sample spacing:  1.000
Number of scan points: 12415
Resolution points: 8192
Number of FFT points: 65536
Apodization: N-B fort;
Phase correction: Mertz;
Laser frequency: 15798.0 cm-1
Number of rejected sample scans: 0
Number of rejected background scans: 0
Bench serial number: ASB1000141;
##RESOLUTION=4.000
##XUNITS=1/CM
##YUNITS=ABSORBANCE
##FIRSTX=649.893372
##LASTX=4000.122314
##FIRSTY=0.081738
##MAXX=4000.122314
##MINX=649.893372
##MAXY=0.213246
##MINY=0.000430
##XFACTOR=1.000000
##YFACTOR=1.000000E-009
##NPOINTS=6950
##DELTAX=0.482117
##ZPD=6100
##XYDATA=(X++(Y..Y))
649.893 81737608 81196008 80725816 80349784 80066136 79857216 79703968 
653.268 79599480 79556696 79599680 79748632 80005264 80346640 80731688 
656.643 81117800 81478120 81811848 82140312 82493464 82891616 83338464 
660.018 83820208 84318136 84820864 85335112 85881784 86487288 87167088 
663.393 87917576 88713864 89520272 90301888 91024384 91659488 92177184 
666.767 92543888 92736400 92759568 92664416 92523176 92396016 92298096 
670.142 92203120 92056832 91800480 91391176 90811920 90079744 89238880 
673.517 88347328 87454408 86586608 85750576 84940760 84152160 83389128 
676.892 82662616 81983656 81353384 80760064 80182688 79598408 78995272 
680.267 78374040 77748552 77135320 76546896 75986144 75447168 74921696 
683.642 74405192 73900232 73415936 72961464 72540360 72148368 71775112 
687.016 71409048 71043288 70678736 70322312 69983240 69667224 69374376 
690.391 69099824 68838688 68588840 68354184 68142016 67959912 67811656 
693.766 67696128 67608120 67543120 67499848 67483128 67501392 67563056 
697.141 67673472 67832456 68036944 68283064 68569784 68900808 69280664 
700.516 69711064 70186920 70693472 71210488 71716912 72196648 72643984 
703.890 73062128 73459888 73844496 74218520 74577912 74915632 75225528 
707.265 75506624 75763040 76001968 76229144 76446560 76652664 76846400 
710.640 77031088 77217128 77420576 77656936 77934808 78249840 78582296 
714.015 78899744 79166800 79351248 79430888 79399056 79262632 79041816 
717.390 78765016 78471560 78207744 78022208 77965816 78081216 78393448 
720.765 78903472 79580896 80366688 81171568 81893896 82436776 82717048 
724.139 82689832 82355296 81762728 80997448 80166112 79376424 78705560 
727.514 78196208 77851008 77643784 77534280 77484616 77471544 77486240 
730.889 77530800 77608600 77718200 77850648 77993136 78133408 78266424 
734.264 78393848 78521944 78656224 78796880 78939560 79078064 79209152 
737.639 79336248 79468208 79615360 79783672 79970880 80165592 80352576 
741.013 80519856 80663184 80788312 80906776 81031384 81169368 81320856 
744.388 81480320 81640832 81798848 81954760 82111696 82271800 82432936 
747.763 82588592 82730992 82854608 82959472 83051248 83138992 83228400 
751.138 83320912 83411768 83494248 83563280 83619760 83669648 83721600 
754.513 83782272 83853400 83931864 84012864 84094096 84178872 84274848 
757.888 84390200 84528856 84687640 84856848 85024256 85181168 85326520 
761.262 85466728 85612096 85772256 85952136 86151200 86367048 86600000 
764.637 86857264 87154088 87511312 87948248 88479040 89105632 89815504 
768.012 90577688 91344888 92058104 92649240 93059936 93255832 93242408 
771.387 93072616 92840192 92662936 92637304 92811520 93156784 93572272 
774.762 93900136 93968752 93652552 92894232 91724720 90239880 88573584 
778.136 86849896 85149728 83507256 81910264 80322000 78699440 77013440 
781.511 75254448 73432896 71572600 69704960 67866000 66089348 64406500 
784.886 62844716 61422240 60149992 59030872 58061136 57234124 56543964 
788.261 55986464 55560292 55265056 55099664 55062240 55150184 55363696 
791.636 55706872 56189224 56823304 57622140 58592752 59731232 61018652 
795.010 62421936 63893868 65373928 66798872 68102136 69221512 70112656 
798.385 70753680 71156936 71368664 71469392 71558656 71728400 72050656 
801.760 72549208 73190624 73877448 74464232 74788048 74686312 74047248 
805.135 72832448 71090464 68945312 66572092 64162760 61867580 59775984 
808.510 57901224 56191752 54556676 52900484 51160780 49318052 47401544 
811.885 45469284 43593604 41837256 40239760 38819024 37573228 36489760 
815.259 35551792 34743256 34050380 33459444 32957810 32532818 32173350 
818.634 31871480 31622738 31425390 31278550 31180676 31128880 31119448 
822.009 31149918 31219980 31332288 31491898 31704422 31974326 32303538 
825.384 32691334 33133254 33621272 34142344 34679336 35208400 35704004 
828.759 36142092 36505256 36790100 37009528 37195744 37392444 37652796 
832.133 38031508 38571664 39300448 40218020 41292116 42450268 43581224 
835.508 44554480 45222188 45454564 45169648 44344964 43031400 41337268 
838.883 39416756 37428452 35510336 33770660 32269668 31027870 30035852 
842.258 29266748 28686176 28258302 27953060 27742858 27604180 27519554 
845.633 27476062 27466570 27488630 27542394 27627376 27741586 27879956 
849.008 28036464 28206042 28385694 28575330 28776552 28991224 29219788 
852.382 29462052 29717474 29986998 30274132 30584848 30925496 31301804 
855.757 31717006 32172494 32668934 33208608 33796304 34440384 35152312 
859.132 35943868 36828684 37821032 38935596 40187964 41590944 43148892 
862.507 44849536 46658272 48514360 50327220 51993848 53408280 54475008 
865.882 55132728 55360008 55183104 54669172 53923084 53073912 52246880 
869.256 51563252 51120744 50982668 51184336 51729840 52598408 53745712 
872.631 55107712 56605636 58138064 59592144 60851740 61799040 62341300 
876.006 62420712 62023264 61181736 59968656 58486892 56844000 55146312 
879.381 53485884 51925880 50506100 49240408 48122880 47134848 46252980 
882.756 45458688 44740436 44097268 43536280 43070000 42709972 42463420 
886.131 42332092 42312768 42400288 42590480 42882488 43277616 43778308 
889.505 44384308 45090976 45888536 46765824 47711412 48718292 49785332 
892.880 50917128 52121896 53408428 54783652 56249568 57799924 59415936 
896.255 61061212 62680884 64193376 65501160 66501728 67094900 67210848 
899.630 66818848 65935708 64621196 62970676 61103732 59138384 57188044 
903.005 55350560 53694756 52268744 51097224 50185492 49525560 49101336 
906.379 48894140 48884868 49058152 49403804 49914996 50588808 51424068 
909.754 52420124 53576064 54889212 56353148 57955368 59674436 61476100 
913.129 63317204 65145620 66906816 68557256 70067256 71430056 72661448 
916.504 73798504 74891968 75993328 77149328 78386984 79705000 81066920 
919.879 82400120 83606176 84564072 85161136 85315112 84992696 84229552 
923.254 83131696 81876304 80672320 79747472 79316320 79530472 80468608 
926.628 82109048 84336280 86937808 89631864 92125808 94122880 95381168 
930.003 95748112 95153408 93615144 91214920 88084752 84380344 80266992 
933.378 75925008 71526072 67231080 63189640 59516172 56293848 53574188 
936.753 51376364 49698016 48523252 47829512 47588244 47761488 48299300 
940.128 49126784 50143168 51232652 52261492 53103192 53659136 53863440 
943.502 53698844 53193368 52416236 51459316 50420912 49397012 48459344 
946.877 47655388 47008076 46517920 46171976 45950008 45832048 45799904 
950.252 45837940 45933688 46074368 46247596 46442284 46649452 46863956 
953.627 47085360 47316556 47562364 47826256 48110740 48416116 48741352 
957.002 49085788 49449288 49832484 50235780 50658356 51098232 51552768 
960.377 52019692 52498564 52990356 53497244 54020972 54561220 55115800 
963.751 55681072 56253864 56832668 57418520 58014060 58622140 59244440 
967.126 59880712 60529652 61190472 61864068 62553556 63263996 63999748 
970.501 64764060 65558224 66382148 67236064 68122448 69045280 70010296 
973.876 71022328 72084328 73196776 74358992 75570216 76831728 78147016 
977.251 79520080 80954928 82453400 84015440 85641352 87333008 89095912 
980.625 90939400 92872896 94903496 97032872 99256600 101563432 103936712 
984.000 106355416 108789872 111196016 113516888 115673272 117570168 
986.893 119113344 120212896 120803960 120858704 120388352 119444104 
989.786 118107144 116489360 114714400 112906304 111188784 109662584 
992.678 108402568 107456616 106841656 106551776 106565576 106856440 
995.571 107397592 108165656 109142672 110311120 111652624 113148216 
998.464 114776544 116516008 118346832 120245984 122184640 124125592 
1001.356 126017064 127797736 129405304 130780232 131881448 132690488 
1004.249 133214536 133483928 133549448 133480432 133353024 133250832 
1007.142 133258360 133446496 133873176 134575904 135568656 136847664 
1010.035 138395920 140191920 142212336 144435632 146842192 149409152 
1012.927 152111216 154922416 157815296 160766192 163754112 166752000 
1015.820 169720912 172600128 175297424 177703632 179699552 181175168 
1018.713 182060400 182335472 182044080 181285408 180214448 179024720 
1021.605 177912160 177077328 176690640 176869600 177681488 179131424 
1024.498 181173600 183717520 186650624 189855200 193207472 196594112 
1027.391 199907856 203037600 205881648 208345312 210348944 211843216 
1030.284 212806880 213246080 213184720 212656432 211697808 210344032 
1033.177 208632768 206603856 204294144 201736464 198951024 195944304 
1036.070 192712848 189252016 185566976 181681104 177636544 173490528 
1038.963 169311024 165163680 161109808 157206624 153500144 150026960 
1041.856 146808832 143845584 141112576 138559200 136121440 133728624 
1044.750 131321968 128870232 126373600 123866344 121404592 119062608 
1047.643 116915392 115027920 113455056 112232608 111377200 110887440 
1050.536 110745152 110918920 111365592 112041000 112900976 113904392 
1053.429 115016560 116202760 117422856 118630680 119767248 120764096 
1056.322 121554704 122074728 122273192 122119672 121603320 120736656 
1059.215 119554696 118118408 116509776 114824192 113171992 111657384 
1062.108 110370800 109387488 108755312 108499072 108622536 109110768 
1065.001 109931632 111034600 112355848 113812968 115309336 116750272 
1067.894 118040960 119101840 119877800 120333576 120454544 120241176 
1070.787 119704176 118861160 117734296 116351776 114744480 112944560 
1073.680 110987832 108911376 106757080 104576912 102429992 100384104 
1076.573 98513176 96883712 95554216 94567680 93945752 93690616 93783136 
1079.948 94185632 94838328 95660592 96561168 97431944 98167568 98682944 
1083.324 98919224 98862472 98544560 98042432 97460968 96918208 96538656 
1086.699 96427480 96668032 97316464 98392264 99879256 101721576 103833464 
1090.074 106096912 108373816 110531592 112442296 114002128 115142928 
1092.967 115824832 116039120 115800824 115146296 114126264 112798768 
1095.860 111230696 109486384 107625256 105703792 103769512 101862688 
1098.753 100017016 98254016 96581488 94990168 93455072 91938080 90395800 
1102.129 88793888 87113280 85358944 83559504 81765216 80038408 78440920 
1105.504 77033112 75863568 74965952 74362416 74061384 74059736 74343576 
1108.879 74890472 75670936 76647520 77781128 79028936 80342768 81673904 
1112.254 82966896 84160208 85194352 86010816 86560280 86810848 86746800 
1115.630 86370400 85697856 84757512 83585376 82220904 80709104 79094368 
1119.005 77416416 75711448 74005912 72317416 70657952 69035576 67457856 
1122.380 65934932 64478376 63100776 61814132 60626520 59543836 58569468 
1125.755 57707128 56962452 56344432 55863680 55532352 55360532 55353796 
1129.131 55511680 55826336 56282340 56854496 57510200 58209476 58904184 
1132.506 59545964 60091196 60506228 60776692 60909644 60934728 60896000 
1135.881 60847928 60846328 60935188 61144812 61484688 61943048 62486248 
1139.256 63062808 63613168 64069516 64369032 64461500 64309708 63894676 
1142.632 63213788 62277812 61107816 59732336 58188032 56515168 54757304 
1146.007 52961080 51168420 49417988 47742848 46166928 44708372 43379284 
1149.382 42186372 41132872 40218456 39440376 38793008 38269260 37861340 
1152.757 37561924 37364784 37265708 37261952 37351388 37531724 37799236 
1156.133 38149208 38576228 39074788 39640488 40269784 40959520 41706588 
1159.508 42506612 43354420 44244136 45168804 46120532 47090048 48064288 
1162.883 49025728 49953468 50821356 51601720 52267844 52793084 53154456 
1166.258 53333420 53315216 53092112 52664016 52039640 51235672 50275616 
1169.634 49188008 48001224 46743464 45441692 44119344 42798856 41501324 
1173.009 40245032 39046948 37920888 36877092 35923032 35063080 34300160 
1176.384 33635664 33070642 32605782 32241616 31978146 31814646 31750512 
1179.759 31785376 31920262 32157152 32499034 32949268 33510338 34183460 
1183.135 34968512 35863904 36866272 37969452 39162096 40426932 41736280 
1186.510 43053136 44334912 45532056 46595852 47484624 48162820 48607512 
1189.885 48809156 48771932 48513840 48064252 47464152 46757484 45990336 
1193.260 45208220 44448572 43743860 43119176 42590884 42168812 41855720 
1196.635 41647908 41534648 41499136 41519916 41569832 41618364 41634812 
1200.011 41586496 41442928 41179352 40776336 40225656 39530952 38709688 
1203.386 37789804 36806904 35801432 34809340 33862028 32982978 32185770 
1206.761 31477150 30857580 30323658 29869996 29489748 29176270 28922796 
1210.136 28723522 28574408 28473494 28421386 28420358 28473706 28584316 
1213.512 28753648 28981306 29265366 29602142 29986892 30413664 30875436 
1216.887 31363096 31867024 32377284 32884180 33380862 33861632 34323072 
1220.262 34762928 35179440 35571792 35940704 36289216 36624092 36954756 
1223.637 37293760 37653696 38046372 38481288 38963904 39496148 40075304 
1227.013 40694164 41341092 41999096 42648996 43269456 43840104 44345444 
1230.388 44775736 45128288 45407256 45623868 45795228 45943520 46098168 
1233.763 46293560 46566052 46954984 47496900 48221616 49153536 50308020 
1237.138 51693228 53310832 55157556 57223276 59489532 61929480 64504972 
1240.514 67166024 69859392 72526576 75108680 77553696 79810272 81831968 
1243.889 83579784 85019936 86128488 86893000 87310440 87386736 87133480 
1247.264 86568488 85714160 84598216 83254648 81718536 80022160 78190800 
1250.639 76237320 74163768 71965240 69637120 67183000 64620844 61982640 
1254.015 59316144 56679328 54128748 51720284 49499452 47495084 45720860 
1257.390 44172824 42832204 41666504 40635324 39695672 38802104 37915864 
1260.765 37007072 36055356 35053452 34004260 32920246 31819426 30723060 
1264.140 29653612 28630288 27669294 26782448 25976020 25252132 24608690 
1267.516 24041312 23543194 23107144 22727008 22397262 22113928 21873950 
1270.891 21674748 21513518 21387882 21295654 21235630 21207794 21213362 
1274.266 21254002 21331082 21444934 21593986 21774512 21979196 22198136 
1277.641 22417290 22618928 22785004 22897352 22942062 22912512 22809692 
1281.017 22642314 22423116 22167380 21888272 21595692 21296768 20996588 
1284.392 20700230 20414630 20148378 19911356 19713676 19563396 19466946 
1287.767 19428724 19451594 19538302 19691416 19912950 20204122 20564268 
1291.142 20990780 21477484 22015028 22590130 23183400 23770306 24323314 
1294.518 24812400 25211854 25505088 25686616 25764486 25757770 25694420 
1297.893 25603734 25514648 25452982 25437910 25484112 25600042 25787868 
1301.268 26041910 26348416 26686954 27030302 27349856 27619892 27819296 
1304.643 27934968 27962036 27903450 27768324 27570214 27327132 27058160 
1308.019 26782342 26517968 26279064 26075440 25912426 25791456 25711962 
1311.394 25672872 25673398 25712840 25790328 25903564 26048982 26221936 
1314.769 26418622 26636606 26875212 27134936 27416768 27720854 28046784 
1318.144 28393970 28762674 29154760 29573234 30020656 30496796 30996624 
1321.520 31509142 32018200 32502570 32940618 33311128 33597392 33790572 
1324.895 33892300 33916980 33890112 33848880 33835308 33887536 34036296 
1328.270 34296788 34666128 35125224 35644368 36191104 36735000 37255272 
1331.645 37741620 38193420 38617292 39024904 39430616 39848508 40291780 
1335.021 40770328 41289052 41846892 42434888 43039560 43642000 44221428 
1338.396 44758948 45235688 45636644 45951108 46172416 46299532 46336544 
1341.771 46291496 46174852 45997632 45770452 45501880 45198988 44867796 
1345.146 44512920 44139076 43750896 43351492 42942984 42524772 42093640 
1348.521 41644292 41170936 40670144 40142640 39595988 39043936 38507936 
1351.897 38014256 37590936 37268160 37072820 37025980 37140992 37418668 
1355.272 37845108 38389812 39010804 39656756 40272696 40811168 41232212 
1358.647 41507744 41624784 41583288 41397544 41093168 40710608 40301228 
1362.022 39920352 39626044 39464324 39460224 39614320 39902080 40281160 
1365.398 40695328 41086176 41397324 41576976 41588976 41415152 41059548 
1368.773 40546448 39915848 39214896 38485416 37762696 37071736 36426912 
1372.148 35839000 35318656 34878632 34535876 34306972 34202172 34221784 
1375.523 34354808 34582736 34884304 35242536 35647316 36095932 36592988 
1378.899 37148568 37777404 38496824 39325372 40278400 41360624 42557296 
1382.274 43824744 45093844 46265768 47226524 47867984 48089196 47818596 
1385.649 47028936 45753516 44095872 42214124 40303048 38534512 37023416 
1389.024 35821004 34918524 34272444 33823020 33513274 33291704 33113014 
1392.400 32940224 32740742 32488714 32170248 31786196 31352338 30892194 
1395.775 30428840 29975602 29533332 29095306 28653896 28208974 27772988 
1399.150 27368806 27022932 26757672 26582884 26495674 26484440 26534980 
1402.525 26633998 26772086 26944872 27151092 27391286 27665692 27973274 
1405.901 28311490 28677752 29069584 29485776 29925902 30389678 30876006 
1409.276 31382718 31906214 32442868 32989736 33545058 34107756 34676640 
1412.651 35248612 35818596 36380936 36930332 37464824 37986556 38501056 
1416.026 39015592 39536576 40068508 40613896 41174800 41754008 42352764 
1419.402 42969944 43597416 44217248 44805268 45335532 45787128 46147248 
1422.777 46418060 46617876 46781068 46947452 47152020 47415884 47741812 
1426.152 48119180 48531552 48965564 49412120 49866676 50327404 50792828 
1429.527 51261844 51736448 52224456 52739992 53299744 53918772 54604276 
1432.903 55353644 56154644 56991052 57849700 58722572 59612476 60533044 
1436.278 61506024 62549576 63671364 64864612 66106820 67364008 68590776 
1439.653 69735688 70735936 71522128 72032896 72213432 72026016 71452592 
1443.028 70491304 69158016 67484752 65523976 63342808 61013428 58615500 
1446.404 56224108 53910220 51745744 49793096 48097340 46675352 45513104 
1449.779 44574012 43814996 43206096 42738308 42424512 42286432 42339504 
1453.154 42576372 42964200 43442044 43930096 44345664 44606760 44661956 
1456.529 44514280 44236104 43940104 43728324 43662884 43757496 44000016 
1459.905 44370764 44850604 45421348 46058784 46732692 47400360 48006996 
1463.280 48498020 48825284 48965828 48932112 48772120 48551412 48327112 
1466.655 48139276 48003996 47919592 47874088 47849152 47821188 47756572 
1470.030 47612388 47338912 46887064 46231052 45386808 44424272 43443876 
1473.406 42544248 41788148 41191956 40742052 40416424 40201336 40096520 
1476.781 40109968 40247356 40503636 40859656 41287964 41757800 42245604 
1480.156 42740648 43245404 43774316 44347240 44985272 45705544 46522344 
1483.531 47450732 48507840 49713284 51083956 52625080 54318816 56112452 
1486.906 57921632 59622964 61064184 62089624 62546932 62323552 61379608 
1490.282 59764312 57614008 55110044 52441284 49751332 47121400 44588000 
1493.657 42151284 39801624 37544364 35407616 33446096 31730872 30324226 
1497.032 29260476 28537006 28125820 27985996 28077536 28368856 28833096 
1500.407 29445210 30180922 31011358 31904642 32829288 33744300 34600600 
1503.783 35336448 35861164 36058808 35798012 34965856 33536288 31619600 
1507.158 29443614 27245204 25180252 23298928 21581904 19988926 18489860 
1510.533 17073656 15749795 14538180 13454866 12508590 11695604 11003302 
1513.908 10415467 9915403 9487839 9117335 8789646 8494775 8228839 7996308 
1517.766 7805968 7665114 7572787 7517394 7476502 7425874 7347684 7242622 
1521.623 7132028 7047762 7014323 7036413 7100334 7183060 7264320 7332149 
1525.481 7388327 7444951 7518506 7620162 7751220 7904789 8071273 8245386 
1529.338 8427879 8624374 8840671 9078560 9332964 9593141 9846728 10086323 
1533.196 10314479 10544316 10791395 11066552 11369705 11691349 12016705 
1536.571 12330306 12620289 12875583 13087451 13246815 13345037 13375173 
1539.946 13336734 13241486 13110399 12967405 12830088 12703323 12578437 
1543.321 12438482 12267690 12057992 11815776 11559335 11312364 11092248 
1546.697 10902924 10734774 10570593 10394290 10197638 9985886 9774439 
1550.072 9583318 9425768 9303004 9204948 9117031 9027710 8933369 8840198 
1553.929 8760908 8708371 8688427 8697047 8721150 8741705 8734571 8671660 
1557.787 8525861 8281790 7953989 7591939 7261860 7011057 6851508 6769282 
1561.644 6738658 6732803 6728024 6707766 6664192 6600000 6526667 6459536 
1565.501 6412085 6389287 6386328 6392044 6393658 6380881 6349376 6301938 
1569.359 6247379 6197196 6161604 6147119 6157437 6192860 6252119 6330716 
1573.216 6421198 6511128 6584861 6627653 6630648 6598149 6548431 6509144 
1577.074 6502148 6536489 6607805 6704873 6815829 6932302 7050827 7171472 
1580.931 7295622 7424223 7556873 7691824 7827491 7962256 8094566 8222221 
1584.789 8340524 8443217 8523597 8576585 8601560 8603013 8590576 8576450 
1588.646 8573240 8592367 8642389 8729433 8858087 9030654 9245969 9496272 
1592.503 9767356 10036271 10275257 10458299 10563701 10580167 10508807 
1595.879 10361644 10158834 9922861 9676954 9440836 9230366 9059309 8937799 
1599.736 8872594 8866169 8916999 9020234 9170259 9362520 9594496 9864388 
1603.594 10168738 10500355 10846222 11189508 11510202 11788504 12007712 
1606.969 12154548 12221033 12204266 12106268 11932814 11692813 11399128 
1610.344 11067775 10717657 10370297 10044544 9754141 9505247 9295794 9116692 
1614.201 8954678 8795699 8627381 8443115 8246095 8050042 7875873 7743125 
1618.059 7664642 7641676 7667340 7728013 7807655 7891427 7965733 8023141 
1621.916 8063071 8093012 8124915 8171540 8242178 8338835 8458792 8596828 
1625.774 8747553 8906785 9069966 9232735 9389775 9536880 9671973 9797653 
1629.631 9919844 10046002 10182544 10331817 10491156 10652761 10805322 
1633.006 10936053 11031069 11078992 11072772 11014245 10916278 10801177 
1636.382 10693952 10611811 10560510 10535354 10525746 10518550 10502799 
1639.757 10472012 10425717 10370196 10314479 10268709 10238142 10222401 
1643.132 10214124 10201539 10171350 10110435 10010568 9870659 9699756 
1646.507 9516118 9344204 9209077 9127419 9105898 9141462 9223123 9333946 
1650.365 9450148 9542841 9574545 9506432 9316444 9024260 8699954 8425717 
1654.222 8251870 8176941 8171066 8198754 8233770 8261596 8276387 8279190 
1658.080 8273720 8263419 8249472 8229717 8200171 8156211 8093620 8010586 
1661.937 7908535 7793115 7674084 7562503 7469356 7401607 7360894 7343236 
1665.794 7339462 7338215 7325780 7289759 7221667 7119195 6987553 6838818 
1669.652 6689327 6554115 6443797 6363161 6310880 6280658 6261799 6240757 
1673.509 6202136 6131627 6022659 5880871 5725933 5582161 5470445 5398344 
1677.367 5359697 5340879 5327293 5309684 5286205 5263332 5250151 5254210 
1681.224 5274198 5298984 5307067 5274064 5179629 5021925 4824540 4630260 
1685.082 4479216 4387899 4349778 4346097 4357174 4367349 4366981 4352689 
1688.939 4324745 4286830 4245037 4207464 4182640 4177922 4197025 4237643 
1692.796 4291280 4342482 4373038 4365675 4312129 4219876 4115133 4031986 
1696.654 3993862 4004363 4046768 4093960 4113427 4077538 3974501 3818370 
1700.511 3649198 3511388 3432798 3413829 3436973 3478888 3518737 3541853 
1704.369 3540049 3512858 3466731 3413328 3363739 3325373 3300733 3287846 
1708.226 3282671 3280935 3280067 3279533 3280835 3286143 3297662 3316158 
1712.083 3341100 3370083 3400938 3431429 3460118 3485468 3504908 3513827 
1715.941 3505977 3474780 3417870 3340031 3254695 3179623 3129593 3111671 
1719.798 3123786 3157928 3203455 3250255 3291585 3324071 3348279 3366944 
1723.656 3384075 3403243 3426386 3454507 3487673 3525050 3564970 3605060 
1727.513 3641914 3672187 3694141 3708645 3719706 3732639 3751556 3776221 
1731.371 3800220 3809947 3787084 3714961 3586919 3415232 3231327 3074463 
1735.228 2971697 2928229 2931932 2962289 2999555 3026881 3034054 3017972 
1739.085 2982973 2938437 2895473 2863019 2844808 2840573 2847310 2861685 
1742.943 2881063 2904212 2930731 2960955 2994684 3031552 3069925 3107633 
1746.800 3141974 3170477 3190537 3200718 3199583 3186031 3159430 3120048 
1750.658 3070826 3017271 2967827 2930764 2912084 2913552 2931798 2959287 
1754.515 2986076 3003025 3003358 2985742 2955284 2921624 2895039 2881597 
1758.373 2881730 2889869 2898008 2897474 2882331 2851312 2808156 2760170 
1762.230 2716523 2684916 2669513 2671147 2687250 2713455 2743698 2771207 
1766.087 2789915 2795884 2788914 2773241 2756902 2748332 2751833 2766739 
1769.945 2785380 2797118 2790948 2760837 2709021 2646577 2589242 2549545 
1773.802 2533248 2537747 2556145 2580676 2606442 2631543 2656512 2681849 
1777.660 2707021 2729626 2745598 2752000 2748032 2736829 2723958 2715189 
1781.517 2714022 2720257 2730360 2739763 2744131 2741930 2734395 2724325 
1785.375 2715623 2710755 2711222 2717490 2729860 2749166 2775609 2808523 
1789.232 2844575 2878395 2901944 2907781 2891237 2853013 2799886 2742497 
1793.089 2691651 2654711 2633476 2625442 2626442 2632143 2639777 2647744 
1796.947 2655145 2661179 2664746 2663846 2656878 2643110 2622909 2598575 
1800.804 2573076 2549779 2531681 2520583 2517184 2521383 2532248 2548012 
1804.662 2566643 2586176 2605142 2622309 2637643 2651578 2664279 2675581 
1808.519 2684383 2689250 2689050 2683782 2674681 2664846 2657712 2656045 
1812.376 2660612 2670880 2684449 2698252 2710155 2719024 2724859 2729460 
1816.234 2734161 2740663 2750233 2763037 2778710 2796784 2816660 2838071 
1820.091 2860918 2885566 2912318 2940906 2970296 2998254 3021842 3038058 
1823.949 3045232 3043964 3038292 3034254 3037691 3051872 3076265 3105898 
1827.806 3133164 3149617 3150485 3135166 3109068 3081671 3063384 3061115 
1831.664 3076365 3106198 3144811 3186432 3226153 3261739 3292453 3318896 
1835.521 3341868 3362370 3381470 3400571 3422178 3449464 3485635 3533602 
1839.378 3594804 3668912 3753761 3845814 3940361 4031518 4113661 4181636 
1843.236 4233360 4270400 4299077 4328359 4366278 4416953 4478881 4546478 
1847.093 4611372 4665626 4704143 4725580 4731844 4726686 4713556 4694162 
1850.951 4667468 4631834 4585688 4529871 4467298 4402359 4338667 4278197 
1854.808 4220111 4162032 4101754 4038307 3973330 3909601 3849726 3794939 
1858.666 3744270 3695344 3645856 3595238 3544726 3497760 3457379 3425618 
1862.523 3402074 3385076 3372487 3363204 3357662 3357127 3362303 3371953 
1866.380 3382472 3388549 3384909 3369515 3344038 3313921 3286811 3269384 
1870.238 3264443 3271120 3285542 3303304 3320398 3334455 3344439 3349848 
1874.095 3350616 3346743 3338128 3325540 3309748 3292420 3274659 3256698 
1877.953 3237837 3217174 3193942 3168875 3143576 3120882 3103128 3090881 
1881.810 3083473 3078100 3072194 3063885 3053107 3041528 3031685 3025379 
1885.667 3023377 3024211 3025546 3024045 3017438 3004760 2986310 2964991 
1889.525 2944008 2927595 2918822 2920090 2931165 2949979 2972998 2995351 
1893.382 3012534 3021842 3023411 3019440 3014135 3011232 3013201 3019941 
1897.240 3029650 3039426 3047801 3054375 3060648 3068823 3080670 3097054 
1901.097 3116677 3137302 3156660 3173314 3186298 3195344 3200684 3202754 
1904.955 3201686 3198581 3195377 3194009 3196345 3202987 3213002 3223683 
1908.812 3231461 3233898 3230560 3222682 3212835 3203789 3197280 3193274 
1912.669 3191305 3190738 3191906 3195744 3203121 3213469 3223917 3230059 
1916.527 3227389 3213903 3191672 3166439 3146079 3136301 3138403 3148416 
1920.384 3159129 3162534 3153456 3131061 3099491 3065353 3034622 3011266 
1924.242 2995318 2984508 2976334 2969729 2965725 2966326 2972998 2985275 
1928.099 3000756 3016104 3028682 3037324 3043030 3047434 3052006 3056477 
1931.957 3059380 3059347 3055609 3050170 3046200 3046800 3053140 3064085 
1935.814 3075430 3082839 3084040 3078701 3070325 3063117 3060314 3062216 
1939.671 3066421 3069190 3067055 3059614 3049003 3040094 3037224 3043731 
1943.529 3059714 3083106 3111438 3142141 3174316 3206192 3236335 3262340 
1947.386 3281135 3290951 3292220 3288046 3282571 3280101 3283473 3291953 
1951.244 3303037 3313454 3320565 3324539 3326342 3327510 3328078 3326041 
1955.101 3317727 3299698 3271621 3235100 3195911 3160231 3132463 3114341 
1958.958 3104430 3098723 3094452 3089947 3085942 3084407 3086376 3090948 
1962.816 3095386 3097989 3097188 3094285 3091281 3090514 3092249 3095319 
1966.673 3096187 3092349 3083740 3073195 3066187 3067022 3078567 3099324 
1970.531 3125888 3152955 3176485 3193708 3203154 3204022 3194476 3173815 
1974.388 3143510 3110036 3085041 3083072 3117945 3196645 3314956 3457412 
1978.246 3601519 3725387 3813323 3860122 3868814 3848556 3809913 3759911 
1982.103 3703866 3644954 3585015 3527990 3478354 3440446 3416835 3407250 
1985.960 3408419 3416033 3426620 3437574 3447994 3457078 3463090 3463057 
1989.818 3453638 3433032 3402809 3368246 3336726 3315791 3310449 3321066 
1993.675 3343971 3374257 3406649 3437841 3466196 3491748 3513560 3530195 
1997.533 3539314 3538980 3528925 3510353 3485635 3457513 3427889 3396530 
2001.390 3362637 3325774 3287379 3251290 3222849 3207394 3208896 3228056 
2005.248 3262273 3307110 3356860 3406048 3449697 3483331 3503205 3507413 
2009.105 3496624 3474413 3447927 3423881 3409087 3406916 3416467 3433767 
2012.962 3452603 3469002 3481560 3491848 3502737 3517601 3537176 3560393 
2016.820 3584881 3609003 3632391 3655880 3680541 3705904 3729699 3749183 
2020.677 3762652 3771108 3778628 3791162 3813356 3846383 3886499 3925784 
2024.535 3955274 3969184 3965305 3946280 3917659 3885329 3852968 3821847 
2028.392 3792934 3767598 3748782 3742031 3751622 3779998 3824989 3881250 
2032.250 3941431 3999647 4053022 4101687 4147380 4191907 4235535 4276959 
2036.107 4314839 4349276 4382778 4418894 4460670 4508309 4558699 4605646 
2039.964 4643388 4667803 4678487 4678956 4675037 4671085 4669176 4668807 
2043.822 4666865 4660535 4649047 4634011 4619543 4611808 4615659 4634781 
2047.679 4670080 4719451 4777671 4836535 4886192 4917390 4923021 4901507 
2051.537 4857845 4801926 4746784 4706086 4689171 4698148 4728461 4771305 
2055.394 4815461 4852785 4879457 4896480 4907438 4916452 4925903 4935923 
2059.251 4945776 4954288 4961594 4968297 4975738 4983681 4991289 4996250 
2063.109 4997188 4993468 4987502 4981972 4980329 4984150 4992731 5003959 
2066.966 5014618 5022797 5028025 5030942 5032450 5032584 5030204 5022763 
2070.824 5008987 4989178 4965415 4941988 4923154 4911559 4907404 4909549 
2074.681 4915145 4922585 4931633 4943631 4959918 4981033 5005635 5030808 
2078.539 5053032 5069693 5079750 5084041 5084644 5083236 5080923 5078074 
2082.396 5074587 5070598 5067045 5065100 5065838 5068653 5072207 5074286 
2086.253 5073146 5068251 5060776 5053032 5046965 5043277 5040261 5035300 
2090.111 5025177 5008249 4985189 4959014 4934649 4916653 4907773 4909281 
2093.968 4919602 4936225 4955830 4975704 4993770 5008350 5018841 5025344 
2097.826 5028931 5031277 5034897 5041870 5053200 5068888 5088231 5109520 
2101.683 5132016 5155520 5180635 5207528 5236100 5264405 5289895 5310891 
2105.541 5326958 5340006 5353357 5371304 5396129 5428169 5464875 5502322 
2109.398 5537223 5567629 5594411 5619451 5644558 5670238 5694879 5714888 
2113.255 5727276 5730130 5724356 5712739 5699579 5688803 5682491 5681853 
2117.113 5686251 5695080 5708005 5725497 5747253 5772436 5799063 5823980 
2120.970 5844264 5858067 5865086 5866664 5865186 5862970 5861794 5861794 
2124.828 5863373 5866227 5870593 5877176 5886076 5896858 5907874 5916775 
2128.685 5921175 5919059 5910427 5896589 5880165 5864783 5853969 5851384 
2132.542 5859880 5880904 5914760 5959166 6009591 6059516 6101820 6131863 
2136.400 6147422 6150715 6146918 6142280 6142079 6147456 6157067 6166813 
2140.257 6172896 6172762 6166544 6156933 6146380 6137004 6128872 6120168 
2144.115 6108843 6093756 6075342 6054712 6033981 6014529 5996253 5978583 
2147.972 5960443 5941396 5921511 5901224 5879561 5854708 5823678 5783550 
2151.830 5733018 5671984 5602198 5525343 5442294 5352351 5255350 5153408 
2155.687 5054440 4972721 4926103 4933610 5006439 5143986 5329642 5536686 
2159.544 5736039 5903273 6025347 6100812 6135727 6138819 6118925 6083037 
2163.402 6035829 5982345 5928599 5881072 5844532 5821831 5811085 5807089 
2167.259 5802522 5791240 5769212 5735334 5691119 5639120 5581422 5519605 
2171.117 5454574 5387239 5319646 5254579 5195423 5145193 5106235 5079414 
2174.974 5063826 5057558 5057491 5059334 5058128 5049043 5028662 4996686 
2178.832 4955729 4913101 4876978 4855198 4852317 4867662 4896312 4929756 
2182.689 4959985 4980966 4990317 4988541 4977313 4958478 4933242 4902947 
2186.546 4869673 4836971 4810838 4797035 4799882 4820420 4855835 4900668 
2190.404 4948189 4992597 5030305 5060239 5082968 5099496 5111096 5117567 
2194.261 5119545 5117600 5113275 5108380 5104324 5102278 5102178 5103787 
2198.119 5105966 5108983 5113409 5119981 5129703 5142511 5157633 5174197 
2201.976 5191600 5209238 5227146 5245020 5262527 5277754 5289257 5295563 
2205.833 5296670 5293417 5288050 5282415 5277720 5274198 5271213 5267994 
2209.691 5264606 5262192 5262125 5265009 5270878 5277754 5283556 5285971 
2213.548 5285602 5284025 5284596 5290163 5301735 5317499 5334371 5347621 
2217.406 5354364 5354498 5350170 5345273 5342824 5344904 5350338 5356577 
2221.263 5359899 5358322 5350942 5338732 5323470 5306497 5287983 5267524 
2225.121 5244182 5217454 5188582 5159443 5132922 5111900 5098557 5093897 
2228.978 5097853 5109319 5126619 5147406 5168966 5188850 5205985 5219600 
2232.835 5230499 5240661 5251560 5264271 5278391 5292075 5303579 5311629 
2236.693 5316560 5320451 5326187 5336887 5353189 5374390 5397639 5419412 
2240.550 5437094 5450146 5459507 5467291 5475747 5486048 5498094 5510544 
2244.408 5522256 5532692 5542458 5552929 5565413 5580349 5597030 5613845 
2248.265 5628480 5639188 5644995 5646169 5643786 5639859 5636334 5635562 
2252.123 5639725 5650668 5669432 5695853 5728619 5764478 5799298 5828581 
2255.980 5848059 5855178 5848630 5829689 5800172 5763706 5724389 5686385 
2259.837 5652984 5626667 5608173 5596794 5590182 5585886 5581590 5576187 
2263.695 5570448 5566353 5566320 5572361 5585215 5603776 5625694 5648016 
2267.552 5668560 5685513 5698236 5706864 5711933 5713579 5712370 5708912 
2271.410 5703977 5698773 5694476 5692361 5692227 5693670 5696087 5698740 
2275.267 5701492 5705051 5710322 5718044 5728485 5741042 5754103 5765989 
2279.125 5775626 5782778 5787915 5792818 5799298 5808701 5822167 5839730 
2282.982 5860350 5882516 5903878 5921813 5934174 5939280 5937063 5928599 
2286.839 5916607 5903676 5892861 5885673 5882147 5881005 5880165 5877848 
2290.697 5872709 5864985 5855783 5846581 5839025 5834122 5832308 5833014 
2294.554 5836103 5840805 5846682 5853264 5859779 5865757 5870425 5873180 
2298.412 5874053 5873280 5871030 5868343 5865321 5862365 5859443 5856790 
2302.269 5854272 5852122 5850275 5848327 5845540 5841006 5833685 5823073 
2306.126 5809037 5792146 5773577 5754472 5735905 5718615 5702768 5688400 
2309.984 5675374 5663189 5651473 5639691 5627607 5614919 5602164 5590283 
2313.841 5580382 5573569 5570515 5570851 5573401 5575952 5576825 5574140 
2317.699 5567326 5556822 5543968 5530712 5518799 5510074 5505746 5506249 
2321.556 5511014 5517759 5523363 5523028 5512356 5487055 5445180 5388011 
2325.414 5319244 5244585 5170777 5103586 5046361 5000272 4963806 4934314 
2329.271 4909281 4887164 4868366 4854729 4848296 4850473 4861598 4880128 
2333.128 4903517 4928516 4952143 4972319 4987871 4998663 5005802 5010796 
2336.986 5015154 5020215 5026484 5033590 5040495 5045993 5049345 5050484 
2340.843 5050652 5051658 5054675 5060608 5068855 5078476 5089036 5101507 
2344.701 5119444 5148177 5193377 5259475 5347084 5453232 5570682 5690749 
2348.558 5803765 5901157 5976466 6025918 6048563 6046413 6023835 5987284 
2352.416 5942639 5895884 5850846 5809910 5773577 5741143 5712001 5685277 
2356.273 5660705 5638113 5618242 5601963 5590216 5584510 5585819 5594277 
2360.130 5609415 5630024 5654562 5681216 5709046 5738423 5770253 5806216 
2363.988 5847521 5894775 5946838 6002065 6057769 6111935 6163553 6212623 
2367.845 6259715 6305770 6351292 6396281 6440199 6482237 6522799 6562357 
2371.703 6602388 6644442 6689663 6738692 6791293 6847233 6906312 6968631 
2375.560 7034696 7105285 7180601 7260546 7344550 7431806 7521507 7613182 
2379.417 7706563 7801481 7897467 7993845 8089434 8182917 8273348 8359980 
2383.275 8442507 8520725 8594193 8662399 8724530 8779841 8828024 8869381 
2387.132 8904282 8933775 8958533 8978626 8994017 9004503 9010254 9011879 
2390.990 9010694 9008394 9006331 9005485 9005925 9007142 9008394 9009003 
2394.847 9009003 9008868 9009477 9011641 9016310 9023685 9034003 9047332 
2398.705 9063843 9083602 9106982 9134288 9165725 9201327 9241129 9284657 
2402.562 9331373 9380769 9431524 9482963 9534848 9587280 9641787 9699993 
2406.419 9763968 9835069 9913200 9997210 10085136 10174301 10263043 10350548 
2410.277 10437086 10523744 10611505 10700948 10791463 10881724 10969898 
2413.652 11054112 11132802 11204808 11269650 11326715 11375521 11416271 
2417.027 11449065 11474954 11495197 11511392 11524900 11537014 11548276 
2420.403 11558791 11568489 11577132 11584789 11591356 11597074 11602212 
2423.778 11606942 11612353 11619193 11629165 11643868 11665140 11694412 
2427.153 11732367 11779244 11834878 11898486 11969564 12047261 12130628 
2430.528 12218784 12310705 12405613 12503133 12603336 12706803 12813912 
2433.904 12925588 13041320 13160842 13283162 13407773 13534368 13663770 
2437.279 13797143 13936032 14081229 14233082 14391152 14554420 14721520 
2440.654 14891359 15062911 15235903 15409891 15585151 15761890 15940763 
2444.029 16122738 16309053 16500302 16696524 16896796 17099264 17301824 
2447.405 17501928 17698154 17889774 18076744 18259996 18439834 18616424 
2450.780 18789418 18957948 19121074 19277886 19427894 19570292 19705146 
2454.155 19832098 19950868 20061514 20163788 20257304 20341428 20414770 
2457.530 20475446 20521260 20550232 20560794 20552560 20525778 20481732 
2460.906 20422028 20348166 20261366 20162920 20053914 19935708 19810146 
2464.281 19679248 19545130 19410084 19276292 19145588 19019978 18901498 
2467.656 18791980 18693728 18608850 18539234 18486646 18452486 18437552 
2471.031 18442080 18465450 18506388 18562126 18629772 18705626 18786476 
2474.406 18869660 18953762 19037840 19121730 19205290 19287618 19367608 
2477.782 19443312 19512968 19575008 19628146 19672000 19706394 19731464 
2481.157 19747240 19753796 19751088 19739092 19718356 19689336 19652932 
2484.532 19610296 19563258 19513348 19462338 19411956 19362894 19315434 
2487.907 19268844 19221740 19172634 19119930 19062940 19001666 18936488 
2491.283 18867758 18795820 18720642 18641602 18558012 18469218 18375016 
2494.658 18275374 18170260 18059612 17943086 17820240 17690526 17553986 
2498.033 17411002 17262690 17110292 16955190 16798766 16642226 16486535 
2501.408 16332550 16181543 16034303 15891545 15753232 15618947 15487657 
2504.784 15358295 15230240 15103665 14979389 14859196 14745138 14638545 
2508.159 14540715 14451575 14370671 14297077 14229418 14166527 14107275 
2511.534 14051179 13997382 13945886 13896619 13849922 13806173 13765779 
2514.909 13728981 13695468 13665103 13637305 13612107 13589646 13570398 
2518.285 13555186 13544247 13538265 13536932 13539975 13546742 13556827 
2521.660 13569680 13585030 13602465 13621851 13642913 13665752 13690749 
2525.035 13718243 13748577 13781684 13816914 13852556 13886526 13916017 
2528.410 13938461 13952250 13956767 13952078 13939625 13921252 13899048 
2531.786 13874826 13850744 13827654 13806276 13786814 13768994 13752202 
2535.161 13736436 13721560 13708428 13697485 13689416 13684388 13681755 
2538.536 13680149 13678028 13674062 13667736 13659564 13650810 13643049 
2541.911 13637510 13634707 13634467 13635732 13637886 13640177 13642570 
2545.287 13645511 13648999 13652897 13656282 13657649 13655632 13648999 
2548.662 13637647 13622330 13604552 13586397 13569510 13555151 13543734 
2552.037 13534847 13528216 13522848 13518063 13513620 13509654 13506408 
2555.412 13504493 13504391 13506032 13509450 13513688 13517585 13519738 
2558.788 13518952 13514201 13505177 13491984 13475099 13455071 13432549 
2562.163 13407773 13380914 13352314 13322110 13290985 13259728 13229188 
2565.538 13200223 13173752 13150185 13129968 13113371 13100564 13091754 
2568.913 13086803 13085915 13088750 13095204 13104560 13116205 13129387 
2572.289 13143321 13157426 13171463 13185091 13198651 13212314 13226490 
2575.664 13240802 13255423 13269395 13282513 13294538 13305984 13317600 
2579.039 13330891 13347120 13367588 13393011 13423424 13458693 13498170 
2582.414 13541102 13586432 13633099 13679601 13724843 13767695 13807678 
2585.790 13845031 13881018 13917112 13954884 13995637 14039680 14086636 
2589.165 14135274 14184603 14233560 14281427 14328102 14373719 14418382 
2592.540 14462125 14504844 14546437 14586732 14625899 14663939 14701024 
2595.915 14737288 14772595 14806911 14840270 14872671 14904629 14936418 
2599.291 14968449 15001306 15035435 15071761 15111144 15154717 15202891 
2602.666 15255807 15312677 15371854 15431760 15490988 15548885 15606033 
2606.041 15663911 15724029 15787901 15856180 15928321 16003259 16079515 
2609.416 16156266 16232962 16309569 16386086 16462788 16539022 16614100 
2612.792 16686779 16756475 16822188 16883566 16940582 16993124 17041090 
2616.167 17085028 17124904 17161786 17196430 17230180 17263690 17297444 
2619.542 17331064 17363892 17395450 17425386 17453772 17481332 17508896 
2622.917 17537288 17566924 17598218 17630824 17664644 17699638 17735360 
2626.292 17771638 17808090 17843992 17878862 17912698 17945366 17977896 
2629.668 18011154 18046108 18083550 18123656 18166012 18209994 18254778 
2633.043 18299738 18344530 18388980 18432884 18476098 18518488 18559776 
2636.418 18600134 18639528 18678578 18717736 18757622 18798656 18841044 
2639.793 18884922 18930398 18977262 19025620 19075438 19126336 19178174 
2643.169 19230294 19282250 19333900 19384930 19435552 19486004 19536848 
2646.544 19588386 19641044 19695370 19751680 19810318 19871466 19934840 
2649.919 19999958 20066338 20133106 20199784 20266190 20332402 20398724 
2653.294 20466102 20534426 20604326 20675938 20749024 20823650 20899784 
2656.670 20977254 21056094 21135990 21216424 21297116 21377232 21456596 
2660.045 21534964 21612374 21689446 21766186 21843114 21920262 21997356 
2663.420 22074114 22150260 22225406 22299414 22372284 22444050 22515340 
2666.795 22586464 22657918 22730080 22803162 22877512 22952890 23029330 
2670.171 23106970 23185776 23265996 23347700 23430852 23515036 23599794 
2673.546 23684570 23768696 23851720 23933358 24013892 24093214 24171676 
2676.921 24249730 24327378 24405006 24482998 24561598 24641162 24722388 
2680.296 24805630 24891202 24979810 25071980 25168386 25269516 25375764 
2683.672 25487416 25604014 25725496 25851198 25981050 26114672 26252348 
2687.047 26394258 26540510 26691040 26845534 27003292 27163788 27326532 
2690.422 27491242 27657604 27825938 27996102 28168280 28342328 28518570 
2693.797 28697220 28878740 29063560 29252146 29444890 29641658 29842134 
2697.173 30045618 30251574 30459014 30667584 30877038 31086950 31297672 
2700.548 31509604 31722638 31937200 32152944 32369398 32585602 32800164 
2703.923 33011578 33218480 33419508 33613932 33801064 33980256 34151340 
2707.298 34313748 34467212 34611692 34746880 34873100 34990560 35099504 
2710.674 35200132 35292416 35376700 35453204 35522092 35583944 35638864 
2714.049 35686560 35726600 35757752 35779268 35790280 35790744 35780888 
2717.424 35761460 35733400 35697600 35654652 35605308 35550216 35490596 
2720.799 35428036 35364300 35301796 35242392 35187988 35140028 35099680 
2724.175 35067856 35045332 35032904 35030716 35038800 35057008 35085136 
2727.550 35123068 35171032 35229456 35298528 35378140 35467584 35565244 
2730.925 35669116 35777072 35887436 35998836 36110728 36223084 36335976 
2734.300 36449432 36563212 36676656 36789448 36900932 37010680 37118504 
2737.676 37223976 37326796 37426716 37523340 37616840 37707796 37796776 
2741.051 37884732 37972524 38060732 38149752 38240200 38332588 38427640 
2744.426 38526148 38629244 38737328 38850220 38967600 39088092 39210360 
2747.801 39332516 39453040 39570472 39683440 39790800 39891548 39985196 
2751.177 40071048 40149184 40219436 40282072 40336896 40384204 40423696 
2754.552 40455516 40479848 40496980 40506980 40510112 40505492 40492252 
2757.927 40469408 40435440 40389368 40330316 40257936 40172116 40072940 
2761.302 39960672 39835616 39698432 39549712 39390960 39223672 39049520 
2764.677 38870332 38688244 38505112 38323108 38144292 37970788 37804440 
2768.053 37646832 37499068 37361896 37235816 37121104 37018044 36926836 
2771.428 36847728 36780468 36725080 36680588 36646264 36620816 36602972 
2774.803 36591324 36584408 36580584 36577988 36574820 36568868 36558492 
2778.178 36541476 36516464 36481724 36435704 36377480 36306364 36222796 
2781.554 36128048 36024504 35915040 35803160 35691452 35582364 35477040 
2784.929 35375948 35278940 35185440 35094868 35006400 34918956 34831492 
2788.304 34742468 34650696 34555036 34454480 34349180 34239532 34126648 
2791.679 34011676 33896416 33782300 33671004 33564172 33463024 33368484 
2795.055 33281080 33200740 33127460 33060882 33000890 32947768 32901802 
2798.430 32863308 32832612 32809562 32793876 32785122 32782868 32787372 
2801.805 32798770 32817386 32843116 32875102 32912024 32952200 32993454 
2805.180 33034566 33074540 33113480 33151600 33189726 33227924 33265948 
2808.556 33302936 33337570 33368516 33394280 33413746 33425912 33430208 
2811.931 33426236 33414032 33393886 33365942 33330842 33288878 33240408 
2815.306 33185900 33126068 33062134 32995884 32929894 32866988 32810312 
2818.681 32763254 32728344 32708160 32704588 32719058 32752462 32804772 
2822.057 32875496 32963138 33065744 33180748 33305228 33436398 33571584 
2825.432 33708024 33843116 33974304 34098904 34214612 34319168 34411080 
2828.807 34489560 34554248 34605300 34642836 34667564 34679768 34680484 
2832.182 34670576 34651560 34625148 34593712 34559052 34522924 34487088 
2835.558 34452184 34418756 34386976 34356460 34326764 34297756 34269504 
2838.933 34242576 34218308 34198232 34184392 34178800 34183640 34200808 
2842.308 34232396 34280436 34347600 34437084 34552380 34697496 34876012 
2845.683 35090200 35340832 35626384 35942032 36279456 36626328 36967780 
2849.059 37285024 37560044 37775524 37917380 37977404 37953648 37850388 
2852.434 37677220 37447668 37177520 36882068 36576440 36273832 35984976 
2855.809 35718216 35479088 35270384 35092028 34941684 34815912 34709804 
2859.184 34619120 34540148 34469652 34405160 34344444 34284956 34224508 
2862.560 34160772 34092132 34017912 33938728 33856368 33773632 33694024 
2865.935 33621380 33559232 33511304 33480488 33469394 33479918 33512916 
2869.310 33568328 33644720 33739716 33849564 33969612 34094924 34220172 
2872.685 34340432 34451932 34551732 34638532 34712784 34775564 34829336 
2876.061 34876368 34918848 34958672 34997208 35035600 35074752 35115740 
2879.436 35159676 35207396 35259356 35315996 35376988 35441772 35509756 
2882.811 35580060 35652140 35724764 35796684 35866204 35931236 35989800 
2886.186 36040052 36081168 36113284 36137772 36157364 36175436 36195932 
2889.562 36223012 36260616 36312664 36383280 36476640 36598320 36754936 
2892.937 36954036 37205344 37519512 37906536 38376308 38935164 39584340 
2896.312 40317264 41118556 41961508 42807776 43612728 44326292 44898328 
2899.687 45289228 45471088 45434076 45186340 44753220 44172712 43486468 
2903.063 42739036 41970008 41210828 40486504 39814336 39204992 38665316 
2906.438 38198052 37803608 37480428 37225708 37036332 36908904 36840912 
2909.813 36830416 36875900 36975248 37125904 37323368 37562176 37834696 
2913.188 38131664 38443532 38758952 39066196 39354356 39612216 39831184 
2916.563 40005356 40131844 40211368 40247064 40243940 40207260 40141440 
2919.939 40049828 39934592 39796540 39636356 39455360 39255440 39039984 
2923.314 38813804 38582852 38354196 38134920 37931844 37751164 37597148 
2926.689 37472768 37378652 37313872 37275672 37259752 37261628 37275492 
2930.064 37296036 37318240 37337448 37349980 37353084 37344240 37321528 
2933.440 37283144 37227152 37152108 37056976 36942056 36808668 36659532 
2936.815 36498732 36330536 36159448 35989620 35824496 35667316 35521156 
2940.190 35388568 35272688 35175668 35099572 35044580 35009632 34991064 
2943.565 34982984 34977920 34966536 34938992 34886460 34801696 34680052 
2946.941 34520844 34326872 34104636 33862028 33608776 33353922 33104934 
2950.316 32867956 32646716 32443654 32259568 32094788 31949256 31822600 
2953.691 31713978 31622096 31545482 31481926 31429168 31384676 31346072 
2957.066 31311776 31280440 31251882 31226318 31204564 31187226 31175016 
2960.442 31167682 31164976 31165936 31170102 31177258 31187760 31202678 
2963.817 31222578 31248322 31280190 31317864 31360708 31408578 31461440 
2967.192 31519972 31585034 31657272 31737146 31824450 31919084 32020732 
2970.567 32129786 32247220 32374214 32511998 32660720 32819212 32984980 
2973.943 33153746 33320218 33478700 33622704 33746164 33843224 33908456 
2977.318 33937512 33928160 33880048 33795444 33678772 33536934 33377178 
2980.693 33207356 33035352 32867134 32707944 32561458 32429126 32311070 
2984.068 32205254 32108132 32015026 31921048 31821884 31714548 31598076 
2987.444 31473090 31341940 31206948 31070186 30932220 30791808 30646394 
2990.819 30491998 30324794 30141994 29942622 29728118 29502018 29270010 
2994.194 29037876 28811320 28594262 28389054 28195398 28011512 27835158 
2997.569 27663642 27494842 27327802 27162024 26997720 26835206 26674514 
3000.945 26515960 26359330 26204974 26053204 25904724 25760232 25620288 
3004.320 25485378 25355496 25230640 25111018 24996936 24888850 24787528 
3007.695 24693628 24607358 24528432 24455796 24387622 24321912 24256808 
3011.070 24190872 24123720 24055600 23988014 23922612 23861068 23804712 
3014.446 23753718 23707980 23666480 23628482 23593252 23560720 23530916 
3017.821 23504228 23480934 23460578 23442604 23425958 23409522 23393052 
3021.196 23376442 23360392 23345672 23333086 23322876 23315430 23310466 
3024.571 23307982 23308368 23312598 23321724 23337212 23360148 23390674 
3027.947 23427914 23470162 23514372 23557326 23595352 23625228 23644646 
3031.322 23652344 23648076 23633100 23609382 23579258 23544908 23508284 
3034.697 23470652 23432846 23395394 23358678 23323296 23289978 23259494 
3038.072 23232544 23209614 23190774 23175782 23163968 23154498 23146424 
3041.448 23139190 23132306 23125804 23120108 23115776 23113608 23114168 
3044.823 23118082 23125246 23135450 23148276 23163268 23180396 23199374 
3048.198 23220274 23242820 23266730 23291482 23316654 23341828 23366790 
3051.573 23391896 23417494 23443652 23470302 23496672 23521926 23544942 
3054.948 23565510 23583772 23601020 23618862 23638838 23662352 23690064 
3058.324 23721942 23757392 23795716 23836284 23878536 23921876 23965990 
3061.699 24010146 24053988 24097172 24140046 24183272 24228498 24277094 
3065.074 24330674 24389830 24454570 24524086 24596664 24670410 24743748 
3068.449 24814786 24882394 24945488 25003850 25056956 25105050 25148406 
3071.825 25187802 25223900 25257822 25290412 25322620 25355250 25388656 
3075.200 25423506 25460008 25498238 25538224 25579728 25622080 25664716 
3078.575 25706724 25747258 25786110 25822996 25858618 25893892 25930082 
3081.950 25968388 26009650 26053978 26100844 26149474 26198850 26248404 
3085.326 26297652 26347324 26397884 26449892 26503844 26559424 26616066 
3088.701 26673740 26732018 26791328 26852442 26916244 26982912 27052448 
3092.076 27123826 27195710 27266938 27336694 27404840 27472322 27539992 
3095.451 27609052 27680312 27754088 27830176 27908468 27988398 28069688 
3098.827 28151946 28234574 28317290 28399452 28480748 28560890 28639880 
3102.202 28717928 28794892 28870560 28944896 29017650 29089210 29160110 
3105.577 29231624 29304640 29380360 29458684 29539362 29621332 29703780 
3108.952 29785886 29867584 29949224 30031200 30113974 30197438 30281060 
3112.328 30364448 30447498 30530032 30612580 30695464 30778504 30861314 
3115.703 30943036 31022780 31100688 31177114 31253554 31331468 31412102 
3119.078 31495464 31580866 31666502 31750548 31831830 31910062 31985990 
3122.453 32061398 32137920 32216634 32298006 32381394 32465648 32549388 
3125.829 32631568 32711912 32790516 32868564 32947232 33028130 33112374 
3129.204 33200492 33292350 33387016 33482742 33577848 33670856 33761096 
3132.579 33848848 33935004 34021064 34108224 34197120 34287576 34379016 
3135.954 34470372 34560772 34649692 34737188 34823988 34910840 34998608 
3139.330 35087828 35178684 35271072 35364408 35457660 35550216 35640952 
3142.705 35729476 35815684 35900252 35983824 36067560 36152536 36239256 
3146.080 36328124 36418948 36511672 36605852 36701500 36798392 36895956 
3149.455 36993724 37090936 37187120 37282100 37376124 37469952 37564524 
3152.831 37660600 37758176 37856820 37955204 38052084 38146280 38237852 
3156.206 38326908 38414536 38502072 38590564 38680892 38773588 38869028 
3159.581 38967344 39068624 39172576 39278904 39386752 39495060 39602668 
3162.956 39708344 39811248 39910796 40006992 40099792 40189888 40278180 
3166.332 40365332 40452536 40540772 40630560 40721636 40812844 40902572 
3169.707 40989340 41071788 41149624 41223836 41296048 41368532 41443256 
3173.082 41521668 41604148 41690540 41779652 41870204 41960412 42048844 
3176.457 42133904 42214636 42290780 42362368 42430652 42497072 42563068 
3179.833 42629916 42698132 42767044 42835936 42903812 42970160 43035204 
3183.208 43099380 43163676 43228748 43295076 43362552 43430732 43499468 
3186.583 43568512 43637788 43707584 43777760 43847836 43917848 43987400 
3189.958 44056632 44126056 44195932 44267068 44339388 44412564 44485976 
3193.333 44558736 44630224 44700328 44768868 44836312 44902588 44967852 
3196.709 45031652 45093916 45154356 45213036 45270216 45326300 45381472 
3200.084 45435692 45488820 45540808 45591960 45642676 45693436 45745156 
3203.459 45798136 45853148 45909972 45969084 46030528 46094152 46159484 
3206.834 46225448 46290720 46353392 46412384 46467360 46519208 46569776 
3210.210 46621308 46675724 46733648 46794532 46856720 46918104 46977024 
3213.585 47032628 47085544 47136620 47187364 47238636 47291064 47344488 
3216.960 47398328 47452396 47506436 47560884 47616120 47672620 47731048 
3220.335 47791744 47854704 47920336 47988456 48058588 48130504 48203584 
3223.711 48277268 48351000 48424672 48498168 48570940 48642384 48711324 
3227.086 48776528 48836960 48892248 48943128 48990860 49037524 49085228 
3230.461 49135316 49188380 49244304 49302868 49363524 49426116 49491020 
3233.836 49558052 49627100 49697944 49769944 49842560 49915328 49988300 
3237.212 50061692 50135280 50208884 50281868 50353448 50423180 50491100 
3240.587 50557948 50624700 50692128 50760424 50829104 50896900 50963144 
3243.962 51027196 51090068 51153136 51218892 51289064 51364692 51445736 
3247.337 51530944 51618216 51706028 51792664 51877300 51959748 52040276 
3250.713 52119132 52196584 52273000 52348464 52423228 52497740 52572528 
3254.088 52648120 52724804 52803152 52882784 52963552 53044488 53124500 
3257.463 53202468 53276892 53347208 53413228 53475396 53534756 53592672 
3260.838 53650512 53708968 53768552 53829308 53890708 53952384 54013500 
3264.214 54073656 54132276 54188692 54242972 54294672 54344384 54392528 
3267.589 54439776 54486688 54533496 54580456 54627048 54673196 54718932 
3270.964 54764256 54809176 54853836 54897636 54940164 54980928 55019624 
3274.339 55056932 55093420 55130588 55168920 55209252 55251356 55294748 
3277.715 55338664 55382856 55427236 55472640 55519132 55566880 55615308 
3281.090 55663480 55710340 55755356 55798832 55841712 55885760 55932720 
3284.465 55983600 56039160 56099032 56162264 56227808 56294336 56361104 
3287.840 56427320 56492712 56557212 56621036 56684952 56749964 56817296 
3291.216 56887852 56962528 57041492 57124624 57211936 57302968 57397456 
3294.591 57495144 57595504 57698156 57802424 57907852 58014324 58122268 
3297.966 58232508 58345772 58463008 58583840 58708312 58835316 58964524 
3301.341 59095480 59228756 59364840 59504768 59648892 59797200 59949292 
3304.717 60104588 60262920 60424500 60589876 60759620 60934008 61112964 
3308.092 61296192 61483008 61673192 61866320 62062480 62261520 62463216 
3311.467 62667184 62873052 63080700 63290672 63504124 63721932 63944960 
3314.842 64173444 64406352 64642452 64880228 65118520 65356588 65594716 
3318.218 65833128 66072292 66312276 66552900 66793540 67033572 67272048 
3321.593 67508328 67741936 67971920 68197960 68420192 68638936 68855496 
3324.968 69071112 69286536 69501312 69714608 69923920 70127184 70322784 
3328.343 70510208 70689536 70861832 71027680 71186912 71338632 71481496 
3331.719 71613984 71734928 71843560 71939352 72021280 72087976 72137688 
3335.094 72169536 72183232 72180448 72163936 72136712 72101000 72057384 
3338.469 72004576 71940336 71861856 71767376 71656688 71530568 71390848 
3341.844 71238840 71075016 70898968 70709376 70504368 70282576 70042800 
3345.219 69784136 69506336 69209304 68894016 68561952 68216104 67859296 
3348.595 67495120 67126072 66753856 66378868 66000812 65619148 65233320 
3351.970 64843140 64448700 64050280 63648196 63242836 62835948 62429548 
3355.345 62026592 61630420 61243728 60867596 60501428 60142912 59789556 
3358.720 59439076 59091304 58747112 58409104 58080148 57761772 57454412 
3362.096 57157092 56867564 56583368 56302976 56025328 55750460 55479224 
3365.471 55212528 54951704 54697772 54451836 54214968 53987840 53770428 
3368.846 53562384 53362120 53167900 52977928 52790204 52603236 52415076 
3372.221 52224760 52030712 51831788 51627840 51419180 51207004 50992992 
3375.597 50778528 50564168 50349428 50132752 49911948 49684676 49449508 
3378.972 49205780 48954032 48694756 48428560 48155640 47875308 47587096 
3382.347 47290140 46983892 46668524 46344652 46013840 45678088 45339576 
3385.722 45000668 44663052 44327572 43994148 43661600 43328392 42993280 
3389.098 42655504 42315176 41973732 41632736 41293648 40957808 40625576 
3392.473 40296940 39971972 39650948 39333932 39021388 38713056 38407912 
3395.848 38104536 37801764 37498812 37196108 36894872 36597276 36304456 
3399.223 36016940 35733972 35453276 35172612 34890340 34605984 34320632 
3402.599 34035904 33753968 33476192 33202924 32933648 32667436 32403346 
3405.974 32140880 31880040 31620956 31363808 31108734 30855340 30602874 
3409.349 30351090 30099876 29849554 29600794 29354516 29111498 28872154 
3412.724 28636730 28405608 28178640 27956064 27737488 27523542 27313688 
3416.100 27108202 26906974 26709538 26515468 26324194 26134870 25946578 
3419.475 25758720 25571084 25384124 25198406 25015258 24836046 24661784 
3422.850 24493060 24329796 24171534 24017044 23865162 23714102 23562642 
3426.225 23410046 23255790 23100154 22944298 22789368 22636624 22486900 
3429.601 22340644 22197752 22057904 21920542 21785522 21653086 21523684 
3432.976 21397696 21275646 21157210 21041972 20929304 20817914 20707250 
3436.351 20596578 20485344 20373096 20259976 20145704 20030458 19914964 
3439.726 19799742 19685558 19573136 19462580 19354200 19247716 19143096 
3443.102 19039954 18938082 18836476 18734480 18630568 18523398 18412452 
3446.477 18297596 18179762 18061616 17945746 17834360 17729354 17630654 
3449.852 17537358 17447288 17358858 17270206 17180332 17089338 16997052 
3453.227 16904064 16810510 16716598 16622156 16527355 16431747 16335234 
3456.603 16237468 16138280 16037671 15935712 15832881 15730040 15628016 
3459.978 15527662 15429357 15333168 15238545 15145281 15053237 14962208 
3463.353 14872569 14784697 14698693 14614282 14531362 14449450 14368377 
3466.728 14288344 14209629 14132605 14057237 13983388 13910440 13837710 
3470.104 13764343 13689894 13613816 13535838 13455960 13374080 13290645 
3473.479 13206542 13123138 13041901 12964537 12892034 12824457 12761498 
3476.854 12701822 12644406 12588397 12533417 12479911 12427843 12377384 
3480.229 12327953 12278494 12227678 12175266 12121463 12067088 12014150 
3483.604 11963637 11916569 11872708 11831302 11790854 11750137 11708198 
3486.980 11664459 11619602 11574171 11529324 11486113 11445799 11408992 
3490.355 11376440 11348482 11325048 11305120 11287878 11272031 11256525 
3493.730 11240952 11224869 11208990 11193894 11180023 11168362 11159658 
3497.105 11154898 11155137 11161970 11176079 11198076 11227452 11262782 
3500.481 11301719 11341680 11380386 11416442 11449541 11480805 11512243 
3503.856 11545996 11584073 11627702 11677394 11732775 11792692 11856295 
3507.231 11922563 11991226 12062591 12137239 12215921 12299764 12388805 
3510.606 12482946 12581234 12682240 12784496 12886982 12988878 13090013 
3513.982 13190078 13289038 13386382 13481012 13572006 13658436 13739754 
3517.357 13816468 13889126 13958545 14024862 14087902 14146057 14196893 
3520.732 14237909 14266772 14281223 14280982 14265848 14236881 14195421 
3524.107 14142737 14079414 14005733 13921046 13824130 13714070 13590260 
3527.483 13452918 13303661 13144346 12977612 12805551 12630011 12452086 
3530.858 12273007 12093832 11915513 11738868 11564098 11390317 11216233 
3534.233 11039735 10859165 10674120 10485216 10294765 10105247 9919234 
3537.608 9738384 9563435 9394278 9230704 9072571 8920009 8773417 8632553 
3541.466 8496837 8364979 8235492 8106820 7977679 7847329 7714893 7580138 
3545.323 7443367 7304888 7166655 7031261 6901632 6780725 6670147 6569690 
3549.181 6476755 6387808 6298979 6207514 6112742 6015906 5920101 5828950 
3553.038 5744903 5669466 5602567 5542626 5487726 5436221 5385998 5335176 
3556.896 5282046 5225000 5162796 5095439 5023869 4950501 4877949 4809196 
3560.753 4746349 4690109 4640541 4597140 4558365 4522538 4487519 4450092 
3564.610 4406074 4351618 4283115 4199568 4102757 3998644 3894924 3799551 
3568.468 3717935 3651904 3599682 3557053 3519572 3483197 3445522 3405881 
3572.325 3364907 3323704 3283973 3246416 3211232 3178288 3146246 3113874 
3576.183 3079936 3043864 3005427 2965258 2924526 2884565 2846376 2810958 
3580.040 2778810 2750033 2724892 2704187 2688683 2679248 2676315 2678448 
3583.897 2682716 2684616 2678815 2659812 2623475 2568843 2498021 2416882 
3587.755 2333260 2256115 2191938 2144652 2114884 2100035 2096106 2098203 
3591.612 2101466 2101200 2094541 2079459 2055921 2025661 1991474 1956592 
3595.470 1924275 1896486 1874156 1856919 1842910 1829866 1815592 1797924 
3599.327 1776232 1751679 1726197 1703310 1685814 1675702 1673108 1676434 
3603.185 1683153 1690471 1695959 1698787 1698620 1695527 1689173 1678729 
3607.042 1662697 1640080 1611345 1578787 1546631 1518800 1497919 1483789 
3610.899 1473715 1463275 1448149 1426208 1398185 1368469 1342477 1325693 
3614.757 1320574 1326856 1340383 1355240 1364945 1363416 1346665 1313329 
3618.614 1265508 1208188 1148584 1094071 1051089 1022925 1010337 1011699 
3622.472 1023722 1043550 1068959 1099552 1135196 1176458 1222110 1267867 
3626.329 1306981 1329149 1323233 1281625 1203736 1100083 989647 893948 
3630.187 827083 792460 784161 791464 803979 813373 815697 811182 803248 
3634.526 796244 793456 795713 801688 808626 813672 815398 813771 810153 
3638.866 806369 803580 802186 801854 801522 801057 801589 805572 816162 
3643.205 836213 867387 909055 958332 1010736 1060855 1102940 1131509 1142837 
3647.545 1133901 1103604 1051887 981212 897135 807663 723852 657114 615038 
3651.885 601733 615138 648121 690531 731121 759565 768029 753890 720367 
3656.224 676394 633819 602927 590419 596524 617859 648320 682102 713730 
3660.564 739584 758238 769921 775963 778585 780245 783298 790070 802651 
3664.903 823432 853974 895608 947838 1008145 1071982 1132140 1181907 1216329 
3669.243 1236266 1250853 1276906 1332606 1433555 1585937 1785880 2021267 
3673.100 2273435 2519983 2731761 2878495 2934267 2887167 2745665 2534847 
3676.958 2286292 2024296 1764854 1517270 1288072 1084405 914002 782303 
3680.815 690498 634748 606843 598216 601501 613711 634483 665576 707357 
3685.155 757773 810452 856663 886245 890561 865494 813373 742671 665310 
3689.494 593006 533089 488139 457424 438783 430359 430491 438020 451321 
3693.834 467839 484723 498920 508640 513715 515938 518492 524198 535013 
3698.174 550672 569052 586105 597718 600638 593438 577412 555947 533686 
3702.513 515573 504692 502868 510099 525027 546160 572104 601501 633487 
3706.853 667401 702811 738257 772378 802186 823564 832295 823863 796576 
3711.192 751433 694414 634748 582290 545264 527117 526752 539160 557572 
3715.532 575787 589191 595661 596291 593371 589589 587333 586935 587731 
3719.872 587996 586702 583816 580896 579735 582190 589058 599012 609431 
3724.211 616531 617261 610161 596291 579237 564739 559430 567725 591779 
3728.551 629439 675797 723388 764445 793223 806767 806900 799298 790800 
3732.890 786950 787614 788410 781473 759964 721927 671250 617825 573398 
3737.230 546326 539293 550307 575654 612516 660266 720235 793356 877214 
3741.570 964541 1041723 1090948 1095101 1044812 947207 827980 724483 667003 
3745.909 665377 710444 782469 860016 923797 961984 969024 946875 902348 
3750.249 844579 781572 719571 663817 619650 592741 587432 604553 640655 
3754.588 688507 739252 785224 820543 842786 852845 852911 845508 832063 
3758.928 813273 789838 764511 742074 727802 726076 737460 758570 782900 
3763.268 802750 812145 808925 795945 779348 767200 765407 775166 792925 
3767.607 811912 824826 825988 813373 789273 759034 729395 706030 692290 
3771.947 688607 693419 704238 718808 735601 754288 775365 799199 825921 
3776.286 854140 880501 900588 910151 906033 888137 860282 829307 802750 
3780.626 786419 782269 788277 799763 811083 818419 819946 816958 811879 
3784.966 807763 806402 807663 810219 812643 813937 814402 815000 816527 
3789.305 819083 821606 822900 822137 819813 817987 819182 825656 837043 
3793.645 851318 864565 872632 873031 866922 858887 856231 865727 890760 
3797.984 929309 974703 1016182 1041192 1039730 1006252 944318 866822 793721 
3802.324 744165 728632 746886 789174 840827 885249 908822 903444 868781 
3806.664 813672 753823 705731 680343 680177 700521 733477 771979 811912 
3811.003 853011 897268 947141 1002267 1058795 1108753 1142771 1151940 
3814.861 1132472 1089055 1034815 988153 964508 971615 1006418 1057301 
3818.718 1107723 1140611 1142106 1104335 1030397 934191 838072 762320 719538 
3823.058 710743 728366 760196 794219 822336 840761 851384 859817 873263 
3827.397 896869 931700 973939 1017445 1054843 1080319 1091812 1090616 
3831.255 1082046 1072712 1068893 1075204 1092609 1119184 1150611 1181409 
3835.112 1205165 1216096 1209916 1184831 1142771 1088823 1032257 982042 
3838.969 945281 925325 921174 928911 943090 958564 971316 978721 979718 
3843.309 974803 965471 954314 944750 940699 945447 961619 990411 1031327 
3847.649 1083309 1144099 1212209 1285380 1361422 1436547 1503904 1552882 
3851.506 1569775 1539847 1453435 1312897 1138352 962117 816228 719936 674967 
3855.846 671582 695012 733179 776792 820942 863668 904506 943156 979120 
3860.185 1011666 1040162 1064774 1085899 1103804 1117822 1126393 1127356 
3864.043 1120480 1108786 1097924 1095698 1108620 1138020 1178983 1221047 
3867.900 1251219 1256967 1231182 1176525 1105531 1037505 988584 966634 
3871.758 968593 984633 1002466 1012529 1011599 1002931 994761 995857 1012330 
3876.097 1044912 1089221 1137455 1181442 1213903 1229852 1227693 1209850 
3879.955 1182405 1153701 1132671 1126559 1137754 1163368 1195895 1225101 
3883.812 1239190 1229088 1191542 1131841 1063977 1005256 971283 969257 
3887.669 996522 1043151 1095798 1141741 1170445 1177389 1163767 1136425 
3891.527 1104767 1078559 1064209 1064242 1077728 1102242 1134831 1172837 
3895.384 1213770 1255140 1293854 1326756 1351052 1364380 1366508 1358796 
3899.242 1344870 1328916 1314559 1303691 1295184 1286510 1272885 1250720 
3903.099 1218489 1177522 1132107 1088856 1053713 1030929 1021895 1024884 
3906.957 1036973 1054212 1073510 1093008 1111809 1129682 1146890 1163601 
3910.814 1179448 1194499 1208421 1221645 1234172 1246334 1257333 1266172 
3914.671 1271389 1271622 1266438 1256834 1244207 1231148 1219685 1210813 
3918.529 1204401 1200015 1196559 1194200 1193802 1196061 1201443 1209484 
3922.386 1218622 1226065 1229520 1227826 1221213 1212043 1203537 1198918 
3926.244 1200480 1208653 1222841 1241017 1260855 1280395 1297311 1309806 
3930.101 1316221 1315290 1306849 1291927 1272719 1252880 1235933 1224868 
3933.958 1220648 1222775 1229288 1237362 1245271 1251750 1256967 1261852 
3937.816 1267967 1276607 1288005 1301564 1316054 1330046 1341878 1350720 
3941.673 1355705 1357134 1355705 1352315 1348227 1344371 1341646 1339951 
3945.531 1338854 1337525 1335065 1331309 1326357 1321006 1316752 1314393 
3949.388 1314758 1317583 1322236 1327786 1333769 1339785 1345900 1352581 
3953.246 1359627 1366474 1372424 1376579 1378739 1379205 1379271 1380634 
3957.103 1384523 1391736 1401609 1412678 1422717 1429732 1432391 1430264 
3960.960 1424114 1415338 1405731 1396589 1389210 1384191 1381897 1382196 
3964.818 1385055 1390041 1396789 1404468 1412412 1420058 1427072 1433089 
3968.675 1438109 1442464 1446287 1449878 1453534 1457557 1462178 1467764 
3972.533 1474280 1481661 1489308 1496257 1501643 1504569 1504935 1503039 
3976.390 1499781 1496523 1494395 1494528 1496988 1501310 1507029 1512881 
3980.248 1518035 1521626 1523355 1522856 1520163 1515342 1509091 1502175 
3984.105 1495824 1491502 1490205 1492599 1498285 1505732 1512948 1517636 
3987.962 1518002 1513380 1504469 1492932 1481561 1472751 1468296 1468961 
3991.820 1474247 1482658 1492400 1501709 1509124 1514078 1516406 1516672 
3995.677 1515840 1515109 1515541 1518135 1523355 1531136 1540912 1551186 
3999.535 1560630 1567813 1571770 
##END=
