
##TITLE=mdmaHCL00403_9
##JCAMP-DX=5.01  $$ Nicolet v. 1
##DATATYPE=INFRARED SPECTRUM
##ORIGIN=UniL
##OWNER=Nicolet
##LONGDATE=2011/08/23
##TIME=11:41:03
##SPECTROMETER/DATA SYSTEM=Nicolet iS5
##DATA PROCESSING=
Ratio against background
%Transmittance->Absorbance
Truncated
ElementMultiply or ElementDivide
##COMMENTS=
Number of sample scans: 32
Collection length: 51.19 sec
Sample gain: 2.0
Background collected on: Mar Aout 23 11:38:58 2011 (GMT+02:00);
Number of background scans: 32
Background gain: 2.0
Sample spacing:  1.000
Number of scan points: 12415
Resolution points: 8192
Number of FFT points: 65536
Apodization: N-B fort;
Phase correction: Mertz;
Laser frequency: 15798.0 cm-1
Number of rejected sample scans: 0
Number of rejected background scans: 0
Bench serial number: ASB1000141;
##RESOLUTION=4.000
##XUNITS=1/CM
##YUNITS=ABSORBANCE
##FIRSTX=649.893372
##LASTX=4000.122314
##FIRSTY=0.083706
##MAXX=4000.122314
##MINX=649.893372
##MAXY=0.234070
##MINY=-0.000746
##XFACTOR=1.000000
##YFACTOR=1.000000E-009
##NPOINTS=6950
##DELTAX=0.482117
##ZPD=6100
##XYDATA=(X++(Y..Y))
649.893 83706408 83262440 82855368 82475272 82101288 81716576 81323416 
653.268 80948896 80635808 80430008 80359232 80424304 80601104 80854800 
656.643 81156424 81495024 81881016 82333512 82864792 83469544 84121640 
660.018 84784136 85430704 86056616 86682232 87343056 88071848 88877640 
663.393 89740584 90612264 91433008 92149616 92715560 93099552 93288000 
666.767 93293576 93168608 93015272 92956000 93063992 93336672 93700648 
670.142 94059344 94316792 94399512 94268208 93919344 93386256 92723768 
673.517 91993072 91236952 90469200 89684488 88871624 88030128 87179648 
676.892 86351000 85574200 84866152 84220984 83617104 83025656 82425480 
680.267 81806808 81171448 80524640 79868408 79197656 78506056 77790912 
683.642 77063376 76346016 75670264 75064920 74545736 74111888 73748480 
687.016 73433640 73145680 72870424 72602072 72339760 72084064 71833200 
690.391 71583312 71329456 71068576 70800472 70527360 70253096 69982232 
693.766 69721456 69481640 69280352 69139760 69084752 69136032 69301952 
697.141 69577960 69945752 70379472 70850320 71336288 71823976 72307784 
700.516 72789824 73273496 73763240 74263960 74781592 75323920 75898800 
703.890 76509072 77147304 77794088 78416192 78972424 79427424 79757072 
707.265 79958024 80048488 80064696 80050960 80049680 80098168 80221392 
710.640 80432960 80735520 81120912 81572824 82064776 82565304 83039168 
714.015 83450840 83771376 83980712 84068480 84034784 83888448 83647512 
717.390 83336648 82993968 82668792 82416352 82297784 82366440 82654680 
720.765 83168528 83877400 84717480 85593088 86395512 87020952 87381704 
724.139 87429968 87163616 86628792 85906616 85098288 84306752 83607704 
727.514 83047840 82641168 82377568 82233400 82183352 82207456 82288664 
730.889 82411256 82558616 82710112 82846424 82954176 83029664 83080136 
734.264 83119776 83165080 83228048 83313696 83422656 83553400 83706456 
737.639 83884672 84090720 84322928 84571928 84822640 85056576 85259752 
741.013 85427960 85567432 85692248 85816696 85950432 86095480 86248304 
744.388 86404728 86564928 86734096 86919840 87127000 87352288 87583248 
747.763 87803352 87997984 88160568 88296040 88416576 88535592 88660704 
751.138 88790520 88916592 89030992 89131184 89223416 89320600 89436080 
754.513 89575656 89735040 89900920 90056712 90192128 90305184 90403056 
757.888 90497368 90598056 90708768 90827768 90951296 91077344 91209808 
761.262 91355968 91522064 91709824 91913920 92124544 92333840 92542000 
764.637 92759744 93009200 93317736 93708712 94199096 94791664 95474368 
768.012 96217648 96975464 97689200 98289752 98715880 98930288 98937152 
771.387 98790336 98588048 98453360 98485576 98731144 99153464 99640080 
774.762 100018896 100107384 99775432 98967280 97721312 96141616 94367560 
778.136 92524408 90688928 88888128 87103432 85294504 83419160 81453256 
781.511 79395432 77265296 75096032 72926544 70799032 68750872 66814908 
784.886 65017560 63375584 61897156 60583056 59429388 58429764 57579084 
788.261 56874064 56312784 55893748 55614708 55472484 55464920 55592148 
791.636 55859496 56277400 56858276 57614724 58553280 59670064 60946660 
795.010 62350056 63832416 65329744 66774064 68091864 69213856 70090616 
798.385 70697760 71048752 71193632 71218808 71229776 71323712 71576936 
801.760 72015528 72606808 73252080 73802664 74092312 73954752 73276560 
805.135 72020888 70240280 68065000 65675580 63267448 60989940 58929116 
808.510 57092200 55421964 53824020 52201852 50494004 48682340 46796268 
811.885 44891936 43038460 41294960 39698688 38268316 37004908 35899888 
815.259 34940392 34113028 33404552 32800450 32286226 31848054 31473730 
818.634 31154866 30886538 30666590 30494094 30367932 30286744 30249442 
822.009 30255658 30306818 30405136 30553812 30755778 31012780 31325844 
825.384 31694230 32115016 32580278 33076436 33583572 34074424 34520808 
828.759 34898380 35192484 35404780 35554348 35678288 35823168 36041672 
832.133 36386520 36898300 37601916 38496024 39547424 40682480 41788516 
835.508 42733408 43368920 43566864 43248772 42397660 41070292 39379096 
838.883 37479632 35529464 33662804 31983174 30546490 29369512 28439498 
842.258 27727034 27194866 26804474 26524062 26325780 26187446 26094792 
845.633 26038252 26013696 26020170 26057532 26123996 26216270 26328560 
849.008 26455034 26592078 26737974 26894072 27062744 27246864 27447544 
852.382 27665620 27901330 28155730 28430796 28729680 29054918 29408796 
855.757 29793268 30210828 30665914 31165796 31720356 32341126 33040288 
859.132 33827784 34714220 35710408 36828220 38082540 39486348 41045092 
862.507 42748324 44562632 46427720 48253532 49936892 51371292 52460876 
865.882 53144684 53402020 53261272 52792524 52104152 51328668 50594804 
869.256 50025068 49718264 49737248 50116576 50859240 51942872 53319748 
872.631 54920500 56658296 58419684 60078148 61503356 62564196 63159020 
876.006 63226776 62755348 61784720 60397348 58707968 56835312 54896020 
879.381 52991176 51191384 49542120 48062472 46749512 45587620 44556168 
882.756 43638004 42822840 42109848 41504608 41015960 40650460 40409768 
886.131 40289524 40281816 40378748 40574784 40869300 41265224 41766516 
889.505 42375120 43088552 43899892 44800164 45780904 46837196 47969328 
892.880 49182552 50484848 51885216 53390744 55003492 56717308 58511496 
896.255 60345528 62156560 63851260 65317152 66436468 67094244 67210224 
899.630 66749564 65731852 64226104 62342484 60219180 57991832 55790732 
903.005 53726288 51874052 50283912 48977248 47953560 47198336 46689592 
906.379 46405116 46325116 46435388 46727704 47197636 47844196 48667108 
909.754 49666140 50840320 52186232 53696368 55356580 57142200 59014132 
913.129 60923484 62811172 64615504 66286728 67791360 69121032 70293408 
916.504 71350072 72349392 73351168 74411920 75567896 76825128 78151696 
919.879 79477032 80700808 81696936 82345448 82555736 82286736 81568504 
923.254 80504904 79274480 78091048 77189144 76791392 77056096 78067128 
926.628 79805768 82155928 84902168 87756304 90417136 92575544 93976112 
930.003 94452632 93922016 92394328 89948976 86722400 82881592 78607384 
933.378 74098880 69544784 65119364 60980980 57246600 53997520 51280076 
936.753 49106156 47466628 46338240 45693436 45498976 45713460 46284644 
940.128 47135436 48162784 49249464 50260068 51067856 51575712 51721068 
943.502 51491920 50923056 50090324 49090944 48026204 46992384 46059412 
946.877 45271576 44648220 44187496 43874560 43688056 43606828 43611188 
950.252 43683404 43808912 43973356 44163800 44369588 44582972 44800568 
953.627 45022392 45251352 45491688 45746664 46018664 46309044 46618984 
957.002 46949816 47303288 47680496 48081644 48504948 48947392 49405476 
960.377 49877012 50361148 50859684 51374572 51907096 52456988 53022096 
963.751 53598972 54184712 54778580 55381648 55996340 56625000 57268676 
967.126 57927464 58600676 59288720 59994064 60720788 61474380 62259380 
970.501 63078208 63931412 64818716 65740296 66698676 67698408 68745400 
973.876 69845344 71002000 72217624 73493280 74830552 76233016 77705280 
977.251 79252248 80877120 82581176 84363568 86223688 88164224 90191264 
980.625 92315472 94547864 96897632 99368584 101958304 104657272 107449072 
984.000 110310400 113205192 116077992 118855712 121438376 123707280 
986.893 125546840 126848000 127533976 127573088 126981632 125823216 
989.786 124197256 122238200 120093656 117910448 115833792 113981152 
992.678 112439288 111263872 110474792 110066304 110014608 110289848 
995.571 110861432 111701896 112789448 114103552 115622984 117326864 
998.464 119192680 121197584 123320392 125534672 127805920 130088496 
1001.356 132318360 134419872 136315856 137932368 139216896 140144288 
1004.249 140720368 140980208 140984480 140818288 140575440 140359152 
1007.142 140273552 140405392 140824880 141577376 142680480 144130576 
1010.035 145908672 147989840 150347472 152955728 155791904 158829248 
1012.927 162039280 165393328 168861680 172418496 176039152 179689328 
1015.820 183318160 186845440 190151680 193096448 195527728 197306352 
1018.713 198344640 198618240 198184528 197169728 195769264 194225008 
1021.605 192779312 191677504 191126416 191266080 192175552 193858976 
1024.498 196259968 199268816 202749520 206559472 210547472 214574240 
1027.391 218507856 222212464 225564672 228452000 230782912 232502848 
1030.284 233593408 234069648 233967248 233333296 232217136 230663856 
1033.177 228719424 226428944 223831824 220959984 217829744 214441888 
1036.070 210785904 206852320 202645456 198192432 193544272 188769344 
1038.963 183949136 179161392 174478000 169964960 165674336 161647200 
1041.856 157907696 154456256 151267216 148288368 145454944 142696880 
1044.750 139958464 137213696 134469904 131768200 129169864 126751856 
1047.643 124589112 122743704 121266056 120186504 119516128 119248360 
1050.536 119360224 119815584 120566712 121564648 122760544 124108048 
1053.429 125567200 127096880 128648760 130167720 131583424 132815448 
1056.322 133785872 134420416 134661248 134474912 133852216 132812080 
1059.215 131399680 129690928 127785520 125797184 123854752 122078680 
1062.108 120572312 119421072 118678928 118374464 118511824 119074200 
1065.001 120024024 121301848 122832328 124518360 126247200 127909152 
1067.894 129395888 130616920 131510320 132035760 132176296 131930920 
1070.787 131310048 130332288 129022312 127411872 125536888 123435424 
1073.680 121150288 118725696 116212152 113672568 111177448 108807152 
1076.573 106648760 104779176 103265088 102154320 101469712 101211208 
1079.466 101353624 101851216 102632144 103600856 104649592 105652360 
1082.359 106487120 107056296 107294080 107186816 106774200 106147464 
1085.252 105429712 104758680 104278728 104111432 104352624 105065344 
1088.146 106269368 107942824 110017424 112391392 114927440 117467368 
1091.039 119861040 121965280 123665824 124887536 125587760 125757560 
1093.932 125415024 124601784 123376384 121805952 119967248 117934096 
1096.825 115773400 113547664 111308224 109098160 106953536 104897704 
1099.718 102940672 101075408 99279128 97516048 95745424 93935880 92071624 
1103.093 90161136 88235672 86347320 84559288 82933048 81527960 80391208 
1106.468 79555304 79041256 78856624 78997176 79447712 80183528 81172880 
1109.844 82374848 83746272 85239104 86798584 88367960 89881640 91267032 
1113.219 92454264 93375200 93974176 94216968 94089088 93597840 92766632 
1116.594 91633096 90243224 88645704 86894664 85041344 83129968 81198368 
1119.969 79272256 77367000 75491832 73652800 71857904 70119280 68452160 
1123.344 66873996 65401232 64046360 62818288 61723412 60766976 59956216 
1126.720 59300648 58811452 58500160 58375636 58441664 58694880 59123576 
1130.095 59707888 60416960 61211148 62043600 62858656 63601816 64225720 
1133.470 64695216 64998128 65146468 65176724 65140232 65098464 65112896 
1136.845 65231012 65484440 65881408 66406548 67020588 67664448 68271000 
1140.221 68764616 69075968 69151032 68950240 68454480 67662320 66586660 
1143.596 65250880 63686712 61934944 60040820 58053824 56027328 54009600 
1146.971 52044832 50170796 48414484 46795976 45328140 44017432 42865632 
1150.346 41870604 41026996 40326572 39759792 39317392 38990504 38772936 
1153.722 38660932 38652348 38746168 38940812 39233172 39618604 40091324 
1157.097 40644932 41273568 41971796 42734468 43556792 44433744 45360284 
1160.472 46331752 47342788 48386816 49454744 50531632 51596496 52623920 
1163.847 53581836 54436960 55158124 55714936 56082068 56239912 56173500 
1167.223 55875664 55348188 54602288 53658424 52544072 51292048 49934696 
1170.598 48503392 47027828 45533376 44043868 42581672 41165800 39814080 
1173.973 38541828 37360092 36277620 35299640 34429052 33666884 33013008 
1177.348 32466650 32026582 31691414 31460050 31332110 31308108 31389948 
1180.724 31580366 31882286 32298222 32829360 33475444 34235084 35106008 
1184.099 36084988 37166724 38341132 39592212 40893728 42209488 43496976 
1187.474 44706464 45788232 46699552 47403724 47877048 48109704 48106336 
1190.849 47885336 47477160 46923164 46267612 45556156 44833336 44135924 
1194.225 43495404 42936328 42475148 42121788 41879108 41743320 41703088 
1197.600 41740580 41833352 41952164 42064796 42138176 42136460 42026396 
1200.975 41779796 41374948 40802324 40066544 39187368 38196820 37135104 
1204.350 36047184 34972604 33945320 32990556 32122794 31348846 30669364 
1207.726 30081124 29578306 29154158 28801832 28514468 28286238 28113378 
1211.101 27993876 27928398 27918608 27966736 28074496 28241928 28467622 
1214.476 28749010 29082868 29464960 29890158 30352014 30841394 31347922 
1217.851 31860426 32367506 32860808 33333742 33782264 34204396 34599132 
1221.227 34966680 35308664 35629584 35936996 36241204 36555392 36892816 
1224.602 37265600 37683616 38152900 38675312 39248296 39864524 40512180 
1227.977 41173740 41828900 42455344 43031036 43539024 43967712 44313188 
1231.352 44578784 44775328 44920964 45038524 45158988 45318244 45553876 
1234.728 45906876 46415260 47110616 48019912 49161108 50544960 52175884 
1238.103 54051776 56163772 58493564 61013656 63685060 66456860 69274328 
1241.478 72076904 74802880 77396456 79801712 81966528 83846888 85404000 
1244.853 86610552 87451976 87924920 88036088 87799296 87235336 86370688 
1248.229 85236968 83872856 82317176 80604816 78762232 76801440 74722872 
1251.604 72518584 70182288 67716384 65139308 62484872 59803364 57155616 
1254.979 54600784 52196956 49991016 48012508 46274988 44773128 43485848 
1258.354 42376836 41401228 40511128 39656648 38796124 37898360 36944004 
1261.729 35927384 34854504 33740756 32606390 31474728 30369424 29310630 
1265.105 28315414 27396122 26559846 25809140 25142332 24554902 24040262 
1268.480 23590804 23200072 22862076 22572260 22327598 22125154 21962084 
1271.855 21836388 21745910 21689134 21665588 21675132 21718044 21794092 
1275.230 21902420 22040824 22205598 22390704 22587408 22783502 22963300 
1278.606 23110150 23207238 23241456 23206154 23101762 22935564 22718734 
1281.981 22464952 22186314 21892488 21591410 21289494 20993250 20710794 
1285.356 20450854 20222068 20033200 19890544 19799638 19764890 19790830 
1288.731 19882496 20045170 20283098 20598350 20989876 21453218 21979790 
1292.107 22557288 23169700 23795438 24408126 24978828 25476276 25874092 
1295.482 26154718 26312788 26356936 26307754 26195964 26054084 25914466 
1298.857 25805976 25750282 25762624 25851444 26017776 26254390 26545898 
1302.232 26871054 27202624 27512106 27775106 27970942 28087326 28120130 
1305.608 28071880 27951542 27772314 27551150 27306312 27055902 26817268 
1308.983 26603492 26423624 26282304 26180724 26118052 26093138 26105418 
1312.358 26154858 26240698 26362112 26515854 26698016 26904964 27134020 
1315.733 27383804 27654496 27946806 28261484 28598968 28960090 29346400 
1319.109 29760302 30205288 30682946 31192174 31726416 32273594 32815884 
1322.484 33330486 33794044 34183568 34480488 34675136 34769424 34779760 
1325.859 34734640 34674740 34645604 34687088 34831492 35093180 35468588 
1329.234 35937500 36469256 37031064 37592236 38131376 38637644 39109340 
1332.610 39552544 39978436 40402060 40838796 41303336 41807488 42356964 
1335.985 42950480 43578732 44226528 44873272 45496288 46074480 46586928 
1339.360 47016232 47349368 47577816 47699396 47717736 47641376 47481816 
1342.735 47251420 46962408 46625440 46249700 45843316 45412960 44964432 
1346.111 44502568 44030452 43549428 43058692 42555760 42037056 41499976 
1349.486 40943968 40373004 39797120 39231648 38698748 38225008 37837952 
1352.861 37566984 37437300 37467460 37667356 38033460 38547544 39174820 
1356.236 39870228 40579732 41246312 41820584 42260652 42536392 42633756 
1359.612 42552984 42311488 41939756 41485504 41007548 40567800 40228452 
1362.987 40036680 40016076 40163788 40451480 40833624 41251304 41644224 
1366.362 41954536 42128724 42129600 41938588 41560316 41020400 40360496 
1369.737 39630000 38872072 38123380 37410216 36748916 36152320 35633364 
1373.113 35206460 34888396 34693476 34627728 34686296 34853392 35108160 
1376.488 35429148 35800716 36215488 36673124 37179288 37743788 38380256 
1379.863 39103936 39931320 40876036 41941176 43110872 44340712 45561344 
1383.238 46675280 47570720 48143500 48297820 47967880 47132148 45828956 
1386.614 44164864 42298232 40420968 38699760 37243252 36096364 35245016 
1389.989 34641584 34223540 33932208 33715724 33529594 33338714 33112730 
1393.364 32828574 32474932 32054156 31583004 31085242 30583604 30091140 
1396.739 29609378 29132756 28656054 28181396 27722654 27303314 26948256 
1400.115 26676490 26494300 26396228 26369294 26400102 26477960 26596904 
1403.490 26756088 26956788 27200262 27485172 27807708 28162130 28543164 
1406.865 28947232 29373128 29822048 30295484 30793800 31316228 31859216 
1410.240 32418270 32989234 33568608 34153496 34741284 35327964 35907880 
1413.615 36474876 37023416 37551304 38060872 38558336 39052384 39552508 
1416.991 40067600 40605200 41172064 41773160 42407448 43067108 43734224 
1420.366 44384052 44988580 45523368 45971812 46327220 46596852 46801512 
1423.741 46974332 47150840 47360008 47617492 47923184 48267304 48636604 
1427.116 49022132 49419140 49826688 50244852 50672504 51108444 51552880 
1430.492 52011400 52495348 53018056 53591768 54222176 54907224 55638736 
1433.867 56407664 57209780 58047880 58934052 59885580 60920244 62044132 
1437.242 63248856 64514548 65813044 67111296 68368304 69537752 70558936 
1440.617 71361832 71882072 72060512 71855992 71248904 70238448 68843576 
1443.993 67100316 65066404 62813848 60419472 57967256 55535136 53195352 
1447.368 51018816 49064532 47372756 45955712 44796856 43859344 43101504 
1450.743 42495468 42033152 41725992 41592108 41642216 41864952 42226396 
1454.118 42667860 43115848 43495916 43736532 43794252 43674500 43443108 
1457.494 43200164 43035136 43001916 43112008 43354936 43714032 44173264 
1460.869 44716964 45324496 45969120 46613084 47207316 47702796 48055036 
1464.244 48241352 48269936 48180888 48030128 47867096 47725984 47619560 
1467.619 47544472 47488288 47433068 47356828 47229256 47012060 46660820 
1470.995 46133096 45408068 44505176 43494340 42473724 41538220 40748092 
1474.370 40119488 39640672 39292468 39062896 38951688 38964408 39102992 
1477.745 39358312 39708632 40126540 40582828 41056820 41540412 42037752 
1481.120 42562848 43133744 43769148 44484620 45294340 46214944 47266828 
1484.496 48472868 49852664 51412988 53135696 54965580 56815144 58557108 
1487.871 60035644 61092748 61574060 61366368 60429412 58812476 56652636 
1491.246 54132164 51441112 48724856 46066668 43505292 41043528 38674116 
1494.621 36404932 34265128 32309178 30605790 29213478 28162482 27446980 
1497.997 27037496 26892944 26974134 27250180 27694508 28281640 28986054 
1501.372 29777724 30623958 31492684 32343838 33130110 33793472 34249604 
1504.747 34392612 34103420 33283622 31915948 30108612 28073930 26027170 
1508.122 24105472 22348668 20734948 19226832 17798596 16443379 15174411 
1511.498 14013808 12978261 12075843 11301004 10639925 10075030 9589788 
1514.873 9170192 8803476 8478861 8188692 7930198 7706394 7522721 7382396 
1518.730 7281739 7208259 7142200 7064601 6964994 6851811 6749326 6688082 
1522.588 6686366 6742225 6837270 6946274 7049648 7137249 7212908 7290264 
1526.445 7386339 7511629 7666631 7842774 8029655 8220431 8414568 8616397 
1530.302 8831304 9061203 9302633 9547786 9788232 10020334 10249066 10486913 
1534.160 10745439 11030117 11335116 11647203 11949264 12224986 12462350 
1537.535 12651945 12788830 12871248 12900908 12882341 12823161 12735702 
1540.910 12634957 12534372 12441380 12354407 12262953 12151516 12006929 
1544.286 11824424 11611196 11384841 11165981 10968504 10793841 10631775 
1547.661 10465834 10282416 10076217 9854998 9635723 9438330 9275180 9145895 
1551.518 9039788 8942434 8843140 8739743 8639076 8553301 8492917 8460211 
1555.376 8447305 8437879 8411122 8343936 8213543 8003262 7714286 7377577 
1559.233 7048638 6784730 6613961 6531242 6512339 6528147 6553240 6567032 
1563.091 6556672 6518191 6456946 6385891 6320428 6272556 6245127 6232084 
1566.948 6221295 6200927 6163351 6108239 6043188 5981405 5936425 5916842 
1570.805 5925005 5958326 6011909 6080047 6155992 6231984 6297231 6340769 
1574.663 6354655 6338348 6303652 6272355 6268556 6305905 6383571 6489569 
1578.520 6609083 6730111 6846291 6957183 7065847 7176323 7290938 7409830 
1582.378 7531385 7653749 7776181 7898411 8019799 8137102 8244407 8334410 
1586.235 8399941 8437811 8449670 8443150 8429568 8421900 8433116 8473590 
1590.093 8551375 8672573 8839995 9052204 9300635 9569870 9836053 10070486 
1593.950 10247437 10345594 10354790 10277462 10127258 9925133 9694030 
1597.325 9456785 9231754 9033361 8873270 8759657 8698027 8690285 8734807 
1601.183 8827821 8964486 9141191 9355851 9606725 9890623 10200080 10522624 
1605.040 10842247 11140620 11399196 11602654 11738426 11798650 11779721 
1608.415 11682567 11512618 11278492 10993686 10675207 10342472 10016706 
1611.791 9715003 9448591 9220110 9024598 8850782 8684809 8514238 8330256 
1615.648 8132342 7929625 7740359 7586207 7482806 7436323 7441918 7487863 
1619.505 7558323 7637528 7712499 7773550 7817843 7849691 7880226 7922943 
1623.363 7989052 8083257 8202501 8339477 8485856 8635866 8786671 8936852 
1627.220 9085496 9230671 9370070 9502029 9627051 9748651 9871302 9999109 
1631.078 10133464 10272136 10408306 10532604 10633949 10700914 10724347 
1634.453 10700235 10633881 10540717 10443840 10366565 10322486 10312952 
1637.828 10329477 10359031 10387435 10402299 10397073 10370705 10328763 
1641.203 10280380 10235089 10198486 10170095 10143504 10108129 10052140 
1644.579 9965577 9843068 9687660 9511580 9335063 9181225 9070948 9015261 
1648.436 9014990 9061846 9142037 9236661 9321793 9369664 9347488 9226033 
1652.293 8997738 8698906 8407136 8197639 8103207 8106313 8167724 8249101 
1656.151 8324885 8382240 8417271 8432034 8431223 8418690 8396293 8362817 
1660.008 8315462 8251295 8168669 8068404 7954663 7834880 7718738 7615913 
1663.866 7533913 7476233 7440637 7420852 7406898 7387148 7349504 7284132 
1667.723 7186092 7056989 6905908 6747105 6597241 6469154 6369953 6300055 
1671.581 6254673 6225497 6201531 6170544 6120168 6040903 5930647 5798325 
1675.438 5663524 5547056 5463332 5413642 5388346 5372244 5351613 5319311 
1679.295 5276580 5231975 5196026 5175773 5169268 5164272 5139862 5074620 
1683.153 4954288 4784371 4593691 4424584 4309819 4257150 4253134 4275520 
1687.010 4305402 4328995 4339705 4336291 4320361 4295631 4266720 4239750 
1690.868 4220846 4215527 4226467 4251227 4281878 4304432 4303060 4264042 
1694.725 4183309 4072353 3958718 3873862 3835586 3841268 3869182 3891180 
1698.583 3877473 3807640 3680006 3519405 3370384 3272222 3241108 3265311 
1702.440 3320198 3379901 3425618 3446257 3439110 3409621 3368013 3327410 
1706.297 3297194 3281236 3278064 3282805 3289916 3295024 3296360 3294289 
1710.155 3290884 3288614 3288847 3292053 3296994 3301735 3304372 3304139 
1714.012 3300833 3294490 3283973 3266747 3238738 3196779 3141474 3079769 
1717.870 3023777 2987411 2979070 2999722 3042730 3098122 3155191 3205524 
1721.727 3245081 3273223 3293054 3309013 3325640 3346075 3371219 3400504 
1725.584 3432798 3466230 3498729 3527422 3549336 3561396 3562732 3555082 
1729.442 3543022 3532065 3525785 3522645 3515330 3490412 3431562 3327677 
1733.299 3178822 3005494 2841840 2723091 2666413 2666613 2703453 2752634 
1737.157 2794717 2815326 2809023 2778510 2734228 2689384 2656411 2642010 
1741.014 2646377 2664913 2691384 2720457 2748933 2775242 2799419 2822363 
1744.872 2844475 2865587 2884832 2900776 2912184 2917655 2916654 2908482 
1748.729 2893071 2870423 2840539 2804855 2766572 2730927 2704887 2694051 
1752.586 2701519 2725626 2760937 2798685 2828966 2843908 2838605 2815059 
1756.444 2780478 2746365 2722691 2714389 2719524 2730927 2739363 2736429 
1760.301 2717723 2683782 2640343 2595842 2558844 2535214 2526549 2531248 
1764.159 2545379 2564010 2582242 2595042 2598742 2591809 2576276 2557244 
1768.016 2541946 2536780 2543446 2558311 2572043 2573876 2554145 2509985 
1771.874 2447603 2381566 2328796 2301014 2300548 2321734 2354580 2389561 
1775.731 2421547 2449303 2474361 2498855 2523283 2545546 2562110 2569543 
1779.588 2566777 2556044 2542380 2531081 2525282 2525116 2527382 2528448 
1783.446 2525449 2517984 2508286 2500288 2497322 2501087 2511718 2527582 
1787.303 2547545 2570243 2594675 2619142 2640043 2652611 2651511 2632676 
1791.161 2595442 2544812 2490390 2442505 2409652 2394592 2394626 2404055 
1795.018 2416882 2428377 2436174 2439706 2439340 2435441 2428111 2417116 
1798.875 2402289 2384497 2365208 2346252 2329829 2316937 2308576 2304945 
1802.733 2306411 2313639 2326930 2345719 2368806 2393360 2416316 2434808 
1806.590 2447503 2454134 2455701 2453635 2448803 2441539 2431676 2419281 
1810.448 2405787 2393226 2384731 2382199 2386830 2397091 2410252 2423180 
1814.305 2433042 2439407 2442805 2445571 2450036 2457867 2469529 2484025 
1818.163 2499854 2516184 2532914 2550745 2571710 2597075 2626642 2658979 
1822.020 2690350 2715823 2730727 2731660 2718423 2694851 2667946 2646277 
1825.877 2636143 2639810 2654211 2672947 2687583 2690884 2680315 2658445 
1829.735 2633409 2614975 2611742 2626809 2657945 2698652 2741597 2781278 
1833.592 2814893 2842307 2865620 2887334 2909015 2931632 2955317 2980271 
1837.450 3007762 3040160 3079769 3128158 3185364 3249154 3315757 3380234 
1841.307 3438041 3485101 3518904 3539682 3550839 3559224 3573155 3600751 
1845.165 3646291 3708778 3782405 3858852 3929495 3987241 4028708 4054193 
1849.022 4066701 4070447 4068340 4061183 4047303 4023959 3988980 3942033 
1852.879 3885797 3823953 3760412 3697884 3636935 3576696 3515697 3453338 
1856.737 3389985 3327210 3266380 3208095 3152521 3099190 3048636 3002291 
1860.594 2962623 2932199 2911984 2901010 2896207 2893605 2890002 2883565 
1864.452 2874559 2863853 2852079 2838505 2821029 2797151 2765838 2728693 
1868.309 2690850 2659145 2639677 2635676 2646377 2667513 2693684 2720257 
1872.167 2744098 2763471 2777943 2787214 2790948 2788714 2781078 2768940 
1876.024 2754601 2739996 2726359 2713989 2701786 2688316 2672947 2656378 
1879.881 2639843 2625442 2613575 2603542 2592709 2578509 2558644 2533248 
1883.739 2504987 2477094 2452935 2434542 2421114 2410352 2399257 2385031 
1887.596 2366540 2344120 2319569 2295585 2275200 2261078 2255149 2258846 
1891.454 2270937 2289356 2310008 2327797 2338223 2339189 2331594 2319935 
1895.311 2310108 2307443 2314938 2331994 2354381 2377101 2396092 2409386 
1899.168 2416749 2419848 2420114 2417948 2413150 2405421 2395492 2385697 
1903.026 2378967 2377934 2383598 2394626 2407820 2419848 2428411 2432976 
1906.883 2434841 2436341 2437574 2438340 2436508 2430143 2418248 2402189 
1910.741 2384431 2367873 2354947 2346052 2341288 2340255 2343320 2351316 
1914.598 2364941 2382632 2400057 2411718 2411318 2395725 2367307 2332860 
1918.456 2301947 2281895 2274667 2275267 2275100 2264741 2238263 2196667 
1922.313 2146683 2099069 2063379 2045035 2042772 2051494 2064311 2075897 
1926.170 2084420 2090379 2095207 2099735 2103164 2102931 2097538 2086584 
1930.028 2071136 2053891 2036946 2021034 2005854 1990942 1976862 1965678 
1933.885 1960652 1963482 1973001 1984917 1992639 1990143 1975564 1950934 
1937.743 1923309 1900246 1886469 1882009 1881876 1878316 1864506 1838817 
1941.600 1804512 1769744 1743030 1730089 1731786 1744793 1763889 1784416 
1945.458 1804812 1825374 1846004 1866735 1884605 1896186 1899414 1893657 
1949.315 1881876 1867833 1855987 1847735 1842777 1838185 1830964 1818986 
1953.172 1802416 1781156 1755239 1722770 1679993 1624116 1554113 1472252 
1957.030 1385288 1302993 1233740 1184332 1156724 1148717 1155262 1171707 
1960.887 1193901 1217857 1241715 1262317 1276441 1282954 1281691 1273981 
1964.745 1262949 1250986 1238193 1223606 1204965 1180877 1153169 1125961 
1968.602 1104335 1092310 1090384 1094237 1099087 1098588 1089387 1072447 
1972.459 1050359 1026046 1001802 979053 957966 942559 941097 963910 1021430 
1976.799 1118985 1251219 1404534 1558502 1693830 1797325 1864239 1897085 
1980.656 1902443 1887534 1856952 1814660 1763822 1708433 1654681 1609249 
1984.514 1576359 1557704 1551153 1551585 1554744 1558768 1563723 1572169 
1988.371 1584573 1598607 1608750 1609416 1596811 1572336 1543006 1519199 
1992.229 1509855 1520362 1548094 1586103 1625945 1660967 1688275 1709631 
1996.086 1727993 1745059 1759497 1768047 1766351 1752345 1727394 1695127 
1999.944 1660501 1626344 1592688 1556607 1514943 1465569 1410019 1354076 
2003.801 1303060 1262218 1233906 1216163 1204832 1196161 1187123 1176923 
2007.658 1165694 1153269 1138983 1122506 1104701 1089221 1081681 1088823 
2011.516 1115032 1159814 1219120 1284117 1346665 1400379 1442065 1471820 
2015.373 1490338 1498185 1495691 1483257 1462577 1438508 1417864 1406163 
2019.231 1407227 1419759 1437677 1453967 1462677 1461979 1455729 1450742 
2023.088 1452903 1465935 1488277 1513746 1536190 1550255 1552982 1545434 
2026.946 1529972 1508625 1483157 1455696 1428169 1406030 1395592 1403005 
2030.803 1432990 1485916 1557438 1640678 1729590 1818287 1903840 1985350 
2034.660 2062080 2132365 2194569 2247089 2289589 2323766 2351848 2375036 
2038.518 2393293 2403722 2402888 2389195 2364508 2334492 2307677 2292687 
2042.375 2294086 2311874 2341088 2373337 2402322 2423813 2438207 2449669 
2046.233 2463765 2485658 2518317 2562677 2616375 2675014 2733461 2784279 
2050.090 2821663 2841473 2842740 2829767 2810958 2795884 2793816 2810624 
2053.948 2845208 2891270 2939738 2981806 3012400 3031619 3043797 3053774 
2057.805 3065086 3078267 3090547 3099157 3102127 3100492 3097622 3097021 
2061.662 3100025 3106198 3111905 3113607 3109502 3101493 3093918 3091949 
2065.520 3100191 3118146 3143243 3170210 3194009 3211599 3222949 3228523 
2069.377 3230293 3229224 3224518 3216006 3204089 3190704 3178855 3171879 
2073.235 3170878 3174783 3181158 3186031 3188101 3187967 3188101 3192273 
2077.092 3202921 3219344 3238939 3257800 3272155 3281102 3285643 3288480 
2080.949 3292153 3297995 3304940 3311016 3314956 3316158 3316258 3318161 
2084.807 3324472 3336525 3353488 3373122 3392523 3409855 3424549 3436839 
2088.664 3447927 3458047 3466130 3470371 3468234 3458114 3439277 3413295 
2092.522 3382572 3351183 3323737 3304239 3295859 3300533 3317227 3343337 
2096.379 3374023 3403911 3428123 3444621 3453672 3457713 3460686 3464927 
2100.237 3471440 3479757 3488141 3495522 3502470 3511154 3524416 3544492 
2104.094 3571317 3602388 3634162 3663231 3687525 3707909 3726791 3746710 
2107.951 3769771 3795340 3821279 3845112 3864535 3879011 3889742 3899036 
2111.809 3908464 3919197 3930832 3942367 3952733 3961761 3969151 3975170 
2115.666 3979517 3981188 3979650 3974635 3967044 3958986 3953134 3951328 
2119.524 3953836 3959287 3964971 3968582 3968916 3966910 3964837 3966041 
2123.381 3971993 3982994 3997574 4012455 4025063 4033658 4037537 4036869 
2127.239 4031785 4022020 4006469 3984064 3954338 3917392 3875367 3830371 
2131.096 3785881 3745339 3711819 3688393 3677433 3680240 3695845 3721377 
2134.953 3751255 3778327 3797212 3803630 3797379 3780867 3758039 3731303 
2138.811 3702863 3672053 3637637 3599581 3560226 3521877 3488341 3461354 
2142.668 3438476 3414631 3383607 3341133 3285743 3221981 3155425 3092383 
2146.526 3036557 2987010 2939438 2889702 2835270 2776809 2718523 2664779 
2150.383 2617709 2575409 2531515 2477127 2405287 2310908 2192537 2052859 
2154.240 1895387 1725532 1550056 1378839 1226264 1110381 1051388 1064242 
2158.098 1153501 1308411 1504702 1711893 1901012 2051793 2157538 2221444 
2161.955 2253850 2266940 2272236 2276932 2286225 2302114 2324632 2352748 
2165.813 2384231 2415016 2442339 2463731 2477260 2483459 2482692 2474228 
2169.670 2457167 2430044 2390794 2340722 2283460 2225007 2172923 2134130 
2173.528 2111122 2102998 2105329 2112054 2116449 2115450 2106694 2090679 
2177.385 2068639 2042472 2014309 1987647 1965712 1952331 1950101 1959055 
2181.242 1976196 1996601 2014343 2025727 2030055 2029622 2028424 2030554 
2185.100 2037711 2048764 2061148 2072900 2082356 2091811 2104496 2123075 
2188.957 2149214 2181781 2217048 2250686 2279630 2301081 2315804 2325398 
2192.815 2332094 2338556 2346985 2360277 2380300 2409152 2447370 2493623 
2196.672 2544946 2596475 2643144 2681549 2709955 2728560 2739863 2745698 
2200.530 2747665 2746932 2743664 2737962 2731127 2724659 2719824 2717523 
2204.387 2717090 2717557 2717256 2716323 2715023 2715856 2721524 2733361 
2208.244 2752600 2778410 2809390 2844141 2881163 2919389 2957385 2993516 
2212.102 3024712 3049203 3066054 3075230 3079435 3082105 3085442 3091181 
2215.959 3099290 3107834 3115743 3121950 3127490 3133698 3142375 3153622 
2219.817 3166205 3178188 3187233 3191872 3192707 3190370 3185964 3180056 
2223.674 3171412 3158962 3142342 3122951 3103729 3088812 3082138 3084641 
2227.531 3095820 3112472 3130660 3147415 3161098 3171912 3180757 3188701 
2231.389 3195110 3199316 3201152 3200150 3198848 3200017 3205925 3218276 
2235.246 3236702 3259035 3282671 3306275 3328679 3351150 3374691 3399536 
2239.104 3424783 3448061 3466831 3479557 3485969 3487573 3487172 3488141 
2242.961 3493017 3503171 3520374 3544659 3576028 3613881 3656415 3700424 
2246.819 3742164 3777692 3803997 3820643 3829301 3832878 3834716 3837658 
2250.676 3842873 3850695 3861192 3874431 3891648 3913947 3941097 3971725 
2254.533 4001821 4026635 4041617 4044159 4034661 4016234 3994030 3972127 
2258.391 3954003 3940796 3931200 3923677 3916589 3908699 3900374 3892718 
2262.248 3886466 3882755 3882688 3886867 3895693 3909534 3927589 3948487 
2266.106 3970020 3989916 4005834 4017304 4024695 4029578 4033658 4038407 
2269.963 4044427 4051450 4058775 4065698 4072153 4078273 4084495 4091485 
2273.821 4099580 4108945 4120084 4133297 4149052 4167685 4188996 4211880 
2277.678 4235167 4258254 4280439 4302524 4325515 4350314 4376888 4404066 
2281.535 4429606 4451398 4468102 4479150 4486079 4490867 4495118 4500040 
2285.393 4505564 4510887 4515072 4517952 4519894 4521635 4523644 4525552 
2289.250 4526087 4524112 4518688 4510352 4501245 4494215 4492206 4497127 
2293.108 4508644 4524614 4542493 4558800 4571356 4579460 4583746 4585588 
2296.965 4586760 4588869 4592854 4599451 4608493 4619376 4630930 4641546 
2300.823 4649182 4652397 4650287 4642919 4631599 4618572 4605010 4592452 
2304.680 4580899 4569548 4557460 4543799 4528464 4512092 4495554 4479417 
2308.537 4463817 4448184 4431681 4413505 4393957 4373574 4353794 4336157 
2312.395 4321465 4309719 4300416 4292050 4283216 4272307 4258153 4239851 
2316.252 4217133 4189999 4159289 4126439 4093358 4062119 4034828 4013191 
2320.110 3997942 3989081 3985736 3985703 3986639 3984800 3976574 3958451 
2323.967 3928224 3884961 3830504 3768066 3701861 3636400 3575326 3520374 
2327.824 3471640 3428223 3388850 3352886 3321367 3295625 3277530 3268015 
2331.682 3266680 3271554 3280267 3290216 3299631 3307578 3314088 3319096 
2335.539 3322602 3324272 3323771 3321233 3316726 3311250 3305975 3301534 
2339.397 3298396 3297061 3297828 3301367 3308446 3319831 3335256 3353855 
2343.254 3374658 3397165 3422980 3456644 3504173 3572019 3663866 3779163 
2347.112 3912076 4052119 4186888 4304231 4393053 4446209 4460201 4436066 
2350.969 4378226 4294794 4195721 4090014 3986238 3890043 3804231 3729832 
2354.826 3666473 3612812 3567275 3528391 3494420 3464159 3437006 3412827 
2358.684 3392123 3376494 3366644 3363739 3367946 3379466 3397733 3422579 
2362.541 3454072 3492416 3537878 3589893 3647894 3709714 3772879 3834683 
2366.399 3893453 3948386 3999814 4049845 4100583 4153702 4210341 4270735 
2370.256 4333881 4399079 4465424 4532583 4600757 4670482 4741894 4815427 
2374.114 4891185 4968766 5048808 5131145 5216281 5304317 5395190 5488766 
2377.971 5584812 5682793 5782644 5884195 5987351 6091706 6196221 6300089 
2381.828 6401762 6499894 6593709 6682429 6765513 6842555 6912776 6975264 
2385.686 7029476 7074704 7111280 7140011 7162141 7179119 7192291 7202531 
2389.543 7210213 7215468 7218332 7218770 7217051 7213548 7208461 7201959 
2393.401 7194278 7185722 7176694 7167935 7159851 7153383 7148971 7146613 
2397.258 7146512 7149005 7154259 7163084 7176121 7194143 7217590 7246059 
2401.115 7278977 7315031 7352874 7391125 7428739 7465176 7500504 7535397 
2404.973 7571573 7610720 7654997 7706023 7764679 7830292 7901752 7976802 
2408.830 8053181 8129607 8205337 8280474 8356332 8433757 8513191 8594496 
2412.688 8676562 8757629 8835903 8909457 8976427 9035559 9085767 9126539 
2416.545 9158449 9182646 9200718 9214764 9226676 9237575 9247865 9257172 
2420.403 9264687 9270271 9273792 9275958 9278091 9281239 9286215 9293188 
2424.260 9302124 9312517 9324061 9337366 9352770 9371492 9395294 9424921 
2428.117 9461763 9506669 9560115 9622206 9692539 9770135 9853643 9941473 
2431.975 10032608 10126070 10222096 10321332 10424529 10532333 10645222 
2435.350 10762828 10884849 11010507 11139295 11271181 11405692 11542764 
2438.725 11681920 11822722 11965034 12108652 12254125 12402101 12553300 
2442.101 12708407 12867358 13030053 13196089 13364683 13535633 13708804 
2445.476 13883652 14059940 14236881 14414101 14591015 14767693 14943963 
2448.851 15120098 15296511 15472893 15648521 15822813 15994320 16162284 
2452.226 16325876 16484091 16635926 16780512 16916224 17041848 17156442 
2455.602 17259622 17351202 17431766 17501650 17560748 17608810 17645112 
2458.977 17668232 17677378 17671340 17648976 17609396 17552158 17477020 
2462.352 17385034 17277826 17157926 17028512 16893316 16755408 16618058 
2465.727 16483506 16353536 16230073 16114553 16008243 15912510 15828654 
2469.103 15757252 15699774 15657591 15632138 15625026 15637461 15668685 
2472.478 15716609 15777525 15846420 15918629 15990607 16060466 16129065 
2475.853 16198086 16269390 16343800 16420908 16497960 16571585 16638232 
2479.228 16694939 16740220 16773487 16795012 16805240 16804862 16794288 
2482.604 16774349 16746212 16711915 16673522 16633172 16592858 16553652 
2485.979 16515858 16479272 16442725 16405631 16367266 16326599 16283941 
2489.354 16239153 16192034 16142786 16090827 16035300 15974898 15908351 
2492.729 15834359 15752545 15663154 15567360 15466815 15363307 15257832 
2496.104 15150530 15040923 14927571 14809311 14685394 14556031 14422150 
2499.480 14285195 14146400 14006861 13867403 13728365 13589953 13453054 
2502.855 13318079 13186150 13057881 12933678 12813605 12697864 12586555 
2506.230 12480218 12379634 12285857 12199427 12120407 12048079 11980940 
2509.605 11917591 11856533 11796641 11737575 11679470 11622631 11567637 
2512.981 11515237 11465871 11420388 11379331 11343244 11312533 11287606 
2516.356 11268120 11253702 11243910 11237925 11235035 11234967 11236973 
2519.731 11240884 11246698 11254859 11265978 11280805 11300018 11323382 
2523.106 11349978 11378140 11405454 11429980 11450187 11465836 11477880 
2526.482 11488087 11498225 11509827 11523165 11537082 11550420 11560764 
2529.857 11566617 11566821 11561104 11550182 11534938 11516768 11496762 
2533.232 11476315 11456107 11436988 11419775 11404978 11392767 11383447 
2536.607 11376440 11371338 11367018 11362563 11357052 11349944 11341237 
2539.983 11331068 11320322 11309813 11300732 11293999 11290531 11290632 
2543.358 11294271 11301004 11309846 11319404 11328313 11335252 11339129 
2546.733 11339877 11337598 11332973 11327362 11321682 11316921 11313451 
2550.108 11311241 11309982 11309201 11308248 11306616 11303930 11300256 
2553.484 11295461 11289918 11284104 11278458 11273188 11268971 11265128 
2556.859 11261694 11258123 11253737 11248772 11243638 11238742 11234695 
2560.234 11231499 11228745 11225174 11219632 11210724 11197906 11181382 
2563.609 11162072 11141063 11119884 11098945 11078924 11059890 11041877 
2566.985 11025256 11010406 10997933 10987908 10980840 10976354 10973907 
2570.360 10973363 10974587 10977815 10983320 10991137 11001060 11012751 
2573.735 11025291 11038376 11052277 11067299 11084124 11103772 11126105 
2577.110 11150922 11177507 11204706 11231431 11257681 11283049 11308147 
2580.486 11333517 11359876 11387801 11417870 11450902 11487236 11526976 
2583.861 11570054 11615178 11661192 11706257 11748775 11787721 11822858 
2587.236 11854661 11884116 11912755 11941771 11972425 12005907 12042901 
2590.611 12083986 12129402 12178673 12230746 12284289 12337533 12388839 
2593.987 12437561 12483389 12526766 12568512 12609442 12649830 12689745 
2597.362 12728741 12766138 12801729 12835753 12868620 12901558 12935692 
2600.737 12972048 13011480 13054227 13100052 13148068 13197319 13246712 
2604.112 13295734 13344387 13393113 13443212 13495914 13552315 13612961 
2607.488 13677550 13745431 13815477 13886937 13959367 14032356 14106214 
2610.863 14180598 14255063 14328718 14400708 14470175 14536570 14599787 
2614.238 14660067 14717407 14771773 14822510 14869414 14911933 14950342 
2617.613 14985357 15018078 15049739 15081538 15113923 15146722 15179832 
2620.989 15212465 15244276 15275300 15305572 15335571 15365606 15396056 
2624.364 15427057 15458953 15491675 15525498 15560423 15596554 15633648 
2627.739 15671570 15710115 15748868 15787968 15827142 15866663 15906496 
2631.114 15947158 15988236 16029902 16071916 16113866 16155476 16196538 
2634.490 16237089 16277576 16318789 16361589 16406870 16455285 16506497 
2637.865 16559675 16613651 16666740 16717700 16765807 16811096 16853874 
2641.240 16895314 16936102 16977206 17019174 17062386 17107050 17153720 
2644.615 17202704 17253864 17307374 17362790 17419454 17476814 17534424 
2647.990 17592146 17650322 17709370 17770118 17833048 17898648 17967018 
2651.366 18038094 18111220 18185220 18259234 18331916 18402324 18470360 
2654.741 18536712 18602452 18669308 18738872 18811874 18888348 18967364 
2658.116 19047118 19126508 19204284 19280240 19354476 19427858 19500734 
2661.491 19573412 19645758 19717282 19787848 19857280 19925890 19993990 
2664.867 20062104 20130260 20198220 20265948 20332990 20399384 20465580 
2668.242 20531890 20598836 20666730 20735746 20805748 20877256 20950060 
2671.617 21024478 21100788 21178710 21257584 21336788 21415066 21491480 
2674.992 21565816 21637936 21708604 21778518 21848828 21919740 21991814 
2678.368 22065050 22139486 22214978 22292056 22370646 22451588 22535546 
2681.743 22623290 22715240 22812346 22914676 23022272 23135102 23252680 
2685.118 23374694 23501184 23631840 23766912 23906296 24049858 24196792 
2688.493 24346794 24498634 24651894 24806262 24961946 25119478 25279138 
2691.869 25441458 25606370 25774016 25944292 26117522 26294096 26474474 
2695.244 26659154 26848108 27041234 27237832 27437344 27639418 27843918 
2698.619 28050778 28260068 28471266 28683980 28897226 29110468 29322932 
2701.994 29534752 29745646 29956006 30165436 30373084 30578094 30778934 
2705.370 30974384 31163480 31345610 31520188 31686958 31845308 31994910 
2708.745 32135066 32265562 32386460 32497820 32600426 32694548 32780190 
2712.120 32857626 32926392 32986198 33037248 33079654 33114054 33140908 
2715.495 33160612 33173058 33177994 33174596 33162080 33140048 33108008 
2718.871 33066318 33016012 32958742 32896298 32831002 32765146 32700550 
2722.246 32639288 32583136 32533426 32491860 32459364 32437406 32426230 
2725.621 32426090 32436512 32456544 32485466 32522604 32567780 32621604 
2728.996 32684296 32756072 32836720 32925784 33022016 33124208 33231430 
2732.372 33342972 33458550 33577596 33699220 33822556 33945784 34067260 
2735.747 34185540 34300160 34410792 34518296 34623100 34725632 34826036 
2739.122 34924088 35019152 35111500 35201464 35289472 35376700 35464132 
2742.497 35552512 35642748 35735376 35831044 35930264 36033576 36140940 
2745.873 36252260 36366852 36483596 36601344 36719132 36835648 36949920 
2749.248 37060980 37167520 37268092 37361208 37446148 37522184 37589632 
2752.623 37649000 37701324 37747476 37787884 37822844 37852124 37875440 
2755.998 37892180 37902232 37904868 37899304 37884768 37859968 37823672 
2759.374 37775092 37713540 37639132 37552240 37453484 37343480 37223072 
2762.749 37092776 36953208 36805136 36649764 36488064 36321780 36152320 
2766.124 35981520 35810968 35642496 35477688 35318584 35167368 35025976 
2769.499 34896224 34779544 34677072 34589012 34514996 34454232 34405416 
2772.875 34367112 34337812 34315720 34299516 34287540 34278036 34269752 
2776.250 34261220 34251184 34238560 34222536 34202032 34175792 34142492 
2779.625 34100408 34048192 33984552 33909460 33823308 33727968 33625568 
2783.000 33518822 33410348 33302188 33196234 33093386 32994344 32899264 
2786.375 32808170 32720380 32635108 32551102 32466862 32380998 32292188 
2789.751 32199652 32103066 32002646 31898938 31792934 31685640 31578124 
2793.126 31471558 31367120 31265840 31168856 31076806 30990398 30910054 
2796.501 30836486 30769934 30711216 30661042 30619940 30588192 30565972 
2799.876 30552640 30547806 30550720 30560710 30576778 30598430 30624632 
2803.252 30654072 30685792 30718402 30751084 30783522 30816032 30849432 
2806.627 30884404 30921298 30959796 30998652 31035914 31069438 31096914 
2810.002 31116990 31128666 31132298 31128310 31117346 31100262 31076948 
2813.377 31047052 31010396 30966876 30916282 30859962 30799242 30736182 
2816.753 30673060 30612296 30556088 30506428 30465802 30435984 30419742 
2820.128 30419104 30435984 30471880 30526690 30599744 30689168 30792554 
2823.503 30907386 31030896 31160810 31294790 31430732 31566042 31698078 
2826.878 31823702 31940374 32045628 32137706 32215886 32280016 32330486 
2830.254 32368396 32394566 32410272 32416486 32414306 32404132 32386996 
2833.629 32363612 32335092 32303218 32269880 32237120 32206788 32180060 
2837.004 32157260 32137458 32119688 32102458 32085012 32067784 32052156 
2840.379 32040778 32036782 32043454 32063824 32100994 32157186 32235124 
2843.755 32337770 32467756 32628320 32822714 33052586 33318822 33619768 
2847.130 33950732 34302704 34663292 35016352 35342232 35621924 35837416 
2850.505 35974428 36025548 35989404 35871852 35683432 35439108 35155544 
2853.880 34848544 34533544 34224080 33930092 33660080 33418826 33208896 
2857.256 33030096 32880430 32756712 32654718 32570242 32499500 32438584 
2860.631 32384106 32333236 32283016 32231230 32176312 32117408 32054618 
2864.006 31988632 31920906 31853796 31789870 31732798 31685676 31652388 
2867.381 31636138 31639236 31663078 31708096 31773578 31858038 31959422 
2870.757 32074776 32200508 32331950 32463972 32590744 32707662 32810778 
2874.132 32898440 32971218 33031456 33082836 33129036 33173382 33218340 
2877.507 33264984 33314134 33365942 33420474 33478126 33538758 33603012 
2880.882 33670716 33742548 33818400 33898852 33983800 34072888 34164424 
2884.258 34255844 34343584 34424240 34494156 34551732 34596188 34628844 
2887.633 34652600 34671080 34688272 34708548 34735864 34774232 34827580 
2891.008 34900496 34997780 35125764 35291984 35505012 35775600 36115552 
2894.383 36536320 37048568 37659476 38370120 39172644 40049176 40969168 
2897.759 41889616 42760680 43527192 44134712 44540968 44716964 44653912 
2901.134 44363096 43874120 43229556 42475300 41659576 40824708 40003252 
2904.509 39221820 38498632 37845508 37270328 36776392 36363896 36030048 
2907.884 35770204 35578912 35451552 35384540 35376376 35426204 35533384 
2911.260 35695808 35908960 36166112 36458228 36774336 37103312 37433148 
2914.635 37751672 38048036 38311236 38532556 38705632 38827680 38899356 
2918.010 38924144 38907908 38856524 38775436 38668324 38537480 38383552 
2921.385 38206840 38007928 37788680 37552240 37303836 37050336 36799980 
2924.760 36561156 36342712 36151744 35993328 35870052 35781860 35726348 
2928.136 35699152 35695120 35708720 35733940 35765564 35797980 35826048 
2931.511 35845044 35851308 35841696 35814060 35767216 35700696 35614228 
2934.886 35508140 35383424 35241204 35083948 34914576 34736220 34552560 
2938.261 34367144 34183568 34005588 33837852 33684608 33550750 33440478 
2941.637 33356282 33298358 33264230 33248492 33243268 33239730 33228104 
2945.012 33198666 33143196 33054624 32928072 32761682 32556922 32319066 
2948.387 32056044 31778712 31498916 31227100 30972356 30740272 30533586 
2951.762 30352154 30193992 30056588 29936800 29832126 29740288 29659220 
2955.138 29587136 29522410 29463862 29410852 29363132 29321088 29284790 
2958.513 29254484 29229782 29209972 29194024 29181160 29171060 29164114 
2961.888 29161104 29163016 29171238 29186300 29208518 29237756 29273412 
2965.263 29314706 29361110 29412412 29468366 29529148 29595048 29666278 
2968.639 29743270 29826270 29916174 30013768 30120438 30237364 30365692 
2972.014 30505932 30657700 30819482 30988796 31161380 31332004 31494678 
2975.389 31642194 31767338 31863350 31924504 31946402 31927716 31869200 
2978.764 31774078 31647790 31497634 31330898 31155650 30979722 30809558 
2982.140 30651014 30507744 30381684 30272108 30176020 30088974 30004926 
2985.515 29918412 29824852 29721732 29608668 29487052 29359586 29228966 
2988.890 29096970 28963986 28828778 28688158 28538244 28375436 28197060 
2992.265 28002678 27794146 27575652 27353280 27132892 26920230 26718488 
2995.641 26528920 26350070 26179000 26012466 25847224 25681414 25514506 
2999.016 25346996 25180042 25014696 24852080 24692856 24537268 24386010 
3002.391 24239676 24099098 23965114 23838592 23719526 23607876 23503072 
3005.766 23404032 23309800 23219576 23132620 23048722 22967772 22890262 
3009.142 22816850 22747920 22683960 22624930 22570446 22519318 22470498 
3012.517 22422906 22375494 22328192 22281346 22235590 22191964 22151514 
3015.892 22114800 22082482 22054628 22030888 22011020 21994184 21979406 
3019.267 21965778 21952360 21938662 21924478 21910086 21896008 21882800 
3022.643 21870884 21860256 21851232 21844018 21839176 21838130 21842590 
3026.018 21854298 21874716 21904336 21941940 21985716 22032388 22078298 
3029.393 22119890 22154306 22179374 22194196 22198902 22194020 22180944 
3032.768 22161312 22136626 22108664 22078750 22048040 22017922 21989340 
3036.144 21963096 21939710 21919670 21902594 21888134 21875588 21864332 
3039.519 21853566 21843252 21833252 21823810 21815588 21809246 21805520 
3042.894 21805032 21808270 21815414 21826284 21840012 21855900 21872522 
3046.269 21889002 21905068 21920820 21937166 21955532 21977002 22002550 
3049.645 22032144 22065504 22101518 22139032 22176864 22214072 22249784 
3053.020 22283162 22313296 22339494 22361402 22379646 22395344 22410870 
3056.395 22428524 22450332 22477478 22510490 22548248 22589364 22632434 
3059.770 22676384 22720862 22766114 22812554 22860714 22910868 22963160 
3063.146 23017276 23073424 23131432 23191474 23253518 23317352 23382142 
3066.521 23447430 23512342 23575936 23637930 23697866 23755712 23811572 
3069.896 23865408 23917218 23967076 24015082 24061448 24106314 24149888 
3073.271 24192134 24233054 24273136 24312626 24352576 24394106 24438058 
3076.646 24485102 24535268 24587688 24640918 24693452 24743434 24789984 
3080.022 24832608 24871658 24908396 24944540 24981774 25021610 25065100 
3083.397 25112316 25162486 25215014 25268604 25322164 25375308 25428214 
3086.772 25481336 25535624 25591748 25649848 25709852 25771236 25833614 
3090.147 25896740 25960648 26025938 26093102 26162600 26234678 26309234 
3093.523 26386052 26464648 26545018 26626776 26709854 26794078 26879020 
3096.898 26963874 27048250 27131374 27213066 27293470 27372900 27451708 
3100.273 27530250 27608662 27686844 27764756 27842152 27918892 27995220 
3103.648 28071632 28148694 28226866 28306856 28389088 28473672 28560252 
3107.024 28648516 28737362 28826228 28914402 29001390 29087546 29173044 
3110.399 29258560 29344768 29431842 29519786 29608528 29697286 29785460 
3113.774 29872304 29957390 30040576 30122248 30203156 30284576 30367718 
3117.149 30454074 30544252 30638358 30735756 30834918 30934318 31032212 
3120.525 31127668 31220336 31310386 31398534 31485378 31571780 31657734 
3123.900 31743634 31829410 31915412 32001864 32089542 32178882 32270384 
3127.275 32363828 32459010 32555104 32651216 32745782 32837614 32926250 
3130.650 33011470 33094100 33175812 33258722 33345080 33436328 33533138 
3134.026 33634732 33739684 33845872 33951340 34055148 34156684 34256348 
3137.401 34354700 34452436 34549796 34646820 34743400 34839788 34936480 
3140.776 35033948 35132840 35233228 35334648 35436232 35536692 35635016 
3144.151 35730700 35823848 35915256 36005568 36095824 36186820 36279060 
3147.527 36372796 36468352 36566024 36666276 36769360 36875504 36984484 
3150.902 37095912 37209176 37323152 37436832 37549136 37659224 37766668 
3154.277 37871536 37974692 38077440 38180972 38285980 38392852 38500512 
3157.652 38607372 38711968 38813044 38910228 39004428 39097408 39190884 
3161.028 39286884 39386316 39489180 39595120 39702932 39811464 39919660 
3164.403 40026648 40131808 40234780 40335588 40434096 40530732 40626084 
3167.778 40720652 40814588 40908544 41002556 41096880 41192136 41288400 
3171.153 41386140 41485284 41585004 41684340 41781620 41875460 41964644 
3174.529 42049064 42128868 42204848 42278252 42349768 42420748 42492032 
3177.904 42564532 42639384 42717324 42798344 42881832 42966468 43050388 
3181.279 43131840 43209972 43284500 43356512 43427324 43498224 43570236 
3184.654 43643392 43717404 43791760 43866016 43940248 44014388 44088980 
3188.030 44163908 44239292 44314912 44390912 44467328 44544712 44623064 
3191.405 44702204 44781724 44860448 44937348 45011620 45082744 45151120 
3194.780 45216860 45280436 45341820 45401188 45458872 45515496 45572164 
3198.155 45630420 45691488 45755688 45822844 45891888 45961200 46030268 
3201.531 46098500 46166076 46233704 46301524 46369316 46436420 46502136 
3204.906 46565900 46627984 46689448 46751028 46813428 46876284 46938520 
3208.281 46998768 47056260 47110840 47163984 47217468 47272700 47330520 
3211.656 47390272 47450440 47509208 47565652 47619784 47672436 47725504 
3215.031 47779800 47836096 47893584 47951228 48007736 48062692 48115844 
3218.407 48168340 48221356 48275896 48332668 48392112 48454048 48518064 
3221.782 48584092 48651320 48719072 48786688 48853280 48918504 48982704 
3225.157 49046612 49111348 49178172 49247196 49318092 49389808 49460720 
3228.532 49529420 49595156 49657636 49717408 49775632 49833640 49892956 
3231.908 49954620 50019528 50087980 50159604 50233436 50308204 50382768 
3235.283 50456376 50529472 50603032 50678424 50756664 50837896 50920972 
3238.658 51003980 51084888 51162084 51235412 51306032 51375988 51446968 
3242.033 51520424 51596496 51674152 51752424 51830632 51908628 51987312 
3245.409 52068216 52152532 52240900 52334000 52430556 52529976 52630988 
3248.784 52732364 52832636 52930688 53025092 53114988 53199920 53280828 
3252.159 53358860 53436080 53514480 53595032 53678408 53763940 53850612 
3255.534 53937376 54023332 54107692 54190568 54271880 54351260 54429000 
3258.910 54505056 54579256 54651924 54723252 54793312 54861880 54928804 
3262.285 54993824 55056820 55118056 55177800 55236948 55295576 55354176 
3265.660 55412516 55470604 55528172 55585296 55641940 55698060 55753056 
3269.035 55806480 55857312 55904944 55949492 55991176 56030984 56070456 
3272.411 56110116 56150684 56192168 56234328 56276760 56319608 56362656 
3275.786 56406192 56450072 56494300 56538568 56582992 56627492 56672228 
3279.161 56717836 56764204 56811064 56857748 56903372 56947608 56990640 
3282.536 57033028 57075912 57120432 57166880 57215072 57264556 57314532 
3285.912 57364672 57415192 57466780 57520112 57575340 57632580 57691084 
3289.287 57750684 57811356 57873852 57939124 58008460 58082500 58160944 
3292.662 58243724 58329704 58418620 58510168 58604584 58702200 58802840 
3296.037 58906196 59011476 59118032 59226172 59335936 59448460 59564624 
3299.413 59684740 59808572 59935484 60064752 60196080 60329764 60466696 
3302.788 60607588 60753140 60902860 61056064 61211644 61368960 61527864 
3306.163 61689152 61853716 62022732 62197432 62378172 62565340 62759020 
3309.538 62958724 63164040 63373864 63586736 63801640 64018176 64236440 
3312.914 64458004 64684524 64917164 65156400 65400772 65648288 65896212 
3316.289 66143164 66389060 66635520 66884860 67138520 67396744 67657752 
3319.664 67918648 68176088 68428264 68674600 68916728 69156312 69395168 
3323.039 69633808 69871768 70108136 70341952 70573512 70803600 71032864 
3326.415 71261864 71489904 71715544 71937088 72152640 72361208 72562248 
3329.790 72754560 72936656 73106320 73260624 73397424 73516200 73617864 
3333.165 73704776 73779536 73844216 73899176 73943672 73976128 73995336 
3336.540 74000920 73993920 73975456 73946264 73906320 73854192 73787824 
3339.916 73705720 73606480 73490336 73357944 73210232 73047232 72868976 
3343.291 72674528 72462992 72234216 71988160 71724888 71445016 71148736 
3346.666 70836440 70508928 70167760 69815224 69454184 69087200 68716240 
3350.041 68342240 67965296 67584928 67200520 66811776 66418476 66020904 
3353.417 65619112 65213188 64803712 64392284 63980512 63571820 63169404 
3356.792 62775448 62391444 62017684 61652756 61295352 60944452 60599628 
3360.167 60261128 59929512 59605024 59287508 58976748 58672128 58373704 
3363.542 58081964 57797728 57521584 57254084 56994492 56742304 56496788 
3366.917 56257564 56025176 55800112 55582660 55372728 55169036 54969720 
3370.293 54773016 54577680 54382880 54188580 53994480 53800468 53605488 
3373.668 53408428 53207976 53003716 52795364 52583376 52367564 52147600 
3377.043 51921700 51688000 51444732 51191008 50927600 50655784 50377856 
3380.418 50095044 49807588 49514268 49213204 48902336 48580276 48247164 
3383.794 47903980 47553196 47196196 46834944 46470348 46102884 45732936 
3387.169 45361276 44988544 44616200 44245020 43876096 43509832 43146148 
3390.544 42784632 42425240 42068120 41713700 41362812 41016104 40674328 
3393.919 40337008 40003868 39673744 39345248 39017984 38691720 38367296 
3397.295 38045832 37729008 37417544 37111972 36811628 36515272 36221824 
3400.670 35930444 35640196 35351540 35064444 34778720 34493832 34208840 
3404.045 33922752 33635092 33346084 33056628 32768432 32482680 32199756 
3407.420 31919442 31640268 31360996 31080650 30799492 30518442 30239780 
3410.796 29965874 29698528 29439004 29187574 28943586 28705964 28473990 
3414.171 28246454 28022646 27801810 27583170 27365702 27148904 26931758 
3417.546 26714260 26496484 26279312 26064004 25852252 25645980 25446482 
3420.921 25254978 25071806 24896080 24726632 24561566 24398626 24236556 
3424.297 24074058 23910812 23746860 23582548 23418194 23254076 23090302 
3427.672 22926796 22764086 22602732 22443562 22287556 22135616 21987840 
3431.047 21844438 21704876 21568462 21434248 21301674 21169942 21038496 
3434.422 20906982 20775404 20643762 20513098 20384244 20258276 20136474 
3437.798 20019390 19906674 19797764 19691036 19584920 19478174 19370170 
3441.173 19260776 19150852 19041476 18933374 18826476 18720086 18612342 
3444.548 18501268 18384902 18262034 18133398 18001034 17867434 17736154 
3447.923 17610190 17490992 17378792 17272792 17171506 17073760 16978824 
3451.299 16886358 16796424 16708644 16621811 16534135 16443793 16349133 
3454.674 16249508 16145846 16039597 15933065 15828036 15724888 15623137 
3458.049 15521790 15418852 15313295 15205191 15095294 14985323 14877438 
3461.424 14773418 14674633 14581969 14494772 14412388 14333478 14256124 
3464.800 14178065 14097657 14013398 13924913 13832853 13738864 13644896 
3468.175 13552861 13464094 13378420 13295461 13213987 13132632 13050335 
3471.550 12966927 12882306 12797327 12713115 12630420 12550742 12475034 
3474.925 12404216 12338283 12277370 12220249 12165384 12111139 12055914 
3478.301 11998175 11937719 11874274 11808353 11740877 11673070 11606500 
3481.676 11543002 11484582 11432634 11387902 11349808 11316172 11284308 
3485.051 11250609 11212424 11168294 11118593 11065022 11010235 10956950 
3488.426 10907070 10861509 10820200 10781986 10746186 10711986 10678738 
3491.802 10646445 10615376 10585600 10558167 10534335 10515562 10503444 
3495.177 10499303 10502697 10512270 10525170 10538375 10549239 10556674 
3498.552 10560815 10563803 10568352 10576534 10589537 10607736 10630282 
3501.927 10656293 10685836 10719389 10758786 10805593 10860559 10923379 
3505.302 10992598 11065328 11138887 11211200 11280941 11347972 11414095 
3508.678 11481010 11551202 11627328 11711296 11804472 11906898 12017080 
3512.053 12132843 12251195 12369032 12483525 12593683 12699263 12800535 
3515.428 12898997 12994887 13087930 13177031 13260650 13337588 13407192 
3518.803 13469904 13526438 13577578 13623594 13663086 13694237 13714344 
3522.179 13720671 13711403 13686030 13644588 13587731 13516525 13430840 
3525.554 13330583 13215217 13085232 12941972 12788693 12628851 12466578 
3528.929 12304672 12144189 11984039 11822007 11655542 11482269 11301617 
3532.304 11113698 10919607 10720612 10517702 10311594 10103483 9895030 
3535.680 9688473 9486688 9291936 9104951 8925387 8751542 8580843 8411934 
3539.537 8244271 8078295 7915620 7757325 7603943 7454895 7308932 7164769 
3543.395 7021967 6881131 6743201 6609588 6481396 6358252 6239681 6125041 
3547.252 6013454 5904818 5799198 5696054 5594680 5493665 5391097 5286474 
3551.109 5180333 5074420 4972185 4877045 4791172 4714996 4647273 4585152 
3554.967 4525685 4466897 4407447 4347168 4286562 4225497 4162768 4097673 
3558.824 4028608 3954605 3876436 3796243 3716999 3642047 3573790 3512891 
3562.682 3457713 3404779 3349481 3286744 3212968 3126856 3030117 2927796 
3566.539 2826932 2735462 2660212 2603275 2563577 2536880 2516984 2498788 
3570.396 2478460 2454768 2427878 2398890 2368906 2338223 2306244 2271003 
3574.254 2231235 2186077 2136061 2083421 2030920 1981356 1936755 1897218 
3578.111 1861644 1827337 1792069 1753975 1712425 1668551 1625013 1584640 
3581.969 1550189 1523022 1502906 1487845 1474380 1457723 1433654 1398318 
3585.826 1349988 1289534 1221446 1152073 1089287 1040228 1008345 993765 
3589.684 992802 999444 1007315 1010669 1006120 992005 969556 940367 907826 
3594.023 874558 842620 813141 786817 763383 742771 724549 707092 688540 
3598.363 666671 639493 606245 568554 529605 494376 467673 452880 450923 
3602.702 460475 478288 499915 521843 540487 552662 555947 548051 527084 
3607.042 493115 448435 397724 347682 305006 273541 253284 240288 228254 
3611.382 211413 186783 155360 122182 95502 81484 83969 102097 130236 160332 
3616.203 183767 193479 184562 156122 110847 55469 -1126 -49896 -83357 -97800 
3621.025 -94421 -78388 -55926 -33331 -15175 -2021 8151 18853 33234 50598 
3625.847 65444 68526 47450 -7985 -100848 -221312 -347933 -453633 -516054 
3630.187 -528927 -499969 -446516 -386601 -334127 -297210 -277144 -270322 
3634.044 -270422 -271249 -269230 -263170 -254494 -245288 -236943 -230121 
3637.901 -223994 -217503 -210615 -203527 -197169 -192532 -189816 -187829 
3641.759 -185610 -181271 -174183 -165241 -156728 -151826 -154310 -167692 
3645.616 -193989 -234095 -286978 -349887 -419241 -490835 -559902 -621944 
3649.474 -672266 -705843 -718579 -708126 -674945 -623367 -560795 -495634 
3653.331 -437778 -395672 -375080 -378325 -402656 -439532 -476967 -504007 
3657.188 -513009 -502352 -475742 -439433 -399975 -362037 -328300 -298733 
3661.046 -272971 -249990 -229558 -212370 -199487 -191141 -186703 -183457 
3664.903 -177793 -166532 -147984 -123208 -96475 -75638 -68283 -80276 -111448 
3669.243 -153151 -187233 -190213 -143281 -37373 122911 323077 543008 760428 
3673.583 956538 1111610 1210215 1242845 1209850 1120845 991507 836345 665476 
3677.922 484855 300762 120425 -45192 -184119 -287971 -353926 -386005 -393487 
3682.262 -386932 -374518 -360481 -345450 -327704 -306944 -285422 -268965 
3686.119 -265057 -281448 -322572 -387693 -468957 -554376 -631406 -690593 
3689.977 -728172 -745505 -746332 -734192 -712261 -683150 -649306 -614102 
3693.834 -581278 -553747 -533759 -520819 -512148 -503511 -490471 -470546 
3697.691 -443967 -414441 -386932 -368161 -362765 -373359 -398518 -433673 
3701.549 -471605 -504636 -527637 -537532 -535083 -523103 -505397 -485341 
3705.406 -465747 -447642 -431422 -417023 -404510 -394513 -389316 -391169 
3709.264 -402921 -426490 -462139 -506655 -554574 -597658 -627436 -637527 
3713.121 -625716 -593786 -547757 -495468 -444663 -401498 -370048 -350814 
3716.979 -341808 -339193 -338961 -338398 -337537 -338199 -344159 -358627 
3720.836 -382529 -413150 -445953 -474551 -493714 -502054 -501492 -497355 
3724.693 -496362 -503147 -518767 -539583 -558479 -566222 -557188 -529192 
3728.551 -486433 -436983 -391169 -358958 -346841 -356673 -384648 -423081 
3732.408 -462271 -495336 -520919 -541801 -563575 -590213 -621381 -651324 
3736.266 -671538 -673490 -653739 -614102 -560365 -499043 -435891 -374187 
3740.123 -315420 -261680 -216775 -187233 -183126 -215119 -289263 -400902 
3743.980 -529424 -642325 -706571 -706472 -648875 -556824 -457737 -374253 
3747.838 -323930 -314030 -343431 -402491 -477166 -552887 -617808 -666245 
3751.695 -694596 -700286 -681297 -636535 -569002 -485043 -395010 -310454 
3755.553 -240883 -193724 -171169 -171633 -189352 -217172 -248632 -278336 
3759.410 -302044 -316414 -318268 -306017 -280091 -244857 -206939 -175011 
3763.268 -156894 -156629 -173024 -199686 -226279 -243003 -244195 -231147 
3767.125 -210350 -191571 -182463 -186868 -202832 -223431 -239161 -243102 
3770.982 -232638 -210449 -183126 -157358 -138411 -128276 -125427 -126255 
3774.840 -126719 -124036 -117510 -109692 -104889 -107606 -120856 -144307 
3778.697 -173653 -201871 -219987 -221676 -205216 -174216 -135762 -99125 
3782.555 -72424 -60531 -64043 -79580 -100947 -121750 -136457 -143281 -142850 
3786.894 -138146 -131985 -126984 -124036 -122976 -122976 -122313 -119365 
3790.752 -112707 -100947 -83854 -62486 -39759 -19979 -8449 -10105 -27036 
3795.091 -57715 -96243 -133244 -158484 -165638 -153648 -128574 -100881 
3798.949 -83754 -88558 -122214 -183093 -259494 -332604 -381139 -390905 
3802.806 -360845 -301713 -231048 -167493 -127083 -118901 -143711 -192433 
3806.664 -248069 -291316 -306679 -289461 -245586 -187332 -126652 -72590 
3810.521 -28461 7256 38337 67996 96033 117509 123375 104782 55602 -22563 
3815.343 -118239 -210250 -276846 -303070 -287442 -241413 -183291 -134735 
3819.200 -113303 -129567 -183590 -263700 -347403 -408648 -430330 -407258 
3823.058 -348662 -270223 -189949 -122578 -76864 -54733 -51884 -59372 -66826 
3827.397 -66163 -54733 -34391 -10470 10934 25248 30882 28628 22067 14744 
3832.219 9774 8051 9078 10702 9608 2683 -13617 -42343 -84649 -139604 -201971 
3837.523 -263600 -313401 -342338 -345218 -323301 -283369 -234724 -187166 
3841.380 -148083 -120558 -104260 -95978 -91109 -85212 -75737 -62022 -45291 
3845.720 -26870 -8482 9774 28330 48941 73563 103158 137130 171701 199976 
3850.542 210816 191192 128247 14148 -147719 -337935 -520819 -659065 -728238 
3854.881 -725856 -666575 -572675 -464886 -357071 -258004 -171269 -97370 
3858.739 -36147 12624 49505 74491 88410 92652 89338 79760 64549 43904 18190 
3864.043 -9840 -34623 -49499 -48107 -28825 3611 38967 63224 63622 32306 
3868.865 -29620 -109792 -187564 -241181 -258997 -241148 -199652 -150435 
3872.722 -108334 -81104 -68747 -64242 -57086 -39096 -6825 36250 82412 121486 
3877.544 145151 147869 128777 91525 44335 -1192 -34623 -47677 -38102 -9476 
3882.365 28496 63390 83340 78799 46323 -9045 -73451 -128011 -156099 -148680 
3887.187 -108699 -47942 16865 70249 101269 105511 85759 51294 15241 -10768 
3892.009 -19217 -8647 17693 54409 96265 139549 181678 221060 255107 280437 
3896.831 293335 290284 269728 233260 185523 133915 86256 48113 21935 5665 
3901.653 -4870 -15274 -28991 -46650 -65501 -80408 -86139 -78984 -58278 
3905.992 -26208 13121 55237 96231 133252 165138 191291 212043 228254 240951 
3910.814 251162 260312 269397 278713 287698 294363 296087 290152 274403 
3915.154 248742 215325 178198 142201 112173 91227 80423 78700 84698 96530 
3919.975 113101 133683 156652 180054 200938 215955 222286 218905 206639 
3924.315 189070 170872 156453 149427 150686 159238 172596 188242 203324 
3928.655 216187 225900 231933 234221 233425 230508 227126 225535 228220 
3932.994 236575 250764 269728 290085 308786 322812 330405 331201 327189 
3937.334 320789 314986 312035 312334 315185 317971 317805 312102 300132 
3941.673 282857 263793 247681 239161 241514 255339 278315 305338 330704 
3946.013 348710 355508 350003 334086 311803 288361 268468 255704 251162 
3950.353 254544 263926 277553 293401 309980 326691 342906 358326 372884 
3954.692 386216 398321 409099 418452 426279 432581 437092 439811 440806 
3959.032 440044 437821 433974 428634 421769 413975 406114 399283 395137 
3963.371 394640 397956 404290 412151 419182 423924 425948 425815 425284 
3967.711 426545 430889 438717 449264 460741 470957 478520 482931 484126 
3972.051 482766 479548 474606 468502 461371 454339 448833 446876 449430 
3976.390 457125 469033 482998 496930 508905 518094 524696 529804 534316 
3980.730 538729 542577 544833 544634 541648 536473 530468 524828 520383 
3985.069 516701 512952 507545 500048 490893 481837 475203 472947 475899 
3989.409 483296 493082 502436 508971 511227 508938 503100 495537 487741 
3993.749 481472 478022 477856 481903 490196 502204 516701 531994 546027 
3998.088 557141 564175 567426 567658 566298 564938 
##END=
