
##TITLE=mdmaHCL00403_4
##JCAMP-DX=5.01  $$ Nicolet v. 1
##DATATYPE=INFRARED SPECTRUM
##ORIGIN=UniL
##OWNER=Nicolet
##LONGDATE=2011/08/23
##TIME=11:19:17
##SPECTROMETER/DATA SYSTEM=Nicolet iS5
##DATA PROCESSING=
Ratio against background
%Transmittance->Absorbance
Truncated
ElementMultiply or ElementDivide
##COMMENTS=
Number of sample scans: 32
Collection length: 51.22 sec
Sample gain: 2.0
Background collected on: Mar Aout 23 11:16:59 2011 (GMT+02:00);
Number of background scans: 32
Background gain: 2.0
Sample spacing:  1.000
Number of scan points: 12415
Resolution points: 8192
Number of FFT points: 65536
Apodization: N-B fort;
Phase correction: Mertz;
Laser frequency: 15798.0 cm-1
Number of rejected sample scans: 0
Number of rejected background scans: 0
Bench serial number: ASB1000141;
##RESOLUTION=4.000
##XUNITS=1/CM
##YUNITS=ABSORBANCE
##FIRSTX=649.893372
##LASTX=4000.122314
##FIRSTY=0.090504
##MAXX=4000.122314
##MINX=649.893372
##MAXY=0.247032
##MINY=0.000613
##XFACTOR=1.000000
##YFACTOR=1.000000E-009
##NPOINTS=6950
##DELTAX=0.482117
##ZPD=6100
##XYDATA=(X++(Y..Y))
649.893 90504344 89860208 89261424 88746416 88326904 87994744 87736312 
653.268 87546128 87431632 87410200 87494848 87682216 87949264 88261368 
656.643 88586536 88909888 89240344 89602088 90021328 90509808 91059152 
660.018 91646432 92249088 92855296 93472576 94120696 94822008 95587000 
663.393 96411840 97282432 98186392 99122112 100094368 101105728 102134032 
666.767 103107176 103905984 104396488 104504160 104261960 103786424 
669.660 103203440 102588080 101959472 101296296 100564792 99741752 98830144 
673.035 97857440 96866200 95893984 94958752 94059552 93183928 92322240 
676.410 91474080 90651160 89867464 89130728 88436032 87766800 87103152 
679.785 86431816 85751944 85073904 84412656 83778776 83172864 82586872 
683.159 82008784 81430592 80852448 80282208 79729888 79201472 78695744 
686.534 78205680 77723864 77248040 76783448 76341432 75933648 75565056 
689.909 75232024 74922168 74621544 74320144 74016472 73716944 73432304 
693.284 73172816 72943000 72744256 72576384 72441848 72349080 72310992 
696.659 72339288 72442672 72621656 72869128 73174152 73526200 73917984 
700.034 74345784 74807096 75296016 75801504 76309048 76803688 77275864 
703.408 77724416 78155464 78578160 78998096 79412664 79811664 80181848 
706.783 80511960 80798768 81048232 81271672 81480792 81682224 81878024 
710.158 82068624 82258544 82460728 82695560 82984664 83342552 83766720 
713.533 84233736 84699848 85113360 85424408 85595992 85613832 85485968 
716.908 85241448 84921416 84579984 84278024 84075472 84034256 84206824 
720.282 84625392 85294992 86181944 87214280 88277288 89238024 89964136 
723.657 90341624 90308248 89862896 89071544 88047944 86933480 85868584 
727.032 84953816 84244560 83746392 83429832 83247464 83154080 83121016 
730.407 83134064 83190160 83288568 83422168 83577344 83738672 83893112 
733.782 84036712 84173680 84312792 84461152 84620360 84785744 84950232 
737.156 85110016 85267160 85429208 85605432 85801152 86013680 86233184 
740.531 86446848 86644968 86825176 86992536 87154936 87319560 87487640 
743.906 87654888 87814424 87962816 88101960 88239648 88385296 88544976 
747.281 88718448 88899480 89079808 89254056 89422848 89591584 89766448 
750.656 89949504 90135688 90314368 90474880 90611528 90727072 90831688 
754.031 90937648 91053272 91179352 91309072 91433832 91548896 91657568 
757.405 91769368 91896768 92047904 92223728 92417528 92619624 92823256 
760.780 93028320 93241256 93470440 93721536 93994088 94282992 94582552 
764.155 94893400 95225848 95601744 96049752 96597720 97267424 98067352 
767.530 98988216 99998248 101043376 102052176 102938776 103628072 104076320 
770.905 104293600 104352160 104378616 104525912 104912256 105581160 
773.797 106462896 107386864 108102504 108348384 107941040 106808352 
776.690 105020280 102747064 100218840 97649736 95184136 92891696 90765280 
780.065 88754224 86790824 84822568 82823248 80792224 78748328 76720544 
783.440 74743376 72848872 71067952 69427712 67947200 66637568 65500780 
786.815 64531228 63720824 63062884 62556044 62204732 62017304 62001520 
790.189 62163480 62506108 63031124 63742920 64650952 65768784 67111264 
793.564 68686392 70487960 72487968 74636448 76860048 79062568 81142008 
796.939 82990400 84506352 85616616 86282928 86519640 86392512 86020104 
800.314 85551448 85128840 84873840 84847576 85036784 85346848 85617792 
803.689 85661008 85280952 84337936 82776416 80642792 78075424 75273752 
807.063 72459464 69806472 67418032 65307140 63410172 61615032 59802752 
810.438 57891268 55848228 53698092 51501544 49337540 47277392 45368084 
813.813 43634452 42080572 40698604 39476296 38401540 37463596 36651132 
817.188 35953156 35358624 34857772 34443900 34112920 33861564 33686256 
820.563 33580460 33535466 33542876 33596892 33697428 33850172 34065612 
823.938 34355848 34730944 35196256 35750812 36387420 37089668 37833216 
827.312 38586184 39307124 39952824 40484612 40874760 41117316 41232648 
830.687 41267996 41288072 41369628 41591088 42014244 42679960 43593900 
834.062 44721188 45978148 47233616 48333112 49100108 49378520 49067460 
837.437 48135392 46637352 44696400 42490056 40202064 37991980 35985012 
840.812 34250176 32810350 31653564 30748344 30054566 29532056 29147000 
844.186 28869464 28674390 28543092 28461502 28421032 28417778 28449474 
847.561 28513548 28605622 28719768 28850164 28993738 29150862 29325272 
850.936 29521276 29742276 29988738 30258748 30549902 30861990 31197978 
854.311 31564296 31968086 32415130 32908664 33448886 34036224 34673124 
857.686 35366672 36128840 36975612 37923636 38991088 40196500 41557800 
861.060 43094408 44821176 46742320 48841600 51073296 53359572 55584204 
864.435 57615556 59318840 60572084 61297452 61466672 61110640 60311376 
867.810 59196628 57924016 56647880 55517968 54657524 54148604 54040708 
871.185 54345028 55041964 56082744 57395076 58889500 60451956 61957264 
874.560 63277832 64285540 64879380 64996088 64618616 63779644 62554164 
877.935 61049272 59376960 57648508 55958988 54373188 52930464 51643252 
881.309 50503268 49489944 48579200 47752684 47000616 46324784 45735180 
884.684 45246424 44871396 44616860 44484364 44469420 44567364 44775000 
888.059 45093404 45526680 46079340 46752468 47540628 48432452 49413124 
891.434 50467764 51585748 52762892 54001308 55307768 56690160 58155148 
894.809 59704584 61332712 63020280 64729908 66403576 67954600 69278872 
898.183 70266720 70812184 70841784 70325544 69284856 67787024 65936788 
901.558 63864424 61696680 59555696 57545416 55739120 54187228 52915492 
904.933 51928456 51216548 50761356 50542092 50538404 50734280 51119252 
908.308 51687104 52434856 53361892 54467908 55752944 57216132 58853684 
911.683 60656128 62604568 64665256 66793768 68934512 71028224 73027160 
915.058 74898864 76636096 78256072 79799000 81318376 82867992 84495520 
918.432 86226632 88057200 89943024 91799456 93511328 94933848 95929280 
921.807 96392352 96274760 95610664 94520920 93214680 91942744 90980824 
925.182 90590744 90960400 92192424 94272448 97073680 100354248 103784656 
928.557 107014456 109675640 111453256 112130720 111584160 109799992 
931.450 106853480 102895944 98125864 92769008 87080680 81307512 75678704 
934.824 70402384 65631524 61471744 57982592 55179268 53049840 51565900 
938.199 50693136 50391588 50611036 51287124 52323496 53590272 54937644 
941.574 56192092 57189368 57802688 57948856 57610108 56828704 55700204 
944.949 54347992 52901456 51483224 50183484 49059408 48137132 47416176 
948.324 46879420 46501544 46258104 46125548 46083208 46113388 46198396 
951.698 46321392 46468356 46628316 46795568 46969680 47154200 47354500 
955.073 47574864 47818304 48085716 48376888 48692088 49031776 49396712 
958.448 49786780 50200180 50633448 51082280 51543328 52015064 52498116 
961.823 52994432 53505600 54031136 54569412 55117004 55671728 56233012 
965.198 56803248 57385696 57983804 58598704 59230008 59875804 60535328 
968.573 61210080 61904300 62623664 63373364 64156352 64972924 65821992 
971.947 66702852 67617408 68570488 69569168 70620256 71728360 72894992 
975.322 74119784 75401832 76742008 78143320 79610024 81146360 82754768 
978.697 84435800 86190312 88021160 89935280 91944544 94062096 96299864 
982.072 98664976 101157120 103768624 106483432 109278808 112119352 114952184 
985.447 117708136 120292792 122593184 124497840 125899848 126721296 
988.339 126926200 126523792 125569360 124153288 122401072 120452408 
991.232 118447792 116527536 114806448 113370136 112274912 111542216 
994.125 111168496 111132760 111407600 111965176 112781064 113836472 
997.017 115114032 116595824 118263648 120097016 122075296 124178032 
999.910 126379936 128647480 130936760 133185488 135320720 137268144 
1002.803 138956240 140334016 141376592 142087776 142498640 142664464 
1005.695 142663456 142583712 142523296 142583472 142850144 143395040 
1008.588 144265520 145481488 147041616 148928272 151118624 153586832 
1011.481 156309216 159264304 162426672 165767936 169258688 172867392 
1014.374 176566176 180328960 184121808 187895408 191573984 195044128 
1017.266 198172128 200812736 202832448 204145776 204727344 204628192 
1020.159 203964656 202920064 201723200 200606848 199811312 199542816 
1023.052 199946416 201109120 203043936 205701680 208978368 212740080 
1025.945 216844496 221138880 225481200 229735136 233759440 237422752 
1028.838 240603712 243200304 245148768 246422752 247031712 247008048 
1031.731 246396976 245248000 243608272 241529168 239064576 236264800 
1034.624 233175168 229823952 226220160 222357216 218224336 213819808 
1037.517 209162560 204295024 199278640 194190480 189107008 184102112 
1040.410 179246448 174598640 170207296 166104160 162294432 158754064 
1043.303 155427632 152242928 149118992 145987952 142814272 139598704 
1046.196 136381760 133229496 130227864 127463280 125009952 122929904 
1049.089 121263200 120028304 119224168 118831104 118814688 119127680 
1051.982 119719800 120540344 121539976 122676464 123906976 125183416 
1054.875 126452056 127646296 128689976 129510432 130037800 130217360 
1057.768 130017056 129426184 128459256 127154512 125577856 123817736 
1060.661 121977176 120175104 118524840 117125400 116060024 115382544 
1063.554 115121848 115284144 115854736 116799824 118064568 119579184 
1066.448 121252424 122976912 124646192 126153496 127408352 128347304 
1069.341 128929080 129135472 128965288 128429192 127546120 126340624 
1072.234 124845264 123096512 121133376 118999856 116740640 114405120 
1075.127 112052792 109749136 107567776 105588384 103881448 102507816 
1078.020 101510560 100909176 100700896 100859728 101341312 102078072 
1080.913 102982960 103958680 104892056 105673952 106216680 106461208 
1083.806 106396256 106059848 105538568 104949392 104424216 104102080 
1086.699 104100736 104513936 105404072 106791744 108655128 110925248 
1089.592 113497440 116227608 118947344 121495048 123716224 125487952 
1092.485 126733496 127414184 127532600 127121704 126240776 124964760 
1095.378 123373616 121553336 119582144 117527296 115448496 113391088 
1098.271 111389960 109469760 107641384 105900664 104224760 102576632 
1101.164 100906288 99161704 97304824 95317408 93211808 91027688 88830280 
1104.540 86698128 84707296 82931160 81428040 80237968 79387048 78885152 
1107.915 78729144 78903992 79385096 80140408 81129024 82307920 83629520 
1111.290 85040328 86485464 87902488 89221992 90377112 91301256 91938488 
1114.665 92251840 92222088 91850504 91154256 90164560 88922040 87471752 
1118.041 85865352 84153168 82380376 80586744 78800576 77039792 75315520 
1121.416 73634856 72004576 70434768 68936536 67522064 66201276 64979696 
1124.791 63859128 62840192 61924056 61116740 60430136 59879344 59482580 
1128.166 59255868 59209540 59346340 59659608 60133436 60740680 61444992 
1131.542 62202212 62958492 63660316 64258912 64716676 65017908 65170100 
1134.917 65205520 65171876 65127716 65132184 65231556 65457248 65818592 
1138.292 66303088 66875084 67480224 68055664 68529552 68834648 68917928 
1141.667 68739264 68278680 67533832 66516600 65249568 63763068 62095888 
1145.042 60290820 58394588 56457508 54525496 52641236 50840804 49150308 
1148.418 47588432 46166632 44889880 43759180 42771652 41922640 41205252 
1151.793 40611824 40135080 39768504 39507432 39349492 39293272 39337632 
1155.168 39480688 39718616 40046120 40457516 40947356 41511204 42146028 
1158.543 42848844 43616500 44444608 45327516 46259060 47232616 48240572 
1161.919 49273884 50319216 51357904 52367156 53317912 54179456 54922676 
1165.294 55518836 55943872 56178252 56206724 56020616 55619488 55012104 
1168.669 54215832 53255952 52163216 50968324 49701320 48390520 47059252 
1172.044 45730028 44424052 43159724 41955048 40825544 39782776 38835652 
1175.420 37989628 37247872 36612452 36085020 35667384 35361104 35167476 
1178.795 35087076 35120268 35267728 35531264 35913924 36419888 37053364 
1182.170 37817780 38714720 39743928 40903228 42189004 43594080 45105644 
1185.545 46704388 48359184 50027524 51660008 53198496 54584668 55766996 
1188.921 56699828 57350980 57703644 57756668 57526048 57042888 56353560 
1192.296 55510360 54569712 53588584 52615128 51690912 50848440 50108284 
1195.671 49482296 48972688 48573492 48270972 48044932 47872020 47723948 
1199.046 47571276 47385432 47136284 46796788 46344252 45761760 45042640 
1202.422 44192228 43229300 42182904 41089272 39988464 38915304 37899336 
1205.797 36961576 36113752 35360672 34702304 34134892 33653100 33249852 
1209.172 32917812 32649182 32436940 32276344 32165144 32104064 32096106 
1212.547 32145594 32256178 32430124 32668076 32969360 33332202 33753612 
1215.923 34229816 34754632 35319444 35914104 36527600 37149148 37771188 
1219.298 38388180 38997032 39596064 40183708 40758976 41322104 41876116 
1222.673 42428092 42988452 43571148 44190428 44858536 45584600 46372856 
1226.048 47222308 48126320 49073136 50045072 51017396 51962400 52849288 
1229.424 53647668 54333800 54891056 55312696 55601976 55772572 55848420 
1232.799 55861380 55855052 55881312 55994040 56252660 56711452 57415760 
1236.174 58403116 59698500 61316184 63261540 65531252 68112792 70980888 
1239.549 74098328 77411984 80852296 84344288 87804648 91147920 94296944 
1242.925 97175088 99712272 101850880 103543032 104758768 105486992 105734520 
1246.300 105522728 104882224 103853296 102481088 100814592 98908904 96815016 
1249.675 94575008 92217544 89750848 87166160 84443848 81566064 78526704 
1253.050 75341064 72046320 68702504 65384476 62166652 59122664 56312180 
1256.426 53772904 51523296 49558832 47856624 46377060 45071312 43887644 
1259.801 42772564 41680984 40578716 39443060 38265892 37050480 35809924 
1263.176 34562176 33328372 32130178 30985984 29911100 28916562 28008224 
1266.551 27187564 26452076 25796376 25213436 24696048 24238344 23836072 
1269.927 23486180 23186756 22935320 22729136 22565036 22439898 22351946 
1273.302 22300984 22288150 22315112 22382924 22491330 22637810 22817340 
1276.677 23021992 23241178 23460720 23662840 23829598 23942112 23986088 
1280.052 23954296 23847520 23674388 23448092 23183994 22895188 22591108 
1283.427 22277860 21959400 21640060 21326662 21028200 20755522 20520392 
1286.803 20332644 20200372 20129462 20124776 20190098 20329208 20544152 
1290.178 20835816 21201880 21637692 22134952 22682006 23264284 23861590 
1293.553 24449766 25001780 25488574 25885520 26176466 26356970 26435350 
1296.928 26431370 26373344 26291034 26213912 26168196 26173652 26244990 
1300.304 26390560 26611488 26900594 27241466 27611028 27979070 28314318 
1303.679 28589696 28783246 28881786 28881468 28786288 28606824 28358140 
1307.054 28060214 27734170 27401026 27081152 26789990 26538290 26331834 
1310.429 26171820 26057708 25988226 25962548 25980312 26040432 26140818 
1313.805 26277200 26444752 26639566 26858998 27102876 27372194 27667986 
1317.180 27990484 28338508 28710388 29105402 29524430 29970454 30445614 
1320.555 30950224 31478896 32021302 32560602 33074968 33542696 33942492 
1323.930 34257884 34481060 34615240 34676824 34693440 34704280 34752444 
1327.306 34876300 35105036 35450468 35905756 36446192 37037600 37643540 
1330.681 38231192 38779132 39277712 39728348 40141040 40531244 40918084 
1334.056 41320428 41756232 42239760 42779112 43375108 44020148 44700916 
1337.431 45398468 46091976 46761472 47387132 47951048 48438488 48838372 
1340.807 49145152 49359368 49487084 49537108 49518796 49439704 49304020 
1344.182 49113316 48867552 48567048 48214396 47814272 47372128 46893152 
1347.557 46380228 45833188 45249252 44625268 43960672 43259756 42534164 
1350.932 41801832 41089052 40426276 39845312 39379788 39058908 38905224 
1354.308 38932372 39140304 39513496 40018512 40610512 41235200 41835032 
1357.683 42360840 42771652 43039484 43152296 43112044 42936256 42654736 
1361.058 42311816 41961980 41661144 41464652 41413728 41526916 41799168 
1364.433 42203320 42697396 43227980 43739940 44178652 44490600 44634156 
1367.809 44581904 44326252 43880900 43276848 42556492 41761012 40929368 
1371.184 40093976 39279556 38509636 37808816 37202352 36717148 36375028 
1374.559 36186348 36147600 36242284 36448172 36742860 37111000 37546460 
1377.934 38051000 38633156 39306292 40089076 41003104 42072172 43315692 
1381.310 44737792 46314576 47981832 49641364 51158504 52384012 53183520 
1384.685 53438784 53074176 52069672 50478964 48435824 46133576 43804148 
1388.060 41648452 39799008 38313264 37178928 36344188 35739260 35298596 
1391.435 34965244 34691432 34440780 34182244 33890580 33550248 33156286 
1394.811 32716628 32247684 31768478 31293224 30827876 30372836 29926932 
1398.186 29492938 29081096 28708122 28392096 28147846 27981084 27889318 
1401.561 27864232 27896032 27976314 28099310 28262686 28465924 28708866 
1404.936 28990162 29306234 29652408 30024030 30418216 30834742 31275418 
1408.312 31743240 32240010 32765396 33315710 33885420 34468648 35060636 
1411.687 35658756 36261228 36865224 37465944 38056028 38628264 39178484 
1415.062 39708564 40227216 40748496 41289820 41868160 42496272 43180000 
1418.437 43914992 44685088 45464612 46223128 46932908 47571568 48125284 
1421.813 48589168 48967124 49274144 49535508 49785996 50060020 50384332 
1425.188 50772976 51226464 51737492 52297708 52902168 53548476 54233064 
1428.563 54949112 55683632 56421320 57150704 57868516 58582096 59305204 
1431.938 60054328 60842936 61679532 62570548 63524640 64557180 65690264 
1435.313 66948600 68349024 69889744 71542440 73262080 75003680 76732048 
1438.689 78420360 80037416 81540960 82865264 83924632 84635008 84916224 
1442.064 84711120 83992888 82761864 81045400 78892664 76379320 73597840 
1445.439 70645280 67626696 64638032 61766804 59096736 56696844 54613260 
1448.814 52860740 51421420 50254972 49314896 48568604 48003884 47628432 
1452.190 47457684 47500596 47746324 48164304 48703096 49299380 49889796 
1455.565 50408596 50805936 51063124 51207412 51301780 51415264 51602432 
1458.940 51887344 52273972 52756904 53326604 53971296 54673080 55408260 
1462.315 56140768 56820620 57393296 57804508 58019476 58037732 57897212 
1465.691 57660204 57387096 57124024 56892760 56695220 56521356 56354960 
1469.066 56175464 55954652 55655384 55232580 54639560 53847912 52868596 
1472.441 51765040 50636164 49584236 48681116 47953708 47397772 46997256 
1475.816 46739808 46623296 46651964 46827748 47143784 47581848 48117960 
1479.192 48726672 49389100 50097052 50852944 51667176 52554244 53529812 
1482.567 54607696 55802936 57134792 58627220 60306584 62193188 64290688 
1485.942 66570512 68958904 71343512 73564160 75428520 76743120 77320920 
1489.317 77025312 75809040 73734968 70973984 67754712 64317852 60850976 
1492.693 57465944 54220488 51125628 48177076 45384748 42779332 40417624 
1496.068 38370700 36698288 35429040 34552956 34035184 33828104 33886064 
1499.443 34172384 34654428 35301296 36082936 36965184 37912244 38890116 
1502.818 39857008 40763924 41549924 42123644 42365512 42134016 41297436 
1506.194 39805800 37749104 35348812 32854482 30445756 28196564 26105736 
1509.569 24144982 22292334 20541444 18905686 17407900 16065383 14886729 
1512.944 13867163 12992600 12244889 11606092 11059075 10586380 10170943 
1516.319 9799721 9465557 9170462 8922613 8729568 8592064 8500283 8433386 
1520.177 8367850 8284932 8182445 8076979 7996376 7962527 7979805 8036372 
1524.034 8111816 8188219 8255415 8315327 8378829 8459670 8566244 8697655 
1527.892 8845676 9001154 9159667 9323418 9499591 9695995 9916081 10157104 
1531.749 10410614 10665528 10914511 11156837 11399774 11652173 11919634 
1535.124 12199972 12485230 12764466 13027663 13268131 13481593 13665752 
1538.500 13817392 13931311 13999744 14016375 13983182 13911535 13817939 
1541.875 13717012 13612961 13500426 13365913 13197183 12988776 12747985 
1545.250 12492255 12243048 12016535 11815878 11632909 11452943 11262646 
1548.625 11055710 10837321 10620876 10422899 10253476 10112741 9991853 
1552.000 9879708 9768001 9655948 9549852 9460205 9395395 9357272 9340446 
1555.858 9333235 9321725 9289769 9218960 9091789 8896876 8642050 8360250 
1559.715 8097671 7889673 7747509 7663192 7618206 7592343 7566752 7528283 
1563.573 7471345 7399012 7321703 7252393 7201453 7171270 7157055 7148230 
1567.430 7135430 7112055 7077331 7035706 6995231 6963580 6945870 6944658 
1571.288 6960819 6995264 7047930 7117208 7198826 7283896 7361063 7419908 
1575.145 7454828 7469862 7479064 7501785 7551209 7630582 7734253 7853436 
1579.002 7981021 8113808 8252782 8400786 8560601 8732813 8915511 9105763 
1582.860 9299958 9495561 9689117 9875743 10047325 10193466 10304198 10372232 
1586.717 10396971 10385025 10350888 10312986 10291304 10305488 10370433 
1590.093 10497334 10692934 10958072 11286416 11661600 12058367 12441311 
1593.468 12770301 13009875 13131436 13121225 12981880 12731539 12399476 
1596.843 12018510 11622903 11241428 10896605 10606208 10382310 10231696 
1600.218 10156663 10155238 10222367 10352720 10541702 10786504 11083717 
1603.594 11427837 11808660 12210332 12614286 12998438 13341380 13623971 
1606.969 13828988 13942977 13957656 13869592 13681585 13401929 13045521 
1610.344 12632262 12186103 11734136 11300222 10902585 10551377 10247200 
1613.719 9983784 9750142 9534678 9326600 9119636 8914597 8719967 8549448 
1617.577 8416426 8329344 8289085 8290031 8321846 8372511 8430953 8488220 
1621.434 8540020 8587467 8637048 8697012 8774195 8871410 8986880 9116692 
1625.292 9257240 9406806 9565094 9731166 9902250 10072961 10236819 10388725 
1629.149 10527343 10655410 10778181 10901192 11027364 11155714 11281553 
1632.524 11397801 11496354 11568896 11608338 11610107 11574409 11508704 
1635.899 11427089 11346918 11281893 11237823 11212832 11198824 11184851 
1639.275 11159896 11116587 11053093 10974281 10889335 10809092 10741261 
1642.650 10687024 10642065 10596769 10540242 10462203 10356656 10223453 
1646.025 10069943 9909132 9757326 9630810 9540199 9490481 9480490 9503892 
1649.883 9549886 9602423 9641042 9639551 9571395 9422923 9211142 8986779 
1653.740 8806282 8700596 8663953 8671728 8696877 8720406 8732339 8729398 
1657.597 8713543 8688325 8657362 8622109 8582094 8535154 8478726 8410650 
1661.455 8329885 8236843 8134368 8027967 7924698 7832248 7756313 7699277 
1665.312 7659077 7629873 7603201 7568910 7517495 7443132 7344348 7225238 
1669.170 7095013 6965028 6845214 6742831 6660996 6598822 6552568 6514929 
1673.027 6476351 6425032 6350317 6247345 6120974 5987048 5865153 5771227 
1676.885 5709852 5674971 5653890 5633716 5606394 5570985 5533733 5503799 
1680.742 5488833 5488800 5495141 5490444 5454977 5372713 5242405 5083001 
1684.599 4927846 4807353 4733285 4699286 4689808 4689841 4687764 4677114 
1688.457 4655746 4624198 4584851 4541456 4499303 4464319 4442426 4437037 
1692.314 4447715 4468838 4489528 4496089 4476036 4423313 4344691 4259927 
1696.172 4194315 4164340 4171265 4201241 4233059 4242461 4209371 4126506 
1700.029 4005700 3877774 3775252 3717734 3703866 3719706 3747244 3771208 
1703.886 3780901 3770372 3740259 3696213 3647527 3602789 3567476 3542955 
1707.744 3527422 3517134 3508883 3501267 3494687 3490879 3491848 3499029 
1711.601 3511956 3529159 3548066 3566707 3584046 3600617 3616888 3632257 
1715.459 3643918 3646190 3633761 3603724 3559692 3512190 3475381 3460185 
1719.316 3470639 3503773 3551607 3604492 3654444 3696414 3728696 3752391 
1723.174 3770606 3786716 3803262 3821513 3842204 3865304 3890444 3916489 
1727.031 3941531 3962563 3976674 3982192 3980118 3974333 3969719 3970120 
1730.888 3975002 3978614 3969151 3931601 3853102 3730467 3576730 3419540 
1734.746 3290884 3210531 3179656 3186065 3211466 3240073 3259035 3261405 
1738.603 3246383 3218409 3185764 3157127 3138704 3132930 3138203 3150785 
1742.461 3167340 3184229 3199983 3214337 3228523 3244480 3263509 3286210 
1746.318 3311851 3338395 3363138 3383140 3396364 3401172 3396864 3382806 
1750.176 3359364 3328512 3294122 3262474 3239940 3231327 3237937 3256999 
1754.033 3281836 3303404 3313153 3305174 3278598 3238738 3195177 3158128 
1757.890 3133764 3122651 3119547 3117245 3107867 3086343 3051772 3007596 
1761.748 2960087 2916420 2882497 2861118 2852646 2854781 2863953 2875727 
1765.605 2885066 2887334 2879963 2863653 2842774 2824364 2815727 2819795 
1769.463 2834770 2853480 2865987 2863252 2840539 2800653 2753367 2711655 
1773.320 2684983 2676881 2684482 2701886 2723425 2746065 2769173 2793616 
1777.177 2819495 2844842 2865987 2878862 2880796 2872925 2859417 2847076 
1781.035 2841907 2846709 2860217 2877661 2893438 2903111 2904946 2900309 
1784.892 2892771 2886400 2884532 2889002 2900443 2918622 2942974 2972231 
1788.750 3003325 3031719 3051338 3055876 3040728 3005360 2954383 2897474 
1792.607 2844742 2804921 2781278 2772274 2772975 2778443 2784779 2789648 
1796.465 2792616 2793583 2792516 2788781 2781511 2769940 2754234 2734761 
1800.322 2713189 2691384 2671347 2654678 2642843 2637143 2638010 2646010 
1804.179 2659679 2677615 2697485 2717190 2735228 2751500 2765872 2778810 
1808.037 2790248 2798952 2803321 2802620 2796084 2785480 2773308 2762837 
1811.894 2756268 2754635 2757602 2763704 2771541 2780544 2790882 2803821 
1815.752 2820496 2841273 2865787 2892704 2920290 2946843 2971497 2993483 
1819.609 3013134 3031252 3048769 3066888 3086443 3107233 3128024 3146380 
1823.467 3159363 3164736 3162600 3155692 3149484 3149117 3158061 3175984 
1827.324 3198415 3218142 3227689 3222081 3201352 3171045 3140373 3119214 
1831.181 3113674 3125121 3150285 3183895 3220879 3257933 3293855 3328812 
1835.039 3363705 3398901 3434334 3469971 3506010 3543991 3586752 3636434 
1838.896 3695277 3763788 3840767 3923610 4008643 4092254 4170529 4240554 
1842.754 4300650 4351518 4397271 4444033 4499404 4568108 4651157 4744004 
1846.611 4839350 4927813 5000607 5052664 5082164 5091249 5084410 5066408 
1850.469 5040495 5007679 4967325 4917927 4859152 4791406 4716503 4636254 
1854.326 4552304 4465390 4376720 4287767 4201107 4120117 4047704 3984767 
1858.183 3929929 3879278 3828365 3773982 3715395 3654377 3594570 3539982 
1862.041 3492683 3453538 3421577 3395929 3376361 3363271 3357227 3357428 
1865.898 3361234 3364039 3360733 3347477 3323971 3293989 3264176 3241442 
1869.756 3230627 3232963 3245615 3264377 3284674 3303204 3317727 3327210 
1873.613 3331150 3328913 3321066 3308279 3292186 3275126 3258701 3243612 
1877.470 3229158 3213102 3193341 3168708 3140105 3110036 3081671 3057745 
1881.328 3039093 3024712 3012100 2998721 2983007 2965158 2946076 2927495 
1885.185 2910450 2895039 2880363 2865087 2848210 2828766 2807056 2783279 
1889.043 2758569 2735362 2715789 2703386 2700653 2708854 2726726 2751000 
1892.900 2776409 2797318 2810858 2816360 2816994 2817894 2823497 2835870 
1896.758 2854347 2875560 2895439 2911851 2924493 2935568 2947311 2961155 
1900.615 2976067 2989613 2998654 3001357 2998387 2992815 2988111 2987511 
1904.472 2991881 3000189 3010165 3019240 3025679 3029517 3030985 3030718 
1908.330 3029183 3026580 3023511 3021976 3024011 3031852 3046033 3065119 
1912.187 3085775 3104163 3117445 3124920 3127924 3129292 3130227 3130294 
1916.045 3126722 3115743 3095186 3066221 3033454 3003659 2982406 2971063 
1919.902 2966192 2962022 2951781 2931532 2901844 2867522 2835437 2811625 
1923.760 2798819 2795851 2799319 2805388 2812025 2818861 2826966 2836537 
1927.617 2846609 2854547 2857549 2853980 2844842 2832668 2821863 2815493 
1931.474 2815026 2819395 2826399 2833369 2838138 2839305 2835470 2825198 
1935.332 2807289 2781344 2749466 2716690 2689784 2675514 2678115 2696185 
1939.189 2723325 2750933 2770173 2776209 2769673 2755968 2742730 2736862 
1943.047 2741497 2755802 2777009 2801487 2826966 2853613 2881597 2909582 
1946.904 2936302 2958820 2975300 2986210 2994217 3002491 3013968 3028482 
1950.761 3042696 3052640 3055142 3049637 3039860 3030684 3025813 3025446 
1954.619 3025579 3019407 3000556 2966659 2919790 2867555 2819062 2780377 
1958.476 2755468 2742664 2738796 2740930 2748632 2763171 2785980 2816160 
1962.334 2848544 2875693 2890703 2889269 2872191 2845208 2815626 2790415 
1966.191 2774008 2766972 2767272 2773575 2784046 2798652 2816694 2836204 
1970.049 2854047 2866721 2873058 2873992 2873859 2877928 2889435 2908482 
1973.906 2931699 2955484 2978136 3003192 3036857 3087377 3158896 3248352 
1977.763 3344839 3433867 3502136 3541586 3552342 3539849 3512424 3478454 
1981.621 3441982 3405247 3368881 3333086 3298863 3268583 3242611 3220946 
1985.478 3202487 3186065 3172280 3165003 3168174 3184729 3214303 3251424 
1989.336 3286210 3309814 3316525 3306776 3287879 3269952 3261405 3267181 
1993.193 3284274 3305107 3322802 3332385 3334088 3332485 3333019 3338762 
1997.051 3350015 3362303 3369816 3368146 3355658 3332819 3303438 3270619 
2000.908 3236368 3202420 3170110 3141374 3120715 3112005 3118012 3139538 
2004.765 3173448 3214370 3257299 3298563 3336459 3371185 3402308 3428223 
2008.623 3446658 3455242 3454273 3446625 3438275 3434301 3438242 3449397 
2012.480 3463224 3473210 3475882 3470338 3459817 3450198 3446257 3449497 
2016.338 3458314 3468568 3477385 3483832 3491514 3505309 3529727 3566039 
2020.195 3611943 3661695 3709981 3751455 3784678 3809913 3827864 3839697 
2024.052 3846249 3847452 3845313 3843642 3844945 3851832 3864970 3880448 
2027.910 3893654 3900073 3898200 3890043 3881685 3878576 3885597 3904386 
2031.767 3933774 3971859 4018475 4074661 4142295 4222319 4312028 4403296 
2035.625 4487318 4554715 4599719 4623462 4630528 4627279 4620247 4611975 
2039.482 4601795 4587898 4568711 4544502 4518822 4495889 4479049 4470345 
2043.340 4469340 4473258 4481526 4493143 4508544 4529570 4556255 4587262 
2047.197 4621051 4654205 4684281 4709536 4728830 4739984 4741391 4731241 
2051.054 4709268 4678219 4643455 4611841 4590343 4583478 4590912 4608157 
2054.912 4628820 4646201 4657454 4663516 4668205 4676109 4690444 4710206 
2058.769 4731844 4750971 4763902 4769564 4770267 4769195 4769798 4774053 
2062.627 4781791 4792244 4804237 4818108 4834022 4852819 4873426 4893732 
2066.484 4910621 4922082 4926908 4926740 4924126 4921714 4920138 4917659 
2070.342 4911292 4897586 4875336 4845816 4813283 4783869 4762395 4752077 
2074.199 4753317 4764036 4781021 4801122 4820989 4838277 4850909 4856639 
2078.056 4854059 4843839 4826953 4807454 4789731 4777805 4773986 4778977 
2081.914 4790535 4805678 4821961 4837205 4850105 4860693 4868366 4872320 
2085.771 4872019 4867395 4858917 4848463 4837808 4828528 4821458 4815830 
2089.629 4810368 4804237 4797369 4790736 4786649 4786817 4792244 4802696 
2093.486 4816567 4831476 4845548 4856940 4864144 4866222 4862201 4851244 
2097.344 4834089 4812613 4789832 4770401 4758073 4755460 4762897 4778743 
2101.201 4800519 4825512 4852250 4880195 4908912 4937934 4965449 4989245 
2105.058 5007780 5020752 5030338 5040127 5053971 5074487 5101910 5133693 
2108.916 5166250 5195993 5220975 5241097 5257999 5273729 5289257 5304720 
2112.773 5319142 5331017 5340275 5347286 5353424 5360100 5368050 5377074 
2116.631 5386702 5396666 5407032 5418976 5433906 5452192 5473230 5495578 
2120.488 5517289 5536753 5553835 5569105 5583571 5598036 5612100 5624552 
2124.345 5634320 5640631 5644055 5646505 5649627 5654159 5659530 5663222 
2128.203 5661946 5653991 5638684 5617504 5593807 5570481 5550311 5534773 
2132.060 5525007 5521853 5527490 5543968 5572461 5612503 5660839 5710926 
2135.918 5756990 5793623 5817902 5831200 5836271 5836741 5835734 5833752 
2139.775 5830092 5824014 5815115 5802958 5788889 5773309 5755513 5734931 
2143.633 5710289 5680846 5648116 5614919 5583067 5554942 5530108 5506383 
2147.490 5481384 5452830 5419580 5382140 5341818 5299119 5253840 5205918 
2151.347 5154280 5099898 5044417 4989446 4935688 4882138 4825981 4765041 
2155.205 4700492 4640307 4598714 4593725 4642082 4752646 4920876 5126954 
2159.062 5341416 5534974 5683129 5774652 5810212 5800172 5759106 5702668 
2162.920 5644659 5594411 5557493 5534739 5523296 5517289 5509906 5495712 
2166.777 5472291 5441422 5406664 5372948 5343126 5315855 5286809 5250721 
2170.635 5202800 5143584 5077839 5013545 4959684 4922752 4904221 4901640 
2174.492 4910387 4924730 4939844 4953786 4963638 4966085 4957372 4933912 
2178.349 4893732 4840422 4781121 4725849 4684650 4663047 4661004 4672759 
2182.207 4689473 4702335 4707325 4703641 4694329 4683879 4675841 4671654 
2186.064 4671721 4676410 4685989 4702636 4727758 4760921 4800452 4842131 
2189.922 4881535 4915816 4944167 4967727 4989044 5009221 5028025 5043713 
2193.779 5054407 5059200 5059200 5057591 5057256 5060072 5065737 5072039 
2197.636 5075727 5075190 5070062 5062452 5055345 5050618 5048909 5048238 
2201.494 5045959 5039188 5027255 5010964 4992898 4976174 4963940 4958176 
2205.351 4960723 4972419 4994038 5025277 5064597 5107877 5150156 5186235 
2209.209 5211384 5224329 5226441 5219869 5209004 5196194 5183083 5169939 
2213.066 5157532 5146702 5140097 5140097 5148345 5163836 5184089 5204745 
2216.924 5221881 5233786 5240761 5244886 5248709 5252734 5256054 5256557 
2220.781 5251359 5239453 5222283 5201995 5181339 5161992 5143483 5123534 
2224.638 5100837 5074654 5046730 5020886 5000976 4988977 4985256 4987066 
2228.496 4990552 4993166 4993669 4992865 4993535 4997356 5005032 5015556 
2232.353 5026383 5035132 5040998 5044283 5046563 5050317 5057222 5067648 
2236.211 5081460 5098021 5116728 5137214 5159142 5181842 5203940 5223993 
2240.068 5240627 5253706 5264137 5273393 5283287 5295093 5308845 5323335 
2243.926 5337491 5349936 5360133 5368386 5374827 5380496 5385327 5389889 
2247.783 5394720 5401061 5410153 5423036 5439442 5457527 5474002 5485679 
2251.640 5489672 5485679 5475680 5463600 5453568 5449038 5451185 5458869 
2255.498 5469539 5479874 5487055 5489437 5485947 5476988 5463097 5445683 
2259.355 5426022 5406362 5389319 5377040 5371304 5372612 5380026 5391936 
2263.213 5406731 5423304 5441019 5460412 5481283 5503095 5524336 5542827 
2267.070 5556050 5562896 5562896 5556923 5546821 5534404 5521081 5507960 
2270.927 5495175 5482827 5470814 5459775 5449877 5442563 5438436 5438503 
2274.785 5443770 5454507 5470243 5489772 5510611 5529806 5544706 5553634 
2278.642 5556318 5554842 5552191 5551553 5555412 5565245 5580416 5600016 
2282.500 5622505 5646941 5672924 5700384 5728284 5755815 5781200 5802186 
2286.357 5817298 5826364 5829722 5829320 5827204 5825088 5824350 5825592 
2290.215 5828581 5833517 5840469 5849368 5860720 5874220 5889737 5906733 
2294.072 5924904 5944084 5964440 5986074 6008952 6032671 6056761 6080449 
2297.929 6103131 6124738 6145473 6166040 6186777 6208254 6230572 6253967 
2301.787 6278507 6304728 6332969 6363531 6396550 6431657 6468179 6505646 
2305.644 6543519 6582271 6622203 6664125 6708574 6755350 6804116 6853999 
2309.502 6904157 6953951 7003110 7051467 7098919 7145771 7191718 7236491 
2313.359 7280190 7322849 7364972 7407471 7451390 7498245 7549287 7605898 
2317.217 7668554 7737222 7810725 7887378 7965429 8043021 8118871 8192439 
2321.074 8262642 8327858 8385179 8429872 8457103 8463049 8446359 8409197 
2324.931 8357920 8301547 8249506 8210538 8190447 8190987 8210268 8243191 
2328.789 8283749 8325697 8364539 8397238 8422913 8441730 8455110 8464739 
2332.646 8472780 8481294 8492207 8507175 8526842 8551375 8580100 8612003 
2336.504 8645870 8680685 8715504 8749582 8782614 8814397 8844627 8873574 
2340.361 8901408 8928160 8953832 8977205 8995946 9006466 9003388 8980893 
2344.219 8933809 8858425 8755363 8630153 8494268 8363222 8253760 8182040 
2348.076 8159655 8192844 8281385 8419805 8597639 8800805 9015769 9229790 
2351.933 9433758 9623019 9796569 9955406 10100092 10230645 10346306 10446318 
2355.791 10532027 10606310 10673033 10735997 10797543 10857297 10913423 
2359.166 10963713 11006327 11041163 11068285 11088373 11100304 11102854 
2362.541 11093710 11071684 11037526 10994195 10945737 10896266 10847954 
2365.917 10800532 10752605 10701525 10645256 10583426 10516480 10445605 
2369.292 10371858 10294833 10213514 10127122 10035491 9939540 9841712 
2372.667 9744653 9650629 9560962 9475953 9394718 9316343 9240215 9165861 
2376.524 9093921 9025072 8960123 8900291 8846758 8800703 8763308 8735687 
2380.382 8718378 8711008 8712597 8721792 8736870 8756275 8779029 8804084 
2384.239 8830695 8857917 8884734 8910505 8934857 8957789 8979809 9001222 
2388.097 9021553 9039721 9053930 9062150 9063267 9057448 9046216 9032312 
2391.954 9018610 9007413 8999869 8995573 8993138 8990871 8987252 8981704 
2395.812 8974263 8965874 8957451 8950518 8946424 8946391 8951600 8963033 
2399.669 8981231 9006195 9037487 9074060 9114933 9159431 9207047 9257511 
2403.526 9311129 9368039 9428680 9493359 9562655 9637010 9717104 9802872 
2407.384 9894115 9989920 10089138 10190718 10294155 10399653 10507382 
2410.759 10618262 10732023 10847717 10964018 11078652 11188930 11293455 
2414.134 11390522 11479002 11558246 11627260 11685358 11732400 11768588 
2417.510 11794871 11813052 11825173 11832596 11836648 11837806 11836443 
2420.885 11832493 11826604 11819011 11810703 11802157 11793680 11785747 
2424.260 11779347 11775431 11776044 11783806 11800761 11828646 11868349 
2427.635 11919022 11979475 12047943 12123167 12204129 12290595 12382089 
2431.010 12478172 12578641 12682853 12791048 12903537 13021313 13145815 
2434.386 13278038 13418367 13566569 13721765 13882592 14047825 14216852 
2437.761 14389474 14565728 14746234 14931685 15122534 15319302 15522270 
2441.136 15731450 15946917 16168475 16396167 16630074 16870994 17119494 
2444.511 17375894 17640452 17911388 18186914 18463928 18739980 19012848 
2447.887 19281522 19546134 19806818 20064150 20317436 20565866 20807972 
2451.262 21042458 21268582 21486360 21696168 21898274 22093012 22279428 
2454.637 22456438 22622522 22775680 22913734 23034186 23134472 23211572 
2458.012 23263270 23287636 23284070 23252958 23195634 23113224 23007004 
2461.388 22877792 22726624 22554984 22365132 22160652 21945528 21723896 
2464.763 21498650 21272374 21046598 20822572 20602590 20389730 20187878 
2468.138 20001764 19835464 19691798 19572652 19478590 19408836 19362930 
2471.513 19339580 19337224 19353714 19386142 19431048 19484758 19544472 
2474.889 19608318 19675192 19744640 19815904 19887456 19957148 20022546 
2478.264 20081188 20132064 20174652 20209848 20238278 20260322 20275426 
2481.639 20282404 20279834 20266504 20242098 20207316 20163650 20113220 
2485.014 20058390 20001522 19945040 19890890 19840250 19793430 19749322 
2488.390 19705874 19659868 19608560 19549740 19482782 19408422 19328044 
2491.765 19243456 19155700 19064810 18970098 18870698 18765788 18655056 
2495.140 18539408 18419090 18294728 18166564 18034088 17897058 17755138 
2498.515 17608570 17457704 17303238 17145516 16984856 16821600 16656550 
2501.891 16491078 16327390 16167993 16015153 15870340 15733786 15604453 
2505.266 15481065 15361967 15246164 15133513 15024321 14919306 14819013 
2508.641 14723817 14633198 14546848 14464420 14385227 14309507 14237224 
2512.016 14168479 14103852 14043341 13987459 13936066 13888990 13845612 
2515.392 13805010 13766292 13728673 13692527 13658743 13628860 13604654 
2518.767 13587320 13576997 13573133 13574364 13579287 13587082 13597372 
2522.142 13610637 13627253 13647289 13670095 13694544 13719713 13744439 
2525.517 13768618 13792457 13816332 13840618 13864838 13887792 13908319 
2528.893 13924913 13936648 13943251 13944723 13941335 13933397 13921286 
2532.268 13905274 13886013 13864221 13841405 13818521 13797007 13777716 
2535.643 13761231 13747687 13737394 13730006 13726040 13725013 13726518 
2539.018 13729528 13732811 13735102 13735479 13733563 13729597 13724501 
2542.394 13719644 13715643 13713557 13713318 13714686 13716772 13718961 
2545.769 13720226 13720192 13719098 13717456 13716259 13716396 13718243 
2549.144 13721526 13725287 13728433 13729733 13728946 13726553 13723988 
2552.519 13722825 13724467 13728878 13735307 13741805 13746149 13746696 
2555.895 13742797 13734726 13723714 13711027 13697999 13684833 13671394 
2559.270 13656692 13639835 13619936 13596483 13569475 13539085 13505655 
2562.645 13470143 13433267 13396257 13359900 13325117 13292045 13261025 
2566.020 13232057 13205346 13181334 13161183 13145268 13134476 13128500 
2569.396 13126723 13127953 13130993 13134681 13138847 13143936 13150185 
2572.771 13158383 13168697 13181061 13195235 13211357 13229324 13249274 
2576.146 13271444 13295461 13320538 13345754 13370116 13393113 13415086 
2579.521 13437061 13460266 13486002 13515227 13548007 13584210 13623219 
2582.896 13664111 13706410 13749534 13793175 13837163 13881566 13926726 
2586.272 13973258 14022124 14073870 14128908 14186863 14246400 14306082 
2589.647 14364438 14420403 14473669 14524441 14573299 14620691 14666750 
2593.022 14711101 14753639 14794261 14833448 14872088 14911042 14951096 
2596.397 14992251 15034886 15078314 15122191 15166759 15212294 15259033 
2599.773 15307597 15357986 15409650 15462695 15516845 15572306 15629802 
2603.148 15690017 15753713 15821094 15892094 15966166 16042897 16121740 
2606.523 16202522 16285213 16369605 16455527 16542602 16630761 16719732 
2609.898 16809374 16899654 16990160 17080170 17168576 17254174 17335892 
2613.274 17413004 17485094 17552364 17614712 17672166 17724176 17770324 
2616.649 17810230 17844130 17873062 17898440 17922092 17945468 17969192 
2620.024 17993574 18018268 18042756 18066830 18090838 18115124 18140376 
2623.399 18166738 18194066 18221846 18249662 18277378 18305094 18333436 
2626.775 18363472 18395686 18430638 18468422 18508426 18550164 18593390 
2630.150 18637694 18683038 18729844 18778174 18828412 18880492 18934068 
2633.525 18988892 19044280 19099432 19153726 19206848 19258350 19308298 
2636.900 19357074 19404782 19452114 19499382 19546966 19595146 19644198 
2640.276 19694504 19746374 19799950 19855096 19911702 19969360 20027508 
2643.651 20085978 20144872 20204294 20264732 20326742 20390634 20456550 
2647.026 20524352 20593764 20664160 20735436 20807278 20879758 20953120 
2650.401 21027644 21103466 21180936 21260266 21341244 21423944 21508190 
2653.777 21593778 21680738 21769252 21859490 21951734 22046156 22142590 
2657.152 22240646 22340088 22440526 22541722 22643954 22747328 22852158 
2660.527 22958270 23065318 23172496 23278722 23382876 23484326 23582616 
2663.902 23677712 23769992 23860122 23948764 24036900 24125264 24214800 
2667.278 24306318 24400344 24497020 24596314 24697768 24801000 24905764 
2670.653 25011784 25118950 25227094 25335932 25444900 25553546 25661588 
2674.028 25769162 25876694 25985096 26094722 26205712 26317294 26428342 
2677.403 26537234 26643088 26745656 26845430 26944236 27043738 27145870 
2680.779 27252260 27364290 27483018 27609122 27743104 27885006 28034732 
2684.154 28191260 28353894 28521332 28692936 28868756 29049212 29235170 
2687.529 29427196 29625304 29829076 30037132 30248554 30462534 30679248 
2690.904 30899026 31122972 31351626 31585320 31823668 32066178 32312070 
2694.280 32561280 32813850 33069928 33329986 33594172 33862456 34134676 
2697.655 34410756 34690784 34974796 35262948 35554564 35849000 36145080 
2701.030 36441544 36737052 37031064 37322788 37611892 37897928 38180176 
2704.405 38457360 38728416 38991992 39247024 39492300 39726824 39949156 
2707.781 40158300 40352604 40531244 40693944 40840872 40972880 41091016 
2711.156 41196108 41288764 41369224 41437384 41493012 41535888 41565964 
2714.531 41582848 41586132 41575412 41550032 41509672 41454332 41384792 
2717.906 41302064 41207732 41103108 40989668 40868756 40741688 40610332 
2721.281 40476936 40344204 40215296 40093144 39980180 39878360 39788912 
2724.657 39712264 39648696 39598420 39561436 39537992 39528192 39532148 
2728.032 39550076 39581724 39627060 39685580 39756960 39840444 39935392 
2731.407 40040600 40155176 40277784 40407368 40542736 40682228 40824708 
2734.782 40968512 41112364 41254948 41395468 41533372 41668256 41800044 
2738.158 41928516 42053848 42175968 42295128 42411688 42526088 42638948 
2741.533 42750740 42862080 42973160 43084712 43197276 43311952 43429596 
2744.908 43551188 43677648 43808948 43945308 44086080 44230196 44376600 
2748.283 44523416 44668636 44809896 44944592 45070540 45186048 45290184 
2751.659 45383532 45467112 45542432 45611172 45674552 45733376 45787312 
2755.034 45836392 45880104 45918000 45950008 45975716 45994208 46004744 
2758.409 46005736 45995384 45972180 45934280 45880692 45810880 45724796 
2761.784 45622840 45505744 45374484 45229912 45072964 44904536 44725636 
2765.160 44537664 44342324 44142012 43939296 43737084 43538256 43344868 
2768.535 43159176 42982708 42816772 42662668 42521776 42395288 42284316 
2771.910 42189184 42109556 42043920 41990520 41947088 41911548 41882280 
2775.285 41857872 41837728 41820436 41804680 41788224 41768196 41741240 
2778.661 41704068 41653780 41587772 41505080 41405200 41288800 41157892 
2782.036 41014536 40862020 40703440 40542264 40381728 40224380 40072104 
2785.411 39925728 39785284 39649676 39517340 39386388 39255076 39121920 
2788.786 38986228 38847504 38706064 38562104 38416272 38268644 38119580 
2792.162 37969592 37819440 37670356 37524100 37382372 37247220 37120492 
2795.537 37003212 36895996 36798860 36711236 36632424 36561552 36498120 
2798.912 36441328 36391316 36347900 36311116 36281292 36258204 36241528 
2802.287 36230756 36224740 36222364 36222580 36224564 36227696 36231872 
2805.663 36236880 36242464 36248480 36254312 36259572 36264040 36267388 
2809.038 36269588 36270628 36269804 36266092 36258272 36244588 36223160 
2812.413 36193012 36153544 36104824 36047144 35981376 35908636 35830004 
2815.788 35747140 35661668 35576212 35493756 35417324 35350428 35296408 
2819.164 35257880 35237684 35237940 35259748 35304280 35371164 35459744 
2822.539 35568160 35694148 35834932 35987568 36149152 36316520 36486512 
2825.914 36655676 36820140 36976152 37120276 37249352 37361500 37455540 
2829.289 37531324 37589092 37629308 37652796 37660416 37653048 37632160 
2832.665 37599244 37556324 37504952 37446728 37383128 37315784 37246104 
2836.040 37175712 37106056 37038572 36973988 36912656 36854548 36799656 
2839.415 36748300 36701716 36661912 36631628 36613532 36610108 36623628 
2842.790 36655600 36707920 36782632 36883008 37012776 37176540 37377892 
2846.166 37618680 37897604 38209336 38543672 38886492 39220332 39525544 
2849.541 39783468 39977892 40096124 40131516 40083224 39956276 39759828 
2852.916 39507252 39214024 38895480 38567428 38244400 37937160 37655212 
2856.291 37404076 37185924 36999892 36842936 36710332 36596804 36496788 
2859.667 36406084 36320520 36237528 36154768 36070440 35982924 35891216 
2863.042 35794380 35691956 35584664 35473768 35361640 35251556 35148072 
2866.417 35055608 34979144 34923120 34890912 34884880 34905920 34953500 
2869.792 35025796 35119476 35230500 35353372 35482720 35612432 35737068 
2873.167 35852204 35954992 36044412 36121316 36187972 36247508 36302508 
2876.543 36355644 36408320 36460928 36514160 36567860 36622616 36679108 
2879.918 36738568 36802036 36870668 36945196 37025872 37112624 37204588 
2883.293 37300220 37397644 37493828 37585912 37670860 37746140 37810224 
2886.668 37862644 37904256 37937268 37964928 37990856 38019428 38054980 
2890.044 38101784 38164188 38246860 38354340 38492404 38667888 38888412 
2893.419 39163400 39503040 39917044 40414456 41000848 41676680 42434264 
2896.794 43257156 44117912 44977704 45792136 46511688 47087500 47481708 
2900.169 47667924 47637568 47399660 46980016 46415960 45748656 45021472 
2903.545 44273192 43534376 42830008 42177464 41587808 41068072 40621644 
2906.920 40248952 39948468 39717092 39551272 39447380 39402096 39413236 
2910.295 39478656 39596172 39762876 39974988 40227072 40512472 40822960 
2913.670 41149552 41481640 41807412 42115580 42394152 42633024 42825036 
2917.046 42965736 43054672 43094592 43090564 43048780 42975140 42874808 
2920.421 42751140 42606456 42442048 42258676 42058048 41842728 41616764 
2923.796 41385736 41156512 40935852 40730992 40547540 40389440 40259060 
2927.171 40156344 40080096 40027484 39994788 39977712 39971428 39971172 
2930.547 39972512 39971428 39964484 39949376 39924276 39887988 39839648 
2933.922 39778708 39704892 39618312 39519916 39411060 39293884 39171124 
2937.297 39045096 38918492 38794060 38674008 38561596 38460108 38372908 
2940.672 38303312 38253844 38225584 38217768 38227828 38250988 38280044 
2944.048 38307004 38321696 38313876 38273820 38193420 38067568 37895180 
2947.423 37679644 37428524 37151964 36862124 36570708 36287776 36021048 
2950.798 35775420 35553308 35355244 35180192 35026800 34892924 34776532 
2954.173 34675640 34588544 34513024 34447592 34390064 34338384 34290800 
2957.549 34245588 34201816 34159336 34118652 34080768 34046688 34017124 
2960.924 33992080 33971472 33955064 33942880 33935720 33935216 33942740 
2964.299 33959904 33987136 34024004 34069444 34121628 34179268 34241464 
2967.674 34307976 34379340 34456416 34539932 34630672 34729544 34837272 
2971.050 34954540 35081972 35219716 35367144 35522524 35683500 35846484 
2974.425 36007076 36160388 36300888 36422516 36519096 36584408 36613028 
2977.800 36601312 36547676 36452892 36320268 36155488 35965504 35757864 
2981.175 35540972 35322284 35108732 34905956 34717632 34545456 34388808 
2984.551 34245192 34110484 33980648 33851892 33721492 33588620 33453290 
2987.926 33316356 33178422 33039178 32896760 32747746 32587994 32412022 
2991.301 32215816 31996048 31752296 31486448 31203566 30910552 30615246 
2994.676 30325150 30046042 29781414 29532128 29296770 29072914 28857422 
2998.052 28647702 28441442 28237508 28034838 27833250 27632674 27433566 
3001.427 27236774 27043666 26855546 26673704 26498984 26331622 26171538 
3004.802 26018270 25871664 25731930 25599304 25474132 25356446 25245706 
3008.177 25140718 25040566 24943838 24850010 24758728 24670304 24584776 
3011.552 24502280 24422672 24345322 24269842 24195638 24122916 24051924 
3014.928 23983498 23918094 23856586 23799460 23747104 23699756 23657452 
3018.303 23619910 23586466 23556310 23528432 23501954 23476002 23450506 
3021.678 23425292 23400604 23376652 23353540 23331304 23310220 23290644 
3025.053 23273792 23261138 23254496 23255440 23264912 23282882 23308226 
3028.429 23338330 23370428 23400920 23426340 23443862 23451172 23447114 
3031.804 23431342 23404590 23367910 23323052 23271974 23216606 23159144 
3035.179 23101310 23044772 22990828 22940280 22893404 22849888 22809308 
3038.554 22771176 22735248 22701940 22672126 22646608 22625768 22609816 
3041.930 22597984 22589012 22582102 22576274 22571736 22568806 22568282 
3045.305 22570550 22575506 22582486 22590550 22599102 22607828 22617110 
3048.680 22627688 22640324 22655334 22672300 22690594 22709236 22727706 
3052.055 22745582 22762864 22779696 22795760 22810950 22824778 22837140 
3055.431 22848316 22859352 22871402 22885686 22902556 22922012 22943424 
3058.806 22966200 22990200 23016018 23044738 23077408 23114238 23154566 
3062.181 23196856 23239150 23279804 23318472 23356058 23394730 23436482 
3065.556 23483452 23536128 23593778 23654864 23716974 23778252 23836948 
3068.932 23892222 23943722 23991166 24034902 24074932 24111778 24145964 
3072.307 24178192 24209160 24239570 24269598 24299626 24329692 24360076 
3075.682 24391056 24422986 24456148 24490886 24526926 24563844 24601222 
3079.057 24638602 24675460 24711936 24747818 24783458 24819066 24854992 
3082.433 24891622 24929310 24968404 25008764 25050392 25092658 25135102 
3085.808 25177408 25219650 25262388 25306602 25352862 25401760 25453510 
3089.183 25507338 25562684 25618952 25676140 25734356 25794478 25857106 
3092.558 25922416 25990338 26060204 26131036 26202370 26273644 26345106 
3095.934 26417004 26489828 26563652 26638368 26713556 26788614 26862876 
3099.309 26935670 27006818 27076320 27144670 27212360 27280520 27349926 
3102.684 27421426 27495302 27571274 27649022 27727778 27806756 27885714 
3106.059 27964546 28043356 28122252 28200984 28279518 28357502 28434828 
3109.435 28512026 28589978 28669646 28751558 28835860 28921626 29007378 
3112.810 29091834 29173896 29253386 29331084 29408192 29485954 29565182 
3116.185 29645986 29727656 29809556 29891150 29972336 30053500 30135034 
3119.560 30217008 30299320 30381256 30461928 30541228 30618944 30696210 
3122.936 30773988 30853310 30934462 31017336 31100868 31184092 31265770 
3126.311 31345572 31423468 31500164 31576410 31653028 31730660 31809478 
3129.686 31889382 31970334 32052406 32135424 32219776 32305610 32393422 
3133.061 32483504 32575778 32669968 32765646 32862060 32958384 33053838 
3136.437 33148240 33241230 33333492 33425268 33516958 33608920 33700972 
3139.812 33792792 33883988 33974236 34063140 34150948 34237952 34324256 
3143.187 34410540 34497416 34585316 34674596 34765652 34858344 34952604 
3146.562 35047924 35143872 35239840 35335580 35430876 35525868 35620772 
3149.938 35715768 35811076 35906760 36002796 36099460 36197080 36295844 
3153.313 36396576 36499164 36603908 36710156 36817472 36924564 37030564 
3156.688 37134672 37236176 37334956 37431232 37525652 37619372 37713144 
3160.063 37808204 37905016 38003916 38104460 38205936 38307512 38408128 
3163.438 38507536 38605308 38702008 38798080 38894212 38990904 39088240 
3166.814 39186280 39284708 39382944 39480364 39576716 39671676 39764948 
3170.189 39856644 39946868 40035916 40124176 40211660 40298684 40385148 
3173.564 40470828 40554960 40637216 40716652 40792676 40865004 40933376 
3176.939 40998300 41060532 41121176 41181572 41243036 41306620 41372836 
3180.315 41441760 41513392 41586752 41661256 41736132 41810368 41883668 
3183.690 41955632 42026328 42096192 42165892 42236292 42308200 42381988 
3187.065 42457428 42533832 42609816 42683868 42755052 42822696 42887208 
3190.440 42949644 43011464 43074064 43138576 43205656 43275164 43346952 
3193.816 43420512 43495112 43570200 43645076 43719236 43791796 43862244 
3197.191 43930244 43995652 44059052 44120704 44181444 44241864 44302180 
3200.566 44362584 44423212 44483628 44543540 44603128 44662320 44721448 
3203.941 44780840 44841196 44903140 44967080 45033012 45100832 45169504 
3207.317 45237892 45305076 45370104 45432900 45493784 45553436 45612276 
3210.692 45670800 45728920 45786208 45842176 45896896 45950484 46003636 
3214.067 46056980 46111468 46167476 46225004 46284052 46344176 46405080 
3217.442 46466216 46527584 46588732 46649600 46710220 46770548 46831252 
3220.818 46892820 46955760 47020260 47086172 47152868 47219872 47286624 
3224.193 47353060 47419872 47487656 47557004 47628396 47701208 47774764 
3227.568 47847784 47919300 47988380 48054924 48118956 48181000 48241868 
3230.943 48302412 48363668 48426780 48492796 48562156 48634828 48710248 
3234.319 48786988 48864216 48940756 49016528 49092168 49168304 49245568 
3237.694 49323952 49402948 49481328 49558312 49633488 49706784 49779272 
3241.069 49851736 49924624 49997856 50070172 50140900 50209480 50276212 
3244.444 50342472 50410304 50481536 50557688 50639032 50725196 50814952 
3247.820 50907072 51000368 51094060 51187428 51280376 51372372 51463344 
3251.195 51553028 51641612 51728944 51815212 51899928 51982792 52063208 
3254.570 52140952 52216464 52290604 52365024 52441136 52519764 52600952 
3257.945 52683616 52766068 52846256 52922980 52995632 53064740 53131540 
3261.321 53197524 53264232 53332636 53403148 53475280 53548100 53620296 
3264.696 53690296 53757080 53819444 53877620 53932048 53983900 54034552 
3268.071 54085252 54136480 54188468 54240832 54292644 54343860 54393880 
3271.446 54442628 54490336 54536916 54581960 54625320 54667028 54707468 
3274.822 54747832 54789288 54833272 54880304 54930500 54982920 55036624 
3278.197 55090296 55143448 55196084 55248912 55302424 55357636 55415040 
3281.572 55474596 55536380 55600096 55665212 55731436 55798268 55865336 
3284.947 55932568 56000108 56068568 56138960 56212232 56288984 56369596 
3288.323 56453204 56538680 56624772 56710476 56795280 56879728 56965060 
3291.698 57052676 57144240 57241004 57343572 57451724 57565088 57682604 
3295.073 57803332 57926328 58051252 58178028 58307236 58439128 58574512 
3298.448 58713316 58855160 58999368 59144988 59291760 59439608 59589520 
3301.823 59742564 59900036 60062928 60231704 60406452 60586904 60773072 
3305.199 60964544 61161060 61362168 61566996 61774252 61983360 62193916 
3308.574 62406976 62624052 62847124 63077748 63315936 63560536 63809508 
3311.949 64060532 64312316 64564980 64819908 65078796 65343232 65613604 
3315.324 65889120 66167744 66448212 66729204 67010536 67293128 67577376 
3318.700 67863560 68150584 68437144 68721368 69002288 69279688 69553856 
3322.075 69825648 70095720 70364040 70630696 70895768 71159240 71421816 
3325.450 71684312 71946664 72208232 72467368 72721616 72969024 73207912 
3328.825 73437280 73656488 73865080 74062016 74245912 74415376 74569688 
3332.201 74709248 74835360 74949496 75052744 75144960 75224696 75289984 
3335.576 75338576 75369512 75383000 75380512 75363848 75333768 75290736 
3338.951 75234192 75162808 75075984 74973432 74855480 74722280 74573744 
3342.326 74408656 74225480 74022368 73798072 73552424 73286008 73000352 
3345.702 72696856 72377184 72042640 71694792 71335280 70965800 70588056 
3349.077 70203080 69811256 69412704 69007136 68594000 68173688 67747328 
3352.452 67316032 66881040 66443540 66004016 65563120 65122256 64682676 
3355.827 64247392 63818716 63398824 62988760 62588608 62197200 61813100 
3359.203 61434876 61062048 60694688 60333536 59979416 59633268 59296016 
3362.578 58967712 58648612 58338800 58038260 57746408 57463184 57188120 
3365.953 56920824 56661056 56408720 56163848 55926084 55694668 55468572 
3369.328 55246804 55028276 54812144 54598080 54385620 54174316 53963376 
3372.704 53751752 53538132 53321844 53102408 52880128 52655188 52427972 
3376.079 52197892 51964156 51725472 51480464 51228588 50969852 50704640 
3379.454 50433300 50155884 49871916 49580820 49282196 48975544 48661804 
3382.829 48342000 48017248 47688080 47354800 47016676 46673100 46324120 
3386.205 45969708 45611320 45250320 44888188 44525916 44164604 43804260 
3389.580 43445084 43087488 42731688 42378336 42027932 41681168 41338648 
3392.955 41000740 40667856 40340024 40016512 39696508 39378440 39061484 
3396.330 38744788 38428616 38113976 37802564 37495528 37193252 36895088 
3399.706 36599580 36304960 36009708 35713540 35417252 35122172 34829552 
3403.081 34540180 34253908 33970152 33688008 33406626 33126138 32846868 
3406.456 32569780 32295152 32023120 31753652 31486090 31220478 30956948 
3409.831 30695962 30438294 30184118 29933746 29686642 29442586 29201004 
3413.207 28961968 28725610 28492528 28263324 28038338 27818130 27602626 
3416.582 27391780 27185022 26981220 26779556 26578480 26377110 26175726 
3419.957 25975282 25777952 25586336 25402814 25228218 25062082 24902432 
3423.332 24746134 24590318 24433082 24273626 24112934 23952370 23793790 
3426.708 23638106 23485830 23336162 23188084 23040476 22892252 22742962 
3430.083 22592748 22441782 22291324 22142102 21995648 21853148 21715918 
3433.458 21584480 21458718 21337902 21220702 21105274 20990398 20874788 
3436.833 20757886 20639626 20520220 20400428 20280876 20162192 20045066 
3440.208 19929914 19817222 19706984 19599272 19493560 19389330 19286130 
3443.584 19183022 19079282 18974424 18867862 18759490 18649558 18538992 
3446.959 18428736 18319922 18213312 18108974 18005940 17902894 17798424 
3450.334 17691494 17582382 17472502 17363584 17258140 17157718 17062732 
3453.709 16972796 16885842 16799834 16712913 16623497 16531071 16435498 
3457.085 16337160 16236402 16134016 16030382 15926087 15822263 15719356 
3460.460 15618192 15519386 15422869 15328363 15235526 15143772 15052482 
3463.835 14961590 14870957 14780479 14690672 14601775 14514300 14428521 
3467.210 14344574 14262561 14182206 14103237 14025341 13948521 13873116 
3470.586 13799093 13726997 13656315 13586671 13517004 13446561 13374832 
3473.961 13301884 13228334 13155343 13084003 13015338 12949585 12887051 
3477.336 12827495 12770472 12715572 12662111 12608862 12554528 12498018 
3480.711 12438379 12376123 12312682 12250444 12192372 12140203 12094717 
3484.087 12054551 12017659 11980701 11941158 11897873 11850779 11801272 
3487.462 11751294 11702649 11656155 11612558 11572061 11534631 11500777 
3490.837 11470973 11445493 11424163 11405692 11388413 11370555 11350556 
3494.212 11328313 11304881 11282165 11262850 11249384 11243331 11245134 
3497.588 11254349 11269582 11289306 11311921 11336442 11361100 11385522 
3500.963 11409163 11432022 11454576 11477506 11502206 11530344 11563418 
3504.338 11602893 11649688 11704420 11766579 11835252 11909043 11986219 
3507.713 12065010 12144565 12224475 12305286 12388328 12474864 12565237 
3511.089 12659723 12756891 12854626 12951463 13046033 13138164 13228744 
3514.464 13319274 13410165 13502272 13594432 13684936 13771935 13853480 
3517.839 13928710 13997519 14060112 14116516 14166562 14208910 14241914 
3521.214 14263486 14272012 14266361 14246640 14213532 14167965 14111212 
3524.590 14044266 13967305 13879821 13781375 13670745 13547563 13412011 
3527.965 13264885 13107975 12943236 12773065 12599175 12423274 12246320 
3531.340 12069030 11892050 11715346 11538613 11361577 11183354 11003574 
3534.715 10821898 10639246 10456705 10275800 10097819 9923438 9752650 
3538.091 9584876 9419537 9256495 9096459 8940268 8789410 8644653 8506129 
3541.948 8373052 8243968 8117352 7991482 7865481 7738368 7609776 7480076 
3545.805 7349909 7220993 7095989 6977250 6867161 6766590 6674589 6588360 
3549.663 6503897 6417567 6326547 6230437 6130485 6030051 5932831 5841980 
3553.520 5758938 5683834 5615389 5551519 5490981 5432866 5376470 5321658 
3557.378 5267960 5214000 5158672 5100468 5038015 4971280 4901104 4829131 
3561.235 4758140 4691013 4629556 4575039 4526355 4481158 4435262 4384083 
3565.093 4323708 4252264 4170629 4082722 3994698 3913446 3843408 3786449 
3568.950 3741162 3703765 3670182 3637236 3602488 3565571 3527188 3488007 
3572.807 3448963 3410723 3373088 3335958 3298663 3261305 3223416 3185330 
3576.665 3147214 3109102 3071593 3034588 2998154 2962389 2926628 2891070 
3580.522 2855481 2820529 2787647 2758402 2734528 2716956 2705587 2698119 
3584.380 2691284 2680615 2661412 2630376 2586642 2532348 2472362 2413550 
3588.237 2362642 2324066 2299549 2287924 2285592 2287957 2290655 2289956 
3592.094 2282694 2268172 2245923 2217547 2185111 2151345 2119280 2091045 
3595.952 2068306 2051560 2040208 2032652 2026227 2018703 2007752 1992140 
3599.809 1972202 1949269 1925905 1904805 1887800 1875420 1867900 1863574 
3603.667 1861511 1860413 1859747 1858483 1855621 1849465 1837319 1816989 
3607.524 1787444 1749151 1705473 1661034 1620258 1585903 1558303 1534993 
3611.382 1512881 1488743 1461281 1431793 1403803 1381631 1369133 1368003 
3615.239 1377310 1393864 1412745 1428568 1435915 1430895 1411947 1380302 
3619.096 1341081 1300900 1267202 1245902 1238791 1244540 1259493 1278667 
3622.954 1297776 1315390 1332439 1351318 1375283 1405099 1437843 1466933 
3626.811 1481561 1470124 1424911 1345900 1244440 1140611 1056138 1004260 
3630.669 987555 998381 1024950 1055241 1079455 1092344 1092443 1082212 
3634.526 1065671 1046904 1028836 1012795 998647 986326 975533 966800 960922 
3638.866 957701 956505 955277 952056 944916 933659 919581 906100 897135 
3643.205 896073 904705 922569 946875 972810 995426 1009906 1012031 1000341 
3647.545 974603 936349 888834 836246 783995 738124 705267 690897 697368 
3651.885 723885 765640 815564 864897 904871 928679 931202 912209 876185 
3656.224 831731 788742 756047 738622 736630 747019 765208 786020 805472 
3660.564 820809 830669 835947 838570 841192 846836 858323 877048 903776 
3664.903 938507 979718 1025714 1073609 1120114 1161076 1193270 1214269 
3668.761 1226696 1237661 1261287 1314293 1411515 1560131 1757934 1995269 
3672.618 2256248 2521516 2770207 2976034 3111671 3154857 3095920 2944375 
3676.476 2726059 2471529 2205658 1944277 1697290 1471155 1272619 1107923 
3680.333 980747 890959 833590 800759 783896 776892 776095 781672 794319 
3684.673 814103 838802 863270 881364 886112 873163 841823 796443 745227 
3689.012 696837 658209 632392 618257 613014 614142 619750 629207 643011 
3693.352 660698 681339 703674 725777 746123 764279 781041 797937 816493 
3697.691 837507 859751 880999 897201 904738 900754 885182 860381 831565 
3702.031 805273 786585 779016 783033 796676 816859 840196 864000 886909 
3706.371 908457 928147 946444 963213 977659 988352 993300 989614 974670 
3710.710 947075 907328 858954 807862 761623 727005 708486 706295 717779 
3715.050 737925 761358 782834 800095 812543 822104 831631 844047 860381 
3719.389 879704 899393 916194 927848 933427 934456 933560 933726 936880 
3723.729 942924 950395 957037 960590 960424 958166 957302 962018 975467 
3728.069 998813 1029866 1064442 1096296 1119616 1130080 1126758 1112308 
3731.926 1092410 1073742 1060456 1052152 1043849 1028338 999378 955144 
3735.783 900555 844944 799763 772676 765972 776925 800825 833192 871238 
3740.123 914467 962250 1011799 1057101 1087593 1089620 1052318 972312 861577 
3744.463 747085 663054 632094 657711 725611 813738 900455 967763 1004127 
3748.802 1005688 976231 924163 860514 794950 733876 682069 643973 623566 
3753.142 624229 646030 684757 733278 782502 824759 854107 869047 871005 
3757.481 863901 852048 838238 823996 809987 797340 789041 788510 798269 
3761.821 818220 845409 873562 896239 908391 908656 899990 888934 882759 
3766.161 886344 899791 918485 935220 943256 938142 919946 892752 863801 
3770.500 839798 825191 820942 824925 833889 844678 855302 865195 875587 
3774.840 887540 902149 919979 939703 959129 974770 983869 983802 974703 
3779.179 958697 940732 926421 920444 924694 938242 957169 976231 990311 
3783.519 996190 992736 981677 966003 949200 934290 922469 913338 906166 
3787.859 899791 893582 887639 882094 877878 875819 877247 883423 895807 
3792.198 914866 939404 967132 993599 1013957 1024120 1022327 1010537 994330 
3796.538 982208 981378 996090 1024685 1060921 1094004 1112308 1106029 
3800.395 1071583 1014157 947506 891225 862639 868681 905602 961055 1019304 
3804.735 1063611 1082079 1068594 1026046 965737 904738 859850 840927 848297 
3809.074 875355 913073 952753 989182 1021131 1050359 1078957 1107723 1134598 
3813.414 1154000 1159481 1145030 1109584 1058729 1005887 966932 954314 
3817.271 972379 1015419 1071251 1123436 1156824 1159647 1127589 1065405 
3821.129 988219 916957 868150 850587 861975 893184 932066 967796 993500 
3825.469 1006850 1010204 1008644 1008212 1013293 1024784 1040660 1057201 
3829.326 1070919 1079522 1083242 1084139 1085368 1090417 1100814 1116859 
3833.183 1137356 1159913 1181641 1200048 1212142 1215133 1207225 1187157 
3837.041 1156059 1117523 1077064 1040627 1013326 997684 992935 996588 
3840.898 1004592 1013526 1020566 1024353 1024087 1021330 1017611 1015319 
3844.756 1016913 1024585 1039597 1062582 1093240 1130545 1173402 1221213 
3848.613 1273483 1329681 1387781 1444392 1491968 1520662 1517702 1471853 
3852.470 1378008 1243775 1091945 953417 853941 805638 804178 836445 886710 
3856.810 943023 997153 1044912 1085434 1118918 1146425 1168584 1185828 
3860.667 1198320 1206627 1210946 1211378 1207059 1196725 1179681 1157488 
3864.525 1134565 1117988 1114832 1129947 1162305 1205464 1248461 1278700 
3868.382 1285879 1265242 1220715 1165096 1115796 1085800 1080352 1095101 
3872.240 1119583 1142073 1153601 1151275 1138385 1122805 1113371 1116925 
3876.097 1135894 1166890 1203703 1238791 1264544 1274746 1267069 1242446 
3879.955 1206760 1169315 1140611 1128884 1137987 1165129 1202440 1238924 
3883.812 1262650 1264212 1240918 1198154 1148917 1109584 1093938 1107458 
3887.669 1146525 1200845 1257366 1303957 1331110 1334965 1317982 1287806 
3891.527 1254110 1226729 1211312 1209384 1219087 1236997 1259692 1284549 
3895.384 1309973 1334766 1357733 1377643 1392501 1400844 1401808 1395526 
3899.242 1383493 1368070 1351418 1334899 1318314 1300434 1279564 1254475 
3903.099 1226330 1197921 1174000 1159149 1156724 1167222 1188253 1215299 
3906.957 1243709 1268698 1287773 1300235 1306682 1308942 1309175 1309275 
3910.814 1310238 1312897 1317583 1324131 1332473 1342045 1351617 1359694 
3914.671 1364413 1364812 1360458 1352115 1341380 1330545 1321173 1314393 
3918.529 1310072 1308045 1308178 1311069 1317450 1327919 1341912 1358065 
3922.386 1373554 1385055 1390207 1387415 1377709 1363948 1349822 1339186 
3926.244 1334600 1336827 1344903 1356802 1370197 1382263 1391204 1395293 
3930.101 1393997 1387049 1375648 1361356 1347030 1335564 1329182 1329083 
3933.958 1335032 1345269 1357633 1369565 1379205 1385919 1389875 1392035 
3937.816 1393764 1395958 1398949 1402307 1404966 1405498 1402739 1396290 
3941.673 1386684 1375349 1365111 1358431 1357600 1363649 1375947 1392368 
3945.531 1410085 1425842 1437245 1443395 1444459 1442032 1438309 1434951 
3949.388 1433189 1433023 1434020 1435184 1436447 1437610 1439406 1442165 
3953.246 1446354 1451972 1458688 1465902 1473349 1480730 1488211 1495326 
3957.103 1502108 1508060 1512316 1514444 1514311 1512150 1508725 1504735 
3960.960 1501111 1497886 1495326 1492932 1490571 1488510 1486781 1486016 
3964.818 1486748 1488975 1492965 1498318 1504735 1511817 1519365 1527145 
3968.675 1535059 1543139 1551087 1558801 1566217 1572635 1578222 1582245 
3972.533 1584607 1584906 1583310 1580084 1576127 1572735 1571072 1571937 
3976.390 1575894 1582478 1590792 1599705 1608418 1616466 1623816 1630601 
3980.248 1636987 1643273 1648993 1653883 1657209 1658373 1657209 1653450 
3984.105 1647230 1638417 1627342 1614304 1599871 1585438 1572502 1562758 
3987.962 1557105 1556573 1560597 1568245 1577989 1588431 1598740 1608484 
3991.820 1617963 1627574 1637585 1647763 1657475 1666023 1672176 1675403 
3995.677 1675769 1673839 1670413 1666422 1662564 1659470 1657275 1655978 
3999.535 1655546 1655911 1656743 
##END=
