
##TITLE=mdmaHCL00403_10
##JCAMP-DX=5.01  $$ Nicolet v. 1
##DATATYPE=INFRARED SPECTRUM
##ORIGIN=UniL
##OWNER=Nicolet
##LONGDATE=2011/08/23
##TIME=11:45:01
##SPECTROMETER/DATA SYSTEM=Nicolet iS5
##DATA PROCESSING=
Ratio against background
%Transmittance->Absorbance
Truncated
ElementMultiply or ElementDivide
##COMMENTS=
Number of sample scans: 32
Collection length: 51.19 sec
Sample gain: 2.0
Background collected on: Mar Aout 23 11:43:22 2011 (GMT+02:00);
Number of background scans: 32
Background gain: 2.0
Sample spacing:  1.000
Number of scan points: 12415
Resolution points: 8192
Number of FFT points: 65536
Apodization: N-B fort;
Phase correction: Mertz;
Laser frequency: 15798.0 cm-1
Number of rejected sample scans: 0
Number of rejected background scans: 0
Bench serial number: ASB1000141;
##RESOLUTION=4.000
##XUNITS=1/CM
##YUNITS=ABSORBANCE
##FIRSTX=649.893372
##LASTX=4000.122314
##FIRSTY=0.089469
##MAXX=4000.122314
##MINX=649.893372
##MAXY=0.237375
##MINY=0.001445
##XFACTOR=1.000000
##YFACTOR=1.000000E-009
##NPOINTS=6950
##DELTAX=0.482117
##ZPD=6100
##XYDATA=(X++(Y..Y))
649.893 89469384 88746248 88121000 87635312 87297720 87086992 86965704 
653.268 86901744 86877176 86892192 86955536 87071888 87233920 87424824 
656.643 87626632 87833520 88057072 88323008 88658832 89078784 89576792 
660.018 90129368 90708288 91293608 91883984 92494400 93145896 93852552 
663.393 94612784 95409152 96217240 97014936 97781232 98497672 99136728 
666.767 99653088 99994032 100124832 100061992 99870920 99631872 99391248 
670.142 99149512 98871328 98508648 98023584 97401008 96658888 95838376 
673.517 94992808 94163288 93366160 92596208 91836576 91075544 90313344 
676.892 89563480 88842760 88161296 87515360 86889600 86264944 85629080 
680.267 84980648 84328560 83683432 83052176 82431928 81815048 81194136 
683.642 80570432 79954512 79364368 78815144 78313088 77851880 77416896 
687.016 76992952 76572584 76158776 75763984 75402784 75082872 74801944 
690.391 74548640 74309016 74073768 73842688 73624096 73430184 73271608 
693.766 73151760 73069232 73019520 73001328 73018576 73080432 73195528 
697.141 73369368 73600304 73881416 74204208 74564616 74964216 75410112 
700.516 75908672 76459280 77050792 77663752 78274120 78861592 79416248 
703.890 79938224 80434672 80912368 81371928 81806656 82205808 82559176 
707.265 82863064 83121216 83342160 83534760 83704520 83854120 83987456 
710.640 84114120 84252888 84428472 84663528 84970296 85341408 85749368 
714.015 86149136 86493312 86740448 86864712 86861152 86742472 86534760 
717.390 86271624 85994216 85750336 85589904 85567184 85729824 86106752 
720.765 86700592 87477024 88368248 89271312 90071056 90659704 90947856 
724.139 90891280 90495656 89819256 88957872 88028952 87150160 86406504 
727.514 85846856 85477456 85272408 85187744 85177904 85210312 85266192 
730.889 85339424 85429896 85536280 85653376 85774192 85892648 86008144 
734.264 86125584 86252336 86393976 86550208 86715480 86881552 87042976 
737.639 87199976 87358368 87525496 87706104 87897008 88088976 88268760 
741.013 88427416 88562896 88681752 88794992 88913176 89041736 89179224 
744.388 89320920 89463112 89606568 89757408 89922808 90106168 90302824 
747.763 90501360 90686888 90847496 90979936 91090136 91190312 91291976 
751.138 91400824 91515344 91628552 91733352 91827040 91913344 91999912 
754.513 92093896 92198080 92309816 92422824 92531832 92635576 92738240 
757.888 92846920 92967824 93102752 93249472 93403632 93562408 93727416 
761.262 93903832 94097608 94311472 94543000 94785936 95034168 95288032 
764.637 95556656 95859656 96222488 96668240 97213920 97862296 98600440 
768.012 99395704 100198480 100947504 101573648 102018984 102253136 102288272 
771.387 102186304 102050368 102004312 102143928 102507560 103045624 
774.279 103631056 104075808 104182608 103812008 102906824 101513072 99749752 
777.654 97777128 95741752 93737576 91803832 89925248 88059712 86157336 
781.029 84185184 82133072 80013384 77853776 75690224 73563376 71510872 
784.404 69566800 67760568 66110448 64626612 63309648 62154340 61153544 
787.779 60302280 59599288 59047044 58649332 58407664 58320912 58385344 
791.154 58597716 58958680 59475020 60157412 61018384 62064352 63290484 
794.528 64674600 66178552 67747280 69310624 70795136 72123680 73224544 
797.903 74046536 74564536 74792968 74785256 74634568 74456800 74360248 
801.278 74432064 74707168 75156656 75682056 76132320 76337488 76127864 
804.653 75388360 74081312 72259024 70051376 67638120 65213532 62926932 
808.028 60863632 59030836 57370796 55787228 54180772 52486524 50683900 
811.402 48800816 46894448 45035916 43286696 41685468 40250444 38980356 
814.777 37864452 36887588 36035228 35294396 34652024 34095428 33612968 
818.152 33194840 32835220 32532174 32285656 32095856 31961240 31877934 
821.527 31841424 31848912 31900578 32001148 32157690 32377820 32666146 
824.902 33023090 33443592 33918164 34431952 34965964 35497644 35999448 
828.277 36443740 36807264 37075128 37249100 37349076 37415484 37500184 
831.651 37662804 37962216 38442084 39126488 40009464 41051284 42172424 
835.026 43257008 44173188 44776136 44943232 44600300 43734116 42402516 
838.401 40717164 38831520 36900248 35054244 33392850 31967908 30792662 
841.776 29852322 29117592 28553850 28127872 27812160 27583206 27420898 
845.151 27310512 27240832 27205660 27203014 27232612 27293788 27383768 
848.525 27497066 27627272 27769138 27919846 28079656 28250734 28436206 
851.900 28637898 28856928 29093640 29349660 29627468 29931192 30264540 
855.275 30630500 31030076 31464182 31934456 32445974 33007074 33629828 
858.650 34328168 35115348 36004776 37009888 38144216 39422960 40858960 
862.025 42456516 44203564 46063168 47971584 49833120 51539000 52978484 
865.400 54052492 54699648 54901284 54689164 54137832 53360580 52494748 
868.774 51672960 51022356 50645028 50606680 50943544 51658592 52728544 
872.149 54103716 55712712 57466816 59250896 60936368 62389956 63476780 
875.524 64090984 64167604 63693352 62708640 61300348 59588680 57697704 
878.899 55748236 53842548 52049164 50410304 48940456 47633904 46473224 
882.274 45438232 44512844 43688784 42966360 42351668 41853492 41477992 
885.648 41225620 41091932 41068876 41148824 41327680 41606296 41989388 
889.023 42482896 43090124 43808544 44630004 45543092 46536172 47601444 
892.398 48737236 49947928 51242308 52630616 54121808 55719720 57419920 
895.773 59202780 61028488 62833800 64523928 65984420 67094364 67736016 
899.148 67827536 67334328 66278196 64732172 62810788 60655972 58405468 
902.523 56189640 54116736 52260220 50667032 49357436 48330592 47572456 
905.897 47062060 46777964 46700696 46815348 47112872 47587764 48237868 
909.272 49061900 50059944 51231384 52574852 54084800 55749592 57546476 
912.647 59437024 61371632 63288948 65124676 66826620 68360272 69717056 
916.022 70915472 71998208 73023440 74050032 75132392 76304304 77570136 
919.397 78897872 80217408 81430272 82412224 83044512 83237592 82951576 
922.771 82217496 81141728 79904928 78723232 77831184 77449840 77733416 
926.146 78760848 80508248 82856328 85588080 88416528 91042000 93157768 
929.521 94509224 94929600 94334288 92731680 90200608 86879448 82939024 
932.896 78565696 73964888 69331576 64844332 60664204 56908848 53658012 
936.271 50954652 48806784 47200332 46108228 45499600 45339540 45585412 
939.646 46184132 47057036 48099116 49190828 50195048 50984012 51461668 
943.020 51568400 51296184 50683452 49809520 48773528 47676796 46614928 
946.395 45656592 44845020 44198244 43714144 43377308 43165652 43058036 
949.770 43034584 43077428 43172096 43304452 43461232 43631960 43809056 
953.145 43989528 44175208 44371132 44583520 44817536 45076164 45359880 
956.520 45667672 45997780 46349300 46721544 47113796 47524548 47951820 
959.894 48392780 48845900 49311108 49789976 50284844 50797484 51327620 
963.269 51873044 52429880 52994812 53566696 54147028 54739224 55347132 
966.644 55973500 56619564 57284404 57967524 58669128 59391356 60137624 
970.019 60910980 61713864 62547468 63412204 64310244 65245836 66225356 
973.394 67256376 68345648 69496680 70710160 71984752 73319112 74714216 
976.768 76173704 77702584 79306256 80988016 82749600 84592176 86518952 
980.143 88536288 90655288 92888080 95245440 97733056 100349704 103085960 
983.518 105923496 108836224 111784832 114710640 117539024 120168808 
986.411 122481544 124361576 125699488 126417968 126484248 125913216 
989.304 124768152 123148072 121187904 119036368 116841016 114748360 
992.196 112876664 111313744 110116088 109304424 108873648 108800512 
995.089 109055392 109608464 110433128 111509152 112817112 114337120 
997.982 116048856 117928960 119953264 122098344 124335720 126629248 
1000.874 128932640 131181720 133301360 135214944 136848832 138150880 
1003.767 139095760 139689728 139967840 139991440 139845664 139624608 
1006.660 139431296 139369696 139526464 139972752 140754688 141892080 
1009.552 143383056 145210560 147351968 149781296 152473648 155405648 
1012.445 158550048 161876720 165355120 168953456 172643280 176397888 
1015.338 180181296 183940032 187591792 191014528 194064336 196586240 
1018.231 198439248 199534672 199850400 199447520 198456816 197079904 
1021.123 195564080 194156368 193106016 192622336 192847024 193859392 
1024.016 195662768 198198320 201352512 204984672 208946848 213083440 
1026.909 217251440 221315984 225139664 228597072 231574464 233978192 
1029.802 235752816 236879696 237375456 237278512 236639648 235512368 
1032.695 233945184 231986704 229683744 227076560 224197056 221061184 
1035.588 217668176 214005216 210060032 205832848 201347120 196650976 
1038.481 191811216 186909536 182025440 177233920 172604368 168192576 
1041.374 164042352 160180448 156608688 153302448 150210144 147267072 
1044.267 144403520 141563888 138722464 135887088 133099232 130420912 
1047.160 127929256 125699368 123792800 122259320 121128784 120411952 
1050.053 120102128 120176720 120599824 121323704 122298792 123475360 
1052.947 124805384 126247512 127759816 129292920 130791072 132183656 
1055.840 133389456 134330432 134932448 135138448 134916880 134260688 
1058.733 133191304 131755408 130029752 128113376 126118768 124173928 
1061.626 122398312 120896000 119753320 119025736 118742680 118908776 
1064.519 119506616 120497656 121821080 123400160 125136528 126916304 
1067.412 128628224 130162072 131425632 132354840 132907824 133066280 
1070.305 132828864 132205680 131215784 129884136 128244104 126333224 
1073.198 124191960 121865744 119401576 116851952 114280912 111759280 
1076.091 109366936 107190376 105305672 103779352 102659336 101968944 
1078.984 101708304 101852720 102356760 103148648 104133584 105203960 
1081.877 106233440 107099376 107702648 107975328 107902376 107522320 
1084.770 106926584 106239824 105601688 105158832 105034456 105324840 
1087.663 106092592 107356824 109093816 111232960 113670152 116264600 
1090.556 118853712 121283184 123405840 125104528 126304280 126964536 
1093.449 127081152 126677784 125802232 124517784 122894856 121011776 
1096.343 118942416 116752960 114504568 112247496 110023616 107867680 
1099.236 105801936 103834944 101957928 100146232 98361968 96562904 94716368 
1102.611 92806632 90843456 88860480 86913320 85068664 83390568 81939840 
1105.986 80763096 79891504 79344120 79126568 79234352 79653088 80359952 
1109.361 81325176 82509888 83871528 85362136 86926592 88507232 90038400 
1112.737 91447696 92664904 93621840 94261496 94547656 94463304 94013304 
1116.112 93219200 92116840 90751600 89171744 87431184 85581384 83667400 
1119.487 81728496 79792744 77878080 75996680 74157120 72368136 70642168 
1122.862 68993000 67435640 65983876 64647572 63433140 62345544 61389496 
1126.238 60572316 59904864 59399980 59071488 58930900 58983652 59228072 
1129.613 59653300 60239852 60956576 61763516 62613144 63448632 64214660 
1132.988 64862036 65354244 65677816 65843732 65888816 65864712 65834476 
1136.363 65860660 65991552 66259360 66672332 67214872 67847288 68510696 
1139.739 69137696 69652752 69985696 70081312 69898352 69415856 68630944 
1143.114 67555312 66212164 64633652 62861792 60943040 58928660 56873800 
1146.489 54828308 52837764 50941312 49166596 47533900 46055576 44737056 
1149.864 43578952 42578164 41728476 41021820 40448496 39999472 39666196 
1153.240 39442152 39323196 39306688 39390744 39573160 39850796 40219108 
1156.615 40673020 41207036 41815916 42495248 43240280 44046548 44909312 
1159.990 45823468 46784424 47787232 48825468 49890316 50967468 52035944 
1163.365 53070096 54037932 54906208 55643672 56220188 56610888 56795772 
1166.740 56759220 56493128 55997472 55282180 54366204 53276440 52045728 
1170.116 50706576 49291028 47829476 46347272 44868676 43416084 42009060 
1173.491 40665852 39401916 38228660 37154344 36184404 35321276 34566588 
1176.866 33921208 33385764 32960494 32644786 32437478 32336734 32340910 
1180.241 32449510 32663540 32985304 33418112 33965456 34629200 35410348 
1183.617 36307948 37318928 38437124 39650692 40941860 42282488 43634816 
1186.992 44956168 46196592 47307540 48247012 48978696 49478916 49736620 
1190.367 49754676 49549400 49149828 48596728 47935212 47213004 46477648 
1193.742 45768572 45119320 44555616 44093524 43741624 43500972 43365812 
1197.118 43323376 43354020 43434392 43534376 43621188 43662040 43621960 
1200.493 43469404 43178572 42730668 42118900 41349728 40444536 39435184 
1203.868 38361508 37266860 36189304 35160684 34204716 33334098 32554850 
1207.243 31867382 31268652 30754000 30318222 29955402 29659750 29425780 
1210.619 29249310 29127796 29061010 29050240 29097820 29205826 29374796 
1213.994 29603844 29890726 30231752 30622322 31056876 31528204 32027222 
1217.369 32543816 33066996 33586760 34094924 34585856 35055500 35501848 
1220.744 35923140 36318576 36689348 37039148 37375616 37709384 38054472 
1224.120 38425104 38833912 39291056 39802424 40369256 40987992 41650420 
1227.495 42343084 43046988 43740232 44398472 44997876 45520092 45952840 
1230.870 46292088 46542080 46714940 46830516 46913788 46997848 47120848 
1234.245 47322760 47646920 48133800 48817092 49725176 50876824 52282272 
1237.621 53944432 55859120 58014668 60389620 62953556 65664940 68470392 
1240.996 71313488 74132600 76865504 79455632 81847176 83987944 85833984 
1244.371 87346904 88500376 89281528 89689904 89735776 89436608 88817144 
1247.746 87906704 86738544 85351776 83783960 82067496 80226096 78268888 
1251.122 76193608 73991256 71654808 69187240 66608400 63953832 61275208 
1254.497 58633936 56088740 53696292 51501020 49530312 47795852 46291460 
1257.872 44996332 43874888 42883440 41974792 41099212 40215036 39290548 
1261.247 38306384 37257620 36151420 35004820 33839428 32679510 31548652 
1264.623 30466690 29449642 28509478 27652802 26882510 26197440 25593682 
1267.998 25064820 24603572 24203100 23857004 23560404 23309310 23100364 
1271.373 22930430 22796842 22697088 22630130 22595994 22595610 22629886 
1274.748 22699600 22803440 22938814 23100854 23282044 23473310 23661966 
1278.124 23833272 23971838 24061938 24091674 24054796 23951600 23788820 
1281.499 23576566 23327318 23052074 22759164 22455390 22146564 21838932 
1284.874 21541060 21262840 21015228 20808842 20652032 20551308 20511534 
1288.249 20536442 20629794 20795216 21035468 21351788 21742498 22203124 
1291.625 22725262 23296760 23901710 24518686 25121550 25682116 26170166 
1295.000 26560164 26835912 26992890 27039928 26997298 26894846 26763488 
1298.375 26634140 26534416 26484722 26500218 26589260 26753022 26984674 
1301.750 27269618 27586950 27909812 28210354 28464616 28652798 28762958 
1305.125 28791352 28740904 28620272 28442186 28223118 27980660 27732014 
1308.501 27493854 27278862 27095648 26948996 26840318 26769514 26736106 
1311.876 26740476 26782728 26862594 26978716 27127706 27305608 27509104 
1315.251 27736042 27985642 28259044 28556786 28879094 29225280 29594444 
1318.626 29986466 30403112 30846906 31320110 31822204 32347906 32886182 
1322.002 33420474 33928840 34389164 34778792 35079496 35281780 35387020 
1325.377 35410528 35379900 35334792 35319696 35374544 35531156 35804204 
1328.752 36189952 36667536 37206068 37772056 38334432 38871960 39373984 
1332.127 39839504 40275308 40693180 41108612 41536836 41992820 42488304 
1335.503 43029756 43616280 44239664 44885980 45535732 46166964 46758668 
1338.878 47289620 47741256 48098928 48352668 48498836 48540960 48487944 
1342.253 48352296 48147348 47886224 47579076 47233688 46855836 46449256 
1345.628 46017080 45562156 45086788 44592772 44081276 43551920 43004184 
1349.004 42437848 41854404 41259356 40663124 40080568 39533164 39046292 
1352.379 38646448 38362376 38219288 38236620 38425176 38782900 39292324 
1355.754 39918756 40616112 41328920 41998256 42573232 43010768 43281168 
1359.129 43371120 43282996 43035904 42662852 42212664 41745072 41321268 
1362.505 41002196 40833228 40835484 41004272 41310300 41707756 42138032 
1365.880 42541508 42860948 43043584 43052072 42867896 42494920 41958328 
1369.255 41299332 40567184 39805364 39050864 38330632 37661392 37056360 
1372.630 36528500 36091788 35762752 35555284 35475780 35520224 35674508 
1376.006 35919468 36235224 36607188 37027892 37495816 38015196 38594440 
1379.381 39246736 39987916 40836540 41808472 42908348 44119968 45396296 
1382.756 46663696 47819008 48745428 49335940 49493772 49155204 48301560 
1386.131 46975400 45286944 43397044 41498884 39758632 38284168 37118936 
1389.507 36248404 35624548 35185368 34873388 34638460 34438052 34238888 
1392.882 34011964 33734488 33393778 32989234 32533600 32046414 31547620 
1396.257 31049580 30554312 30058434 29559010 29060868 28580388 28143250 
1399.632 27775318 27497136 27314888 27222664 27206082 27249332 27338742 
1403.008 27464804 27623706 27814704 28039362 28298968 28593908 28923292 
1406.383 29285462 29678980 30102576 30555946 31037798 31545590 32075844 
1409.758 32623142 33182036 33748276 34318772 34891844 35466000 36038252 
1413.133 36604232 37158496 37696084 38215632 38720084 39216704 39715676 
1416.509 40228268 40764652 41332892 41937856 42579592 43250492 43935704 
1419.884 44613224 45258264 45846628 46359144 46784572 47120404 47375788 
1423.259 47571720 47740040 47914820 48124288 48385148 48699652 49060672 
1426.634 49457120 49880208 50323164 50780688 51247528 51717860 52187280 
1430.010 52655712 53130716 53626220 54158136 54741028 55382176 56082068 
1433.385 56835768 57638368 58490380 59397816 60371724 61423388 62557840 
1436.760 63766904 65031796 66329844 67637312 68929816 70174688 71330080 
1440.135 72337448 73125800 73628336 73783744 73549008 72904360 71849656 
1443.510 70405424 68609368 66521540 64216576 61773872 59279984 56814128 
1446.886 54448076 52250504 50277256 48565568 47126388 45944040 44984240 
1450.261 44209212 43593128 43128584 42825548 42699592 42758852 42991160 
1453.636 43364196 43823096 44299720 44724092 45025736 45156816 45111932 
1457.011 44943044 44739776 44588808 44547940 44635844 44847628 45170644 
1460.387 45591300 46096256 46667384 47282084 47906756 48496244 49002992 
1463.762 49381380 49603552 49670972 49616180 49490280 49340768 49202332 
1467.137 49089500 49000692 48925368 48847420 48747652 48598952 48366664 
1470.512 48009364 47485368 46771728 45882644 44880548 43858356 42909080 
1473.888 42095756 41438808 40931556 40557544 40305628 40174040 40167028 
1477.263 40285708 40522040 40857032 41266352 41724608 42213468 42725000 
1480.638 43261912 43834604 44457348 45145680 45913324 46774644 47747988 
1484.013 48855092 50119740 51560676 53181948 54960504 56836104 58716048 
1487.389 60469664 61940292 62971404 63412168 63153348 62158168 60478232 
1490.764 58251832 55662728 52902808 50119664 47399844 44785764 42283184 
1494.139 39887224 37606400 35468660 33525300 31840138 30467258 29432836 
1497.514 28729574 28327686 28186876 28268558 28542030 28980280 29557626 
1500.890 30248766 31024560 31854436 32708660 33550498 34336268 35010820 
1504.265 35491924 35672924 35429976 34653064 33310092 31496208 29420282 
1507.640 27306312 25306814 23476246 21802558 20252026 18798414 17431422 
1511.015 16158227 14994686 13952832 13037804 12244037 11559777 10970713 
1514.391 10463187 10025759 9646699 9315496 9024226 8769360 8553267 8381835 
1518.248 8258657 8180655 8135346 8101722 8057839 7988647 7896050 7800739 
1522.105 7732061 7711689 7742281 7810117 7893384 7973461 8040321 8096861 
1525.963 8155637 8233398 8341335 8480753 8644315 8822377 9007616 9198281 
1529.820 9397360 9608384 9832392 10065603 10300737 10530058 10750839 
1533.196 10968606 11196308 11445935 11723108 12023347 12334839 12642018 
1536.571 12930503 13189463 13409960 13586090 13712361 13784694 13800666 
1539.946 13761949 13679088 13569031 13449740 13334445 13225328 13114156 
1543.321 12985738 12826266 12629192 12400465 12156763 11919566 11704828 
1546.697 11516190 11345693 11178221 10999700 10802808 10591540 10379189 
1550.072 10182747 10013586 9873099 9754141 9645954 9541385 9440057 9348774 
1553.929 9278091 9235679 9221329 9225729 9232092 9220584 9169143 9055249 
1557.787 8861772 8586656 8256732 7924698 7647510 7456412 7350077 7306775 
1561.644 7299193 7302563 7296161 7267285 7211964 7135868 7052342 6977587 
1565.501 6924458 6896616 6888537 6887696 6881569 6859890 6819464 6763932 
1569.359 6703459 6650498 6615172 6603734 6618099 6657261 6717996 6794390 
1573.216 6878404 6957654 7018364 7048335 7042374 7007925 6964456 6937891 
1577.074 6946678 6995904 7078846 7183431 7298317 7416032 7533981 7652434 
1580.931 7772875 7896118 8021993 8149324 8277569 8407035 8537418 8667097 
1584.789 8791134 8902321 8992089 9053693 9085056 9089895 9078018 9062422 
1588.646 9057009 9074872 9125491 9216015 9351145 9532545 9757495 10016638 
1592.503 10293578 10563904 10798664 10971800 11062372 11060876 10970577 
1595.879 10806409 10590726 10347562 10100973 9870116 9669331 9509751 9398544 
1599.736 9339668 9333100 9376198 9463931 9591685 9756682 9958898 10198825 
1603.594 10475881 10784431 11113119 11445799 11762153 12040516 12262305 
1606.969 12411068 12475921 12452290 12341487 12150937 11892526 11583155 
1610.344 11242175 10890965 10551173 10239771 9967035 9735503 9539928 9369867 
1614.201 9212461 9055621 8890585 8714288 8532113 8356973 8206418 8094936 
1618.059 8030768 8013117 8034887 8084742 8149964 8218844 8281960 8334613 
1621.916 8378152 8420007 8470584 8538804 8629443 8740352 8866101 8999836 
1625.774 9136589 9273454 9409413 9543654 9675564 9804702 9930963 10056820 
1629.631 10186037 10322317 10467838 10621623 10778487 10929427 11063153 
1633.006 11167919 11232485 11249214 11216130 11141096 11041774 10941966 
1636.382 10863854 10819045 10807122 10818196 10839020 10855462 10856073 
1639.757 10834808 10791904 10733925 10670860 10613271 10568216 10536237 
1643.132 10511591 10484164 10442110 10373691 10271830 10136584 9977003 
1646.507 9811481 9662317 9551004 9490481 9483742 9524315 9599950 9693420 
1650.365 9782301 9841408 9839475 9747906 9556220 9292951 9025546 8822986 
1654.222 8718682 8700157 8734672 8788193 8837662 8871275 8885411 8882435 
1658.080 8867048 8843613 8814059 8777745 8731799 8672573 8597437 8505622 
1661.937 8398826 8282770 8165630 8056657 7964383 7893721 7844934 7813727 
1665.794 7792137 7770211 7736918 7682684 7601751 7493425 7363490 7222677 
1669.652 7084471 6960213 6857534 6778942 6722068 6680847 6646292 6607064 
1673.509 6550953 6467809 6354554 6219009 6079677 5957823 5869250 5816995 
1677.367 5793254 5783684 5774585 5757057 5729593 5697363 5668325 5648049 
1681.224 5635394 5620357 5586020 5514571 5395257 5234691 5059636 4907572 
1685.082 4806114 4760016 4755159 4770301 4788023 4796197 4789698 4768927 
1688.939 4737171 4699521 4661640 4629456 4608794 4603871 4616161 4643087 
1692.796 4676846 4704579 4711613 4684951 4620180 4526958 4429907 4358245 
1696.654 4329430 4342984 4380770 4417220 4423614 4377824 4272508 4124533 
1700.511 3972060 3854105 3792599 3784043 3810582 3851029 3887602 3908966 
1704.369 3909401 3890210 3857247 3819774 3785513 3759477 3742131 3731737 
1708.226 3725521 3721243 3718236 3717400 3720274 3728562 3742900 3761883 
1712.083 3783541 3804866 3822883 3835953 3843742 3845814 3841669 3828967 
1715.941 3803997 3763420 3707675 3642883 3580705 3535339 3516332 3526186 
1719.798 3559993 3609137 3663599 3715195 3758708 3792298 3817133 3835853 
1723.656 3851397 3866340 3881652 3898033 3915553 3934410 3954104 3973565 
1727.513 3990886 4003694 4010750 4012823 4012489 4013626 4018174 4024260 
1731.371 4024829 4007573 3957548 3863599 3725421 3560594 3400671 3279233 
1735.228 3214403 3203655 3230259 3272923 3313888 3340031 3345374 3330816 
1739.085 3303337 3272522 3247251 3232462 3227822 3230493 3236735 3244180 
1742.943 3253026 3265111 3282671 3307511 3339497 3376661 3415299 3450766 
1746.800 3479222 3497426 3503939 3498862 3483130 3458314 3425751 3387113 
1750.658 3345474 3305040 3271688 3250556 3245148 3255229 3277063 3304539 
1754.515 3329714 3345674 3348212 3337293 3317427 3296126 3280368 3273691 
1758.373 3274826 3278832 3279233 3270352 3249020 3216206 3176252 3136000 
1762.230 3101927 3078834 3068823 3070725 3082038 3098723 3116277 3130093 
1766.087 3136134 3132463 3120248 3104029 3090514 3085842 3092383 3107266 
1769.945 3122785 3129459 3118479 3086376 3036891 2981372 2933800 2903678 
1773.802 2894605 2903045 2922792 2947411 2973832 3001090 3029783 3059981 
1777.660 3089780 3115142 3132096 3137135 3130627 3116277 3100525 3089513 
1781.517 3086676 3091381 3099858 3107300 3109669 3105698 3096921 3087010 
1785.375 3080102 3079201 3085975 3100826 3123151 3152087 3185964 3222047 
1789.232 3255129 3279166 3287178 3274258 3239072 3186298 3125955 3069391 
1793.089 3026647 3002191 2994617 2999121 3009264 3020041 3027882 3031018 
1796.947 3029183 3022710 3011866 2997219 2979804 2961088 2943307 2928563 
1800.804 2918422 2913652 2913685 2917421 2923559 2931498 2941039 2952581 
1804.662 2966192 2982306 3000556 3020608 3041662 3062483 3081570 3096687 
1808.519 3105230 3105264 3095720 3077766 3053774 3028182 3005527 2989412 
1812.376 2981606 2981739 2988111 2998354 3010598 3023644 3037458 3052239 
1816.234 3068657 3086609 3105664 3125354 3145045 3164636 3184129 3203989 
1820.091 3224818 3247151 3270586 3294189 3316091 3333453 3343537 3344005 
1823.949 3334989 3319530 3303104 3292654 3293388 3306843 3329781 3355458 
1827.806 3374892 3380301 3368046 3340465 3305541 3274158 3256498 3257800 
1831.664 3277296 3309714 3348112 3386780 3422178 3453605 3482228 3509852 
1835.521 3538178 3567743 3598679 3631522 3667208 3707208 3753494 3807005 
1839.378 3867644 3933474 4001754 4068540 4130219 4182974 4223958 4252298 
1843.236 4270032 4282446 4297672 4323875 4366445 4425455 4495788 4569079 
1847.093 4636355 4689607 4724810 4742296 4745679 4739448 4727825 4712249 
1850.951 4691650 4663549 4626241 4579694 4526523 4470010 4413136 4357208 
1854.808 4301320 4243464 4182138 4117675 4052620 3990686 3935145 3887168 
1858.666 3845614 3807874 3771007 3733141 3695044 3658387 3625708 3597911 
1862.523 3575293 3556785 3541953 3531030 3525451 3526219 3533234 3543423 
1866.380 3551841 3552175 3539916 3514061 3478621 3441314 3410723 3393391 
1870.238 3391054 3400905 3417803 3436772 3453772 3466898 3476049 3481093 
1874.095 3482462 3480057 3473745 3464159 3452336 3439544 3426686 3413796 
1877.953 3399569 3382539 3362002 3338462 3313888 3291352 3273090 3260404 
1881.810 3252024 3245581 3239072 3231294 3222915 3216273 3213202 3214704 
1885.667 3219344 3223884 3224251 3217307 3201485 3178121 3150218 3122417 
1889.525 3099057 3083539 3077266 3079869 3089513 3103128 3117245 3128591 
1893.382 3134966 3135533 3131962 3127757 3126722 3132429 3146113 3166405 
1897.240 3190103 3213335 3232930 3248252 3259536 3268950 3278531 3289348 
1901.097 3301434 3314355 3327310 3339898 3352119 3364073 3374624 3382705 
1904.955 3386479 3385210 3379132 3370417 3361568 3355291 3352519 3352653 
1908.812 3353721 3353721 3351484 3347911 3344539 3343337 3345607 3350716 
1912.669 3357060 3363138 3367612 3369916 3370517 3369248 3365341 3357261 
1916.527 3343838 3325574 3305574 3288714 3280034 3282337 3293789 3308813 
1920.384 3320231 3321400 3309113 3285275 3255363 3227455 3207160 3197213 
1924.242 3195878 3198548 3200317 3198815 3194409 3189402 3187266 3190137 
1928.099 3198448 3210865 3225152 3238905 3250956 3260237 3266046 3267715 
1931.957 3265645 3260671 3255830 3254495 3259903 3273090 3292053 3311884 
1935.814 3327610 3334789 3333387 3326776 3320999 3321166 3329814 3344038 
1939.671 3358496 3365775 3361668 3345207 3321333 3297194 3279433 3272456 
1943.529 3276228 3287946 3304005 3321367 3339230 3357728 3376895 3396163 
1947.386 3413629 3427822 3438376 3446124 3453405 3461888 3471540 3480592 
1951.244 3485736 3484567 3477886 3468267 3461854 3462856 3473411 3490178 
1955.101 3507146 3516232 3511455 3490846 3456644 3414797 3371653 3332986 
1958.958 3301902 3279867 3267381 3265111 3273524 3292153 3318963 3348813 
1962.816 3375994 3395462 3405080 3406649 3403911 3401406 3401707 3403610 
1966.673 3403477 3397566 3382973 3360466 3333587 3306209 3281536 3260404 
1970.531 3242778 3227555 3216573 3212935 3220078 3240474 3272088 3309147 
1974.388 3345507 3376027 3401373 3428390 3466063 3522144 3597777 3686188 
1978.246 3773347 3846115 3894189 3916188 3917559 3909367 3901778 3902279 
1982.103 3911941 3927488 3942836 3951462 3948854 3933306 3905221 3867410 
1985.960 3824588 3783675 3750419 3732105 3732639 3751689 3783942 3820142 
1989.818 3849960 3865438 3863532 3847987 3827028 3811284 3807941 3820443 
1993.675 3846282 3879378 3912577 3940528 3960256 3971157 3974333 3971425 
1997.533 3964704 3956913 3950760 3949991 3956946 3971525 3990853 4009613 
2001.390 4020515 4018876 4002390 3974735 3942267 3913747 3896295 3893821 
2005.248 3905255 3927020 3953636 3980620 4005065 4025799 4042721 4056433 
2009.105 4067203 4075564 4082755 4090414 4099847 4111755 4125804 4140723 
2012.962 4155241 4168957 4182807 4199099 4220478 4247848 4279736 4313467 
2016.820 4343921 4368319 4386192 4399982 4414208 4432819 4457724 4488657 
2020.677 4521333 4550228 4570686 4579158 4574738 4559235 4536802 4513097 
2024.535 4494516 4486514 4492808 4514436 4548855 4589874 4631365 4666999 
2028.392 4693391 4712115 4727289 4744238 4767554 4797571 4831509 4865417 
2032.250 4896145 4922317 4947619 4976073 5011668 5054608 5101776 5146669 
2036.107 5183921 5209373 5223893 5231405 5237542 5246463 5260313 5277955 
2039.964 5296771 5313642 5327663 5338631 5347990 5357047 5365601 5373250 
2043.822 5379188 5381670 5381938 5380798 5380597 5384455 5393949 5410857 
2047.679 5435986 5468264 5504940 5540679 5569105 5583268 5578469 5554472 
2051.537 5515913 5472391 5435114 5414514 5416360 5439744 5477726 5520074 
2055.394 5556956 5581691 5593371 5595116 5592162 5588672 5586625 5585316 
2059.251 5583101 5578301 5572193 5566823 5565883 5571723 5585181 5604178 
2063.109 5625727 5646908 5665270 5680242 5691824 5699848 5704581 5705286 
2066.966 5702164 5696423 5690146 5685882 5685043 5687359 5690380 5690783 
2070.824 5685110 5671682 5651574 5628446 5606360 5589477 5579879 5577630 
2074.681 5581590 5590350 5602802 5619350 5640161 5665505 5694510 5725430 
2078.539 5755312 5782308 5804671 5821462 5832644 5838353 5838756 5834290 
2082.396 5825726 5814208 5801582 5789829 5780058 5772973 5768272 5765183 
2086.253 5763001 5762027 5762564 5765586 5770690 5777070 5782644 5785128 
2090.111 5782979 5776532 5766996 5757225 5749906 5746481 5746918 5750410 
2093.968 5754741 5758703 5761087 5761691 5760348 5756990 5750712 5741243 
2097.826 5728855 5714989 5702030 5693066 5689977 5693838 5704212 5719521 
2101.683 5738020 5758736 5781334 5806015 5832342 5859544 5885740 5909050 
2105.541 5928028 5943076 5955639 5968572 5984193 6003812 6026893 6051419 
2109.398 6075141 6095873 6112204 6124301 6132434 6137407 6139558 6139188 
2113.255 6136769 6132837 6128603 6125276 6123965 6125477 6130216 6138012 
2117.113 6148800 6162646 6179483 6198271 6218236 6236689 6251446 6260724 
2120.970 6264589 6264455 6263816 6265968 6273867 6288289 6308763 6332599 
2124.828 6357681 6381587 6403276 6422409 6438685 6451834 6461217 6465791 
2128.685 6465287 6460477 6453348 6446252 6441846 6441947 6447866 6459771 
2132.542 6477562 6500601 6528316 6559362 6591253 6620757 6645418 6662039 
2136.400 6670854 6673075 6671359 6668566 6666749 6665471 6663889 6660323 
2140.257 6653527 6643904 6633407 6623785 6616552 6611270 6606526 6600470 
2144.115 6591724 6580353 6567772 6555898 6546009 6538205 6531612 6524616 
2147.972 6516005 6505376 6492865 6477932 6459401 6434314 6399610 6352133 
2151.830 6291483 6219312 6139457 6056224 5973611 5893734 5819749 5754942 
2155.687 5706562 5684808 5700150 5760953 5868646 6014529 6179416 6340130 
2159.544 6475309 6570161 6620824 6632465 6615441 6582035 6543183 6507664 
2163.402 6480555 6465387 6461755 6467977 6478605 6486071 6483414 6464479 
2167.259 6426848 6372206 6305838 6234505 6164293 6100207 6043658 5995211 
2171.117 5954295 5920974 5895884 5879829 5872474 5872139 5874389 5875161 
2174.974 5869922 5856488 5834592 5805947 5773107 5739027 5705655 5675576 
2178.832 5649795 5630091 5617134 5610455 5608542 5608777 5607837 5604514 
2182.689 5598473 5591156 5584711 5580818 5578502 5576355 5571320 5561755 
2186.546 5548801 5535243 5525712 5524303 5532323 5548331 5568367 5588236 
2190.404 5604548 5617000 5626667 5635931 5646975 5660503 5675240 5690280 
2194.261 5704883 5719454 5734864 5752458 5771898 5791508 5808130 5819279 
2198.119 5823779 5822704 5818641 5814611 5812395 5812361 5812764 5811891 
2201.976 5808667 5803529 5798157 5795202 5795403 5798492 5802992 5806753 
2205.833 5809104 5810817 5814275 5821697 5834323 5850645 5866765 5878621 
2209.691 5883020 5879124 5869552 5858805 5851786 5852290 5861559 5877882 
2213.548 5898503 5919026 5935686 5946469 5950668 5947879 5940053 5928901 
2217.406 5916540 5905221 5896488 5890678 5887454 5884834 5880770 5873448 
2221.263 5862265 5847152 5828715 5807760 5784087 5757461 5728082 5696490 
2225.121 5665001 5636939 5615255 5602635 5599580 5604548 5614986 5627842 
2228.978 5641537 5655871 5671078 5687527 5704917 5720595 5731809 5735805 
2232.835 5731339 5719554 5704011 5688400 5676314 5669970 5669198 5672689 
2236.693 5679033 5687090 5697195 5710792 5729291 5753733 5783852 5818506 
2240.550 5855447 5891618 5924434 5951171 5970151 5980061 5981371 5975190 
2244.408 5964843 5953321 5944453 5940086 5941228 5947476 5957251 5968807 
2248.265 5981035 5993297 6005626 6017855 6029412 6039995 6048933 6055888 
2252.123 6061936 6068387 6076619 6087674 6100947 6114623 6126486 6134383 
2255.980 6137004 6134719 6128502 6119361 6108104 6094797 6078433 6058878 
2259.837 6036031 6011169 5986511 5964608 5947208 5935686 5930177 5929808 
2263.695 5933939 5941699 5952213 5965045 5978549 5991113 6000856 6006096 
2267.552 6005693 5999848 5989769 5976937 5963130 5950197 5938944 5930379 
2271.410 5924669 5921444 5920436 5920705 5921209 5921578 5921478 5921646 
2275.267 5923291 5928061 5936795 5949559 5965213 5981539 5996186 6007877 
2279.125 6015738 6021047 6025011 6029412 6035460 6043590 6053569 6064724 
2282.982 6076350 6087842 6098225 6106827 6112070 6113245 6109616 6101484 
2286.839 6090026 6077425 6065766 6056795 6050882 6047891 6046648 6046480 
2290.697 6046749 6047757 6049907 6053805 6059382 6066136 6073259 6080047 
2294.554 6086263 6092513 6099300 6107197 6116169 6125377 6132971 6137307 
2298.412 6136634 6130418 6118790 6102829 6084146 6064456 6045338 6028270 
2302.269 6014529 6004753 5999277 5997563 5998571 6000587 6002031 6001292 
2306.126 5997664 5990844 5981438 5970083 5957554 5944520 5931252 5918253 
2309.984 5905523 5893499 5882416 5872306 5862970 5854473 5846749 5840133 
2313.841 5835129 5832174 5831066 5831066 5830495 5827372 5819950 5807156 
2317.699 5789359 5768440 5747019 5728082 5714317 5706965 5706025 5710087 
2321.556 5716231 5720931 5719689 5708509 5683969 5644860 5591894 5528229 
2325.414 5459104 5390325 5327260 5273662 5231002 5198139 5172855 5152570 
2329.271 5135504 5121522 5111733 5107207 5108715 5115421 5125579 5136811 
2333.128 5147808 5158337 5169670 5183284 5200519 5221411 5244450 5266585 
2336.986 5285367 5298313 5305256 5307269 5306699 5306430 5308711 5314950 
2340.843 5325381 5339168 5354867 5370097 5382979 5391768 5396129 5397740 
2344.701 5400658 5411058 5435013 5477961 5541988 5625190 5721502 5822939 
2348.558 5920201 6004081 6067815 6107399 6122251 6115329 6092781 6062607 
2352.416 6032201 6007407 5990643 5981539 5977239 5974618 5971226 5966086 
2356.273 5959905 5954564 5952011 5953220 5958830 5968102 5979893 5993162 
2360.130 6006970 6021248 6036602 6053838 6074166 6098393 6127157 6159991 
2363.988 6196322 6234740 6273666 6311956 6348603 6383638 6417869 6452204 
2367.845 6487584 6524750 6562962 6601413 6638891 6674219 6706992 6737783 
2371.703 6767263 6796914 6827677 6860967 6897256 6937218 6981459 7030588 
2375.560 7084875 7144356 7208326 7275910 7345999 7417751 7490458 7564594 
2379.417 7640496 7718603 7799019 7881103 7964045 8046599 8127851 8207262 
2383.275 8284560 8359608 8432001 8500891 8564859 8622549 8672506 8714288 
2387.132 8748230 8775615 8797964 8816697 8833130 8847772 8860691 8871613 
2390.990 8880237 8886391 8889774 8890585 8888860 8884938 8879120 8871918 
2394.847 8863936 8855888 8848583 8842767 8839386 8839251 8843342 8852676 
2398.705 8868265 8890247 8918826 8953088 8991649 9032954 9075278 9117538 
2402.562 9159363 9201259 9244175 9289430 9338246 9391400 9449031 9510462 
2406.419 9574816 9640635 9707041 9773558 9840831 9910014 9982596 10060041 
2410.277 10143232 10231459 10323301 10416384 10508196 10596362 10679791 
2413.652 10757734 10830222 10897352 10959092 11015231 11065532 11109890 
2417.027 11148780 11182845 11212968 11239455 11262408 11281246 11295189 
2420.403 11303726 11307024 11306106 11302433 11297774 11293727 11291075 
2423.778 11290259 11291313 11294407 11299985 11309609 11324198 11345522 
2427.153 11374195 11411033 11455835 11508126 11567400 11632944 11704521 
2430.528 11781798 11864433 11952057 12043991 12139726 12238380 12339476 
2433.904 12443050 12549105 12658563 12772314 12891215 13015850 13146053 
2437.279 13281045 13419256 13559049 13699332 13839763 13981027 14124492 
2440.654 14271635 14423760 14581010 14742909 14908915 15078279 15251002 
2444.029 15427435 15608574 15794430 15984660 16177932 16371978 16565148 
2447.405 16755959 16943958 17129454 17313066 17495062 17675342 17853626 
2450.780 18029494 18203014 18374254 18543316 18709916 18872844 19029740 
2454.155 19178244 19315954 19441338 19553968 19653870 19741484 19816632 
2457.530 19878264 19924918 19954684 19966618 19960096 19935534 19893250 
2460.906 19833556 19756984 19663752 19555008 19433022 19300954 19162626 
2464.281 19021708 18880596 18740464 18601552 18463790 18328010 18196588 
2467.656 18073428 17963116 17870334 17798250 17748062 17718724 17708506 
2471.031 17714098 17732908 17762248 17800356 17845614 17896990 17953482 
2474.406 18014434 18079612 18148564 18220464 18294276 18367758 18438622 
2477.782 18504416 18563236 18614072 18657062 18692414 18720710 18742022 
2481.157 18755858 18761394 18758212 18746138 18725864 18698224 18664984 
2484.532 18627354 18586438 18543316 18499056 18454422 18410516 18367516 
2487.907 18325278 18282838 18238674 18190992 18138684 18081408 18019444 
2491.283 17953964 17885906 17815408 17742676 17666334 17585142 17497822 
2494.658 17403656 17302204 17194190 17080376 16961840 16840028 16716082 
2498.033 16591206 16466092 16340669 16214527 16086666 15956026 15821232 
2501.408 15682425 15540230 15396056 15252204 15111144 14975240 14846373 
2504.784 14725839 14614351 14512210 14419033 14333992 14255645 14182857 
2508.159 14113778 14047312 13982634 13919541 13857756 13797451 13738420 
2511.534 13680628 13624312 13570228 13519943 13475372 13437642 13407773 
2514.909 13384844 13367007 13351255 13335162 13317225 13297477 13277560 
2518.285 13260205 13247839 13242305 13244116 13252622 13266457 13284187 
2521.660 13304447 13326244 13348692 13371107 13392600 13412660 13431012 
2525.035 13448031 13464333 13481046 13498512 13516764 13534984 13552007 
2528.410 13566365 13577304 13583902 13586364 13584654 13578842 13569305 
2531.786 13556246 13540145 13521755 13501896 13481353 13460813 13440238 
2535.161 13419495 13398444 13377634 13357576 13339433 13324297 13312339 
2538.536 13303285 13296042 13289277 13282103 13274588 13267447 13262290 
2541.911 13260582 13263212 13269804 13279097 13289073 13297614 13303080 
2545.287 13304412 13301304 13294266 13284016 13272162 13260068 13249274 
2548.662 13241281 13236806 13235712 13237113 13239368 13240939 13240563 
2552.037 13237898 13233322 13227890 13222834 13218770 13215832 13213646 
2555.412 13211153 13207566 13202271 13195167 13186423 13176621 13165828 
2558.788 13154455 13142535 13129968 13116683 13102306 13086666 13068774 
2562.163 13048832 13026468 13002296 12976862 12951497 12926850 12903639 
2565.538 12881556 12860121 12838552 12816301 12793437 12770950 12750305 
2568.913 12733007 12720451 12713627 12712331 12716425 12724579 12735873 
2572.289 12748770 12762282 12775283 12787227 12798180 12808520 12818689 
2575.664 12829440 12841078 12853330 12865890 12878347 12890157 12902206 
2579.039 12915381 12931288 12951292 12976076 13005266 13037633 13071710 
2582.414 13105858 13138983 13171088 13202443 13233834 13265842 13298878 
2585.790 13333078 13368374 13404801 13442460 13481593 13522302 13564382 
2589.165 13607355 13650469 13693108 13734657 13774980 13814348 13853138 
2592.540 13891863 13931037 13970693 14010831 14051282 14091223 14129900 
2595.915 14166425 14200180 14230890 14259240 14286667 14314678 14345123 
2599.291 14379233 14417149 14458117 14500905 14544244 14587554 14630868 
2602.666 14675112 14721417 14770333 14821962 14875346 14929422 14983128 
2606.041 15036155 15088913 15142776 15199151 15259273 15323833 15392863 
2609.416 15465510 15540917 15617917 15695412 15772128 15846971 15918525 
2612.792 15985521 16047059 16103137 16154168 16201181 16245380 16287861 
2616.167 16329110 16369157 16407454 16443448 16476382 16506083 16532551 
2619.542 16556198 16577506 16597265 16616130 16635031 16654827 16676277 
2622.917 16699966 16726103 16754787 16785472 16817640 16850568 16883704 
2626.292 16916708 16949160 16980928 17012042 17042262 17071864 17100986 
2629.668 17130076 17159648 17190430 17223388 17258898 17297652 17339480 
2633.043 17384344 17431594 17480332 17529870 17579346 17627894 17674858 
2636.418 17720104 17763146 17804154 17843440 17881624 17919156 17957244 
2639.793 17996476 18038026 18081788 18127938 18175582 18223574 18270984 
2643.169 18317086 18361466 18404952 18448614 18493628 18541208 18591868 
2646.544 18645442 18701340 18758384 18815748 18873052 18930224 18987716 
2649.919 19046392 19106774 19169032 19233274 19299048 19365770 19432848 
2653.294 19499832 19566724 19633590 19700744 19768462 19837128 19906846 
2656.670 19977894 20050444 20124570 20200580 20278480 20358200 20439636 
2660.045 20522128 20604916 20687094 20768000 20846664 20923114 20996972 
2663.420 21068648 21138424 21206784 21274078 21340896 21407618 21474734 
2666.795 21542694 21612200 21683316 21756154 21830606 21906358 21982960 
2670.171 22060170 22137708 22215538 22293694 22371970 22450472 22529090 
2673.546 22607932 22687242 22767160 22847932 22929066 23010358 23091140 
2676.921 23170678 23248484 23324590 23399242 23473484 23548230 23624530 
2680.296 23703326 23785216 23870588 23960108 24053814 24152410 24255898 
2683.672 24364386 24477774 24595856 24718740 24846326 24979108 25117512 
2687.047 25261686 25411562 25566374 25724828 25885908 26048314 26211098 
2690.422 26374222 26537868 26702562 26868904 27037778 27209716 27385322 
2693.797 27565024 27749074 27937654 28130488 28327262 28527416 28730494 
2697.173 28936466 29145264 29357174 29572276 29790180 30010218 30231574 
2700.548 30453364 30674840 30895750 31116208 31336206 31555638 31773970 
2703.923 31990200 32203004 32411128 32613460 32809206 32997814 33178390 
2707.298 33350378 33512630 33664412 33805044 33934572 34053176 34161848 
2710.674 34261148 34351904 34434608 34509688 34577244 34637348 34689776 
2714.049 34734284 34769888 34795736 34810384 34812824 34802880 34780660 
2717.424 34747240 34704132 34652924 34595400 34532648 34465816 34396160 
2720.799 34324688 34252904 34182636 34115788 34054216 33999564 33953380 
2724.175 33916552 33889896 33873956 33868512 33873172 33887140 33909780 
2727.550 33940592 33979356 34026836 34083384 34150088 34226948 34313928 
2730.925 34409644 34512772 34621380 34733852 34849048 34966140 35084880 
2734.300 35205020 35326200 35447592 35568516 35687856 35804600 35917812 
2737.676 36026876 36131580 36232056 36328840 36423020 36515380 36607224 
2741.051 36699012 36791072 36883584 36976404 37069572 37163800 37259968 
2744.426 37359116 37462368 37570704 37683980 37801588 37922624 38045324 
2747.801 38167984 38289196 38407076 38520064 38626924 38726208 38817284 
2751.177 38899752 38973980 39040964 39101216 39155856 39204668 39247860 
2754.552 39284492 39314308 39336688 39351560 39359216 39359944 39354208 
2757.927 39341728 39321964 39293924 39256092 39207024 39145412 39070292 
2761.302 38981008 38877760 38761308 38632576 38493240 38344784 38188860 
2764.677 38027168 37861160 37692436 37522692 37353592 37187048 37024824 
2768.053 36868796 36720464 36581380 36452892 36335760 36230576 36137736 
2771.428 36057336 35989008 35932280 35886644 35851160 35825072 35806864 
2774.803 35795280 35788444 35783948 35779736 35773548 35763184 35746960 
2778.178 35723288 35690840 35648540 35595308 35530756 35454892 35368580 
2781.554 35273368 35171428 35065340 34957124 34848832 34741608 34636340 
2784.929 34533436 34433352 34336340 34242432 34151380 34062384 33973908 
2788.304 33884812 33793440 33699148 33601296 33500030 33395890 33289202 
2791.679 33180460 33070214 32958992 32847832 32738100 32631498 32529746 
2795.055 32434586 32347050 32267812 32197044 32134886 32081160 32035712 
2798.430 31998332 31968694 31946224 31930532 31920906 31917088 31918872 
2801.805 31926360 31939376 31957566 31980534 32007604 32037426 32069564 
2805.180 32102990 32137528 32172244 32206964 32240260 32271414 32299220 
2808.556 32323062 32342554 32357760 32368824 32375824 32378748 32377000 
2811.931 32369576 32355618 32334306 32305144 32268242 32223880 32172638 
2815.306 32115552 32053798 31988882 31922828 31858076 31797462 31743884 
2818.681 31700574 31670210 31655166 31657450 31678226 31718004 31776574 
2822.057 31852834 31945296 32051944 32170356 32297686 32431088 32567744 
2825.432 32704622 32838866 32968036 33089988 33202854 33305622 33397500 
2828.807 33477162 33544376 33598252 33638420 33664772 33678092 33679700 
2832.182 33671576 33655856 33634268 33608348 33579456 33548460 33516492 
2835.558 33484674 33454184 33425842 33400148 33376820 33355244 33334922 
2838.933 33315744 33298786 33285696 33278790 33280830 33294208 33320754 
2842.308 33362362 33420798 33498670 33599324 33726936 33885672 34079264 
2845.683 34309624 34576956 34878344 35208292 35557584 35913672 36261840 
2849.059 36584476 36863564 37082308 37226824 37288344 37264228 37158496 
2852.434 36980556 36744156 36466116 36162944 35850908 35544496 35254320 
2855.809 34988692 34752372 34547068 34371916 34224404 34101272 33998208 
2859.184 33911284 33836564 33770084 33708348 33647908 33585864 33520218 
2862.560 33450176 33375926 33298716 33220448 33143234 33069640 33001638 
2865.935 32942050 32893866 32860308 32844548 32849192 32876034 32925286 
2869.310 32996062 33086162 33192444 33311236 33438224 33568716 33697644 
2872.685 33819940 33931168 34028376 34110376 34177904 34233936 34282016 
2876.061 34325764 34368008 34410576 34454192 34499104 34545384 34593640 
2879.436 34644952 34700652 34761888 34829268 34902976 34982480 35067136 
2882.811 35155908 35247424 35340144 35431632 35518820 35598332 35667352 
2886.186 35723612 35766460 35796936 35817480 35832196 35845332 35861780 
2889.562 35886252 35922384 35974536 36046860 36144076 36272288 36439380 
2892.937 36654124 36927448 37270872 37695616 38211400 38824420 39534688 
2896.312 40333808 41203760 42115140 43025512 43887204 44646012 45248960 
2899.687 45653900 45831864 45773212 45488156 45005192 44366728 43618628 
2903.063 42809644 41982856 41171668 40402676 39693276 39054196 38491680 
2906.438 38008072 37602964 37273940 37017536 36829696 36706440 36644572 
2909.813 36641688 36695620 36804160 36964392 37171816 37420908 37704436 
2913.188 38013604 38338704 38668468 38990328 39292000 39561328 39787896 
2916.563 39965212 40090420 40164916 40193340 40182180 40138096 40066436 
2919.939 39970480 39851740 39710268 39545976 39359216 39152232 38929036 
2923.314 38695020 38457432 38223920 38001780 37797720 37616984 37462764 
2926.689 37336800 37239064 37168312 37122296 37098188 37092592 37101292 
2930.064 37119840 37143156 37165856 37183184 37190584 37184300 37161564 
2933.440 37119948 37057588 36973372 36866884 36738960 36591256 36427452 
2936.815 36251684 36068928 35884160 35701740 35525400 35358336 35203188 
2940.190 35062680 34939604 34836228 34754096 34693832 34653744 34630816 
2943.565 34618724 34610148 34595364 34564076 34506312 34413876 34281048 
2946.941 34106252 33892192 33645976 33377070 33097136 32817564 32548246 
2950.316 32296472 32066818 31861570 31680760 31523288 31387384 31270612 
2953.691 31170814 31085418 31011750 30947448 30890488 30838476 30790172 
2957.066 30744292 30700336 30658376 30618978 30583250 30552356 30527222 
2960.442 30508348 30495800 30489048 30487162 30489546 30495978 30506678 
2963.817 30522566 30544570 30573508 30609734 30652900 30702506 30757734 
2967.192 30818164 30883372 30953496 31028938 31110370 31198510 31294186 
2970.567 31398248 31511494 31634710 31768088 31911206 32062930 32221310 
2973.943 32383210 32544530 32700370 32844332 32969468 33068676 33134722 
2977.318 33162042 33147168 33089702 32992166 32859952 32700766 32523390 
2980.693 32336806 32149802 31969796 31802670 31652528 31521148 31407546 
2984.068 31308998 31220728 31136782 31051252 30959618 30858932 30748344 
2987.444 30628722 30502234 30370880 30236298 30098776 29956998 29808526 
2990.819 29650136 29479180 29293650 29093604 28880972 28659950 28436064 
2994.194 28215056 28001898 27799654 27609300 27429366 27257094 27089652 
2997.569 26924354 26759928 26596480 26434434 26275052 26118754 25965820 
3000.945 25815786 25668442 25523678 25381946 25243984 25110630 24982442 
3004.320 24859800 24742346 24629624 24521420 24418150 24320404 24229444 
3007.695 24146244 24071360 24004612 23944984 23890682 23839644 23789486 
3011.070 23738634 23685794 23630722 23573908 23516400 23459704 23405010 
3014.446 23353328 23305152 23260404 23219050 23180780 23145760 23114308 
3017.821 23086912 23064060 23045890 23031986 23021502 23013574 23007354 
3021.196 23002148 22997536 22993450 22989886 22986742 22983982 22981816 
3024.571 22980698 22981432 22985764 22995510 23012280 23037330 23070664 
3027.947 23110918 23155650 23201366 23244080 23280226 23306970 23322948 
3031.322 23327806 23322806 23309696 23290644 23267256 23240968 23212480 
3034.697 23182352 23151352 23120352 23090302 23062138 23036352 23012908 
3038.072 22991248 22970566 22950654 22931756 22914852 22901474 22892706 
3041.448 22889458 22891344 22897282 22905874 22915864 22926868 22938988 
3044.823 22952856 22969204 22988314 23009696 23032544 23055988 23079260 
3048.198 23102112 23124720 23147542 23170818 23194514 23218352 23242018 
3051.573 23265578 23289244 23313856 23340042 23368050 23397562 23427950 
3054.948 23458234 23487790 23516680 23545186 23574640 23606162 23640798 
3058.324 23679076 23721068 23766002 23813286 23861590 23909866 23957202 
3061.699 24002932 24047126 24090342 24134054 24179838 24229444 24284208 
3065.074 24344200 24408862 24476582 24545612 24614126 24680862 24744908 
3068.449 24805840 24863202 24916922 24966860 25013118 25056396 25097782 
3071.825 25138542 25179936 25222564 25266532 25310958 25354864 25397404 
3075.200 25438332 25477928 25517316 25557518 25599974 25645136 25693190 
3078.575 25743812 25796236 25849440 25902650 25954880 26005534 26054576 
3081.950 26102076 26149192 26196702 26245662 26296876 26350140 26404820 
3085.326 26459824 26514200 26567384 26619662 26672048 26725712 26781918 
3088.701 26841200 26903660 26968950 27036474 27105734 27176628 27249122 
3092.076 27323110 27398414 27474406 27550302 27625824 27700548 27775352 
3095.451 27850986 27928890 28009462 28093194 28179134 28266010 28352304 
3098.827 28437162 28519490 28599676 28678318 28756514 28835220 28915430 
3102.202 28997246 29080530 29164540 29248070 29330340 29410816 29489464 
3105.577 29567060 29644886 29724144 29806006 29891188 29979648 30070720 
3108.952 30163198 30256156 30348424 30439324 30528360 30615424 30700940 
3112.328 30785086 30868536 30951896 31035628 31120018 31205026 31290158 
3115.703 31375096 31459230 31542454 31625304 31708382 31792722 31879220 
3119.078 31968086 32059114 32151480 32244436 32336946 32428622 32519388 
3122.453 32609280 32698550 32787550 32876034 32963994 33051264 33138010 
3125.829 33224240 33310592 33397608 33485930 33575916 33667852 33761776 
3129.204 33857660 33955064 34053428 34152240 34250752 34348176 34444364 
3132.579 34539000 34632504 34725236 34817636 34909908 35002236 35094472 
3135.954 35186736 35278904 35371452 35464848 35559708 35656524 35755592 
3139.330 35856776 35959852 36064140 36168992 36273764 36378412 36482732 
3142.705 36586752 36690684 36794568 36898268 37001480 37103528 37204012 
3146.080 37302536 37399344 37494660 37589600 37685024 37782248 37881696 
3149.455 37983628 38087784 38194072 38301864 38410952 38521368 38633228 
3152.831 38746344 38860512 38975100 39089616 39203360 39315792 39426916 
3156.206 39536464 39644192 39749844 39853012 39953736 40051936 40148420 
3159.581 40243720 40339300 40436060 40534772 40635616 40738632 40843344 
3162.956 40949360 41056348 41163760 41271344 41378596 41484556 41588832 
3166.332 41690832 41790340 41887536 41982856 42076844 42170088 42263132 
3169.707 42356452 42450304 42544728 42639640 42734360 42828436 42921004 
3173.082 43011500 43099968 43186440 43271648 43355852 43439412 43522068 
3176.457 43603276 43682376 43759328 43834824 43910228 43987180 44066752 
3179.833 44149308 44233792 44318436 44401116 44480136 44554808 44625820 
3183.208 44694232 44761596 44829184 44897372 44966272 45035584 45105312 
3186.583 45175568 45246572 45318796 45392028 45466192 45540740 45615772 
3189.958 45691300 45768276 45847404 45929160 46013212 46098644 46183804 
3193.333 46267060 46346940 46422964 46494980 46563432 46628980 46692324 
3196.709 46753792 46814204 46874068 46934236 46995376 47058216 47122544 
3200.084 47188440 47255376 47322724 47390344 47458128 47525728 47592792 
3203.459 47658420 47721952 47782388 47839536 47893696 47945900 47997412 
3206.834 48049372 48102596 48157564 48213840 48271748 48331224 48392332 
3210.210 48455044 48518988 48582872 48645092 48704544 48760144 48812712 
3213.585 48863548 48914612 48967940 49024764 49084824 49147224 49210680 
3216.960 49273808 49335756 49396676 49457120 49517720 49579072 49641288 
3220.335 49704368 49768124 49832820 49898604 49965400 50033248 50101292 
3223.711 50169052 50235516 50300840 50365020 50428764 50492924 50558136 
3227.086 50624104 50690604 50756552 50821208 50884236 50945668 51006220 
3230.461 51067112 51129204 51193768 51261176 51331652 51404668 51479308 
3233.836 51554184 51628028 51699944 51769592 51837800 51905752 51974912 
3237.212 52046364 52120364 52196060 52272444 52348276 52422816 52496656 
3240.587 52570776 52646732 52725592 52807232 52890792 52974744 53057704 
3243.962 53138692 53218048 53297048 53376620 53458004 53541468 53626596 
3247.337 53712564 53798856 53885120 53971704 54059280 54148380 54239032 
3250.713 54330828 54422540 54512984 54601160 54686572 54768880 54848536 
3254.088 54926212 55002776 55078940 55155676 55233560 55313036 55394036 
3257.463 55475988 55558072 55639116 55718252 55794764 55868428 55939312 
3260.838 56008064 56074976 56140620 56205216 56268804 56331568 56393100 
3264.214 56452904 56510752 56565816 56617980 56667432 56714776 56761068 
3267.589 56807556 56855180 56904696 56955956 57008960 57062688 57116876 
3270.964 57170544 57223084 57273968 57322512 57368340 57411220 57451424 
3274.339 57489812 57527184 57564864 57603220 57642492 57682412 57722452 
3277.715 57762456 57802576 57843116 57884644 57927160 57970100 58012320 
3281.090 58052728 58090528 58126132 58160564 58195796 58233872 58276200 
3284.465 58323340 58375184 58430408 58488368 58547968 58608412 58669128 
3287.840 58730116 58790740 58851252 58911664 58972760 59035616 59101440 
3291.216 59171036 59245008 59323284 59405072 59489952 59577700 59667780 
3294.591 59760508 59855572 59952752 60051856 60152844 60255608 60361444 
3297.966 60471380 60586444 60707340 60833368 60963172 61094848 61226560 
3301.341 61357704 61488428 61619956 61754084 61892264 62035688 62184240 
3304.717 62337936 62496160 62658652 62825068 62995500 63170096 63349368 
3308.092 63533732 63723588 63919240 64120480 64326420 64535500 64745516 
3311.467 64954564 65161980 65368412 65576532 65790100 66012456 66246084 
3314.842 66491076 66745744 67006396 67269768 67532744 67793648 68052064 
3318.218 68308032 68562104 68814496 69065520 69315328 69564896 69815184 
3321.593 70067104 70320912 70575808 70829920 71081456 71328680 71571040 
3324.968 71809240 72044512 72277528 72508600 72736224 72958640 73174304 
3328.343 73381888 73581856 73774712 73961432 74141984 74315744 74480752 
3331.719 74635912 74779624 74911576 75031760 75139872 75234632 75314416 
3335.094 75377168 75421584 75447920 75457776 75454112 75439248 75414808 
3338.469 75380352 75334160 75273792 75196888 75102696 74991040 74862872 
3341.844 74719008 74559856 74384632 74192960 73983944 73757784 73514704 
3345.219 73255848 72981576 72692240 72387904 72068528 71734816 71388072 
3348.595 71030176 70663336 70289672 69910416 69526512 69138280 68745744 
3351.970 68349104 67948520 67544512 67137480 66728040 66317260 65906508 
3355.345 65497808 65093228 64694948 64304328 63922428 63549228 63184812 
3358.720 62829012 62481924 62143640 61814132 61492740 61178456 60869352 
3362.096 60564392 60262232 59963100 59667860 59378100 59095404 58821316 
3365.471 58556844 58302952 58059776 57827632 57606024 57394280 57190804 
3368.846 56993356 56799772 56607600 56414684 56220072 56022504 55821436 
3372.221 55616140 55406608 55192848 54976600 54759408 54543976 54331768 
3375.597 54123008 53915956 53707468 53492744 53268616 53032508 52784628 
3378.972 52526384 52260220 51988168 51710952 51428168 51138412 50840504 
3382.347 50533604 50217476 49892880 49560612 49221148 48875044 48522808 
3385.722 48165008 47802696 47437168 47069812 46701176 46331864 45961568 
3389.098 45590528 45218732 44847112 44476872 44109296 43745180 43385472 
3392.473 43030340 42679996 42334864 41995228 41661036 41332092 41007764 
3395.848 40687064 40369404 40055244 39745196 39440196 39140848 38846376 
3399.223 38554648 38262708 37967608 37667824 37363916 37058600 36755944 
3402.599 36459056 36169896 35887724 35610484 35334720 35057760 34778544 
3405.974 34497564 34216404 33936972 33659688 33384692 33110618 32836076 
3409.349 32560352 32283730 32007496 31733330 31462900 31197194 30936632 
3412.724 30681490 30431292 30186356 29946988 29713678 29486806 29266748 
3416.100 29053288 28846022 28643490 28444096 28245502 28045088 27841022 
3419.475 27632604 27421178 27209964 27003186 26805566 26620050 26447464 
3422.850 26285858 26131528 25979680 25826582 25670024 25509586 25346328 
3426.225 25182078 25018276 24856114 24696012 24538670 24384644 24234594 
3429.601 24089082 23947750 23809086 23671274 23531370 23388470 23242050 
3432.976 23094074 22947546 22805956 22671288 22544934 22425942 22312460 
3436.351 22202252 22093532 21985540 21878062 21771550 21665902 21560452 
3439.726 21453880 21344586 21231210 21113240 20990920 20865784 20739430 
3443.102 20613394 20488576 20365040 20242132 20118668 19993922 19867998 
3446.477 19742524 19619516 19502120 19392794 19292538 19200962 19115498 
3449.852 19032510 18948188 18859418 18764508 18663426 18557596 18449236 
3453.227 18340416 18232904 18127558 18024554 17923576 17824416 17726524 
3456.603 17629928 17534286 17439698 17345824 17252554 17159648 17066936 
3459.978 16973898 16879880 16784130 16686296 16586145 16484745 16383264 
3463.353 16283562 16187150 16094919 16006490 15920863 15836215 15751239 
3466.728 15665147 15578522 15491984 15407179 15324621 15245168 15167721 
3470.104 15091349 15014785 14937242 14858545 14778868 14699070 14619799 
3473.479 14541915 14465927 14391495 14318479 14246366 14174641 14103065 
3476.854 14032151 13962343 13894908 13830801 13770431 13713729 13659257 
3480.229 13605509 13551460 13496290 13441093 13387919 13339159 13296486 
3483.604 13260171 13228402 13198275 13166101 13128875 13084822 13033844 
3486.980 12977510 12917771 12856914 12797225 12740684 12689198 12644713 
3490.355 12609066 12582974 12566090 12555790 12548559 12540272 12527347 
3493.730 12508249 12483764 12456348 12429752 12407114 12391260 12383418 
3497.105 12383828 12392419 12409023 12433605 12465043 12502043 12541977 
3500.481 12581575 12617799 12648909 12675382 12699706 12725466 12757096 
3503.856 12797498 12848108 12908077 12975905 13048867 13124777 13202101 
3507.231 13279370 13355799 13431353 13505929 13580518 13656657 13736436 
3510.606 13821907 13913827 14011995 14114737 14219763 14324575 14427459 
3513.982 14528244 14627236 14725839 14824704 14924004 15022949 15120510 
3517.357 15214867 15304851 15389361 15467056 15536487 15596039 15643610 
3520.732 15677376 15696235 15699672 15688540 15664184 15628289 15582334 
3524.107 15527078 15463004 15389225 15305126 15208759 15099411 14975891 
3527.483 14838384 14687759 14526291 14356321 14180872 14002071 13821462 
3530.858 13639630 13456575 13271821 13084413 12893809 12698888 12499451 
3534.233 12295162 12086643 11875534 11665004 11458216 11258838 11068999 
3537.608 10889164 10717928 10552770 10391168 10231357 10072928 9916895 
3540.984 9764781 9618107 9477036 9340310 9205727 9070440 8931746 8788328 
3544.841 8639955 8488119 8335660 8186530 8044978 7915485 7800807 7701976 
3548.698 7617397 7542780 7471884 7398405 7316749 7224699 7122934 7015771 
3552.556 6908938 6808121 6716986 6636300 6563904 6496531 6430783 6364506 
3556.413 6296761 6227816 6157773 6086968 6014159 5938642 5859410 5777439 
3560.271 5694711 5614986 5541988 5479169 5427599 5386803 5353324 5322765 
3564.128 5289190 5246932 5192069 5122361 5038853 4945742 4850306 4760452 
3567.986 4682875 4621419 4575743 4542025 4514771 4488389 4458327 4422342 
3571.843 4380502 4335053 4288838 4244703 4204051 4167318 4132995 4098978 
3575.700 4063323 4024662 3982861 3938790 3893921 3849893 3808242 3769202 
3579.558 3732907 3698486 3665003 3632090 3599915 3569948 3544024 3524282 
3583.415 3512257 3507714 3508349 3510085 3507113 3493251 3464025 3417837 
3587.273 3356994 3287712 3218876 3158662 3113140 3084774 3072627 3072694 
3591.130 3079568 3087477 3090213 3083005 3063217 3029950 2985509 2933567 
3594.988 2879362 2827532 2781445 2742330 2709888 2682349 2657812 2634943 
3598.845 2613875 2595808 2582342 2575109 2574409 2579243 2587742 2597275 
3602.702 2605975 2612575 2616509 2618309 2618175 2615809 2610675 2601275 
3606.560 2586875 2566810 2542080 2514951 2487791 2463398 2443238 2427278 
3610.417 2413984 2400956 2385663 2365741 2340122 2309142 2274634 2239429 
3614.275 2207523 2182480 2167095 2162100 2166429 2176586 2186976 2190705 
3618.132 2182780 2160003 2124241 2080990 2038843 2005189 1985050 1979092 
3621.990 1984817 1997666 2013544 2029855 2046267 2064444 2086118 2112387 
3625.847 2141156 2167728 2184212 2181381 2152077 2093942 2013011 1922211 
3629.704 1838584 1774602 1736110 1722205 1727760 1745824 1769944 1794198 
3633.562 1814327 1826905 1830798 1825507 1812364 1793466 1771241 1749617 
3637.419 1731220 1719244 1715452 1720043 1731453 1746889 1762891 1776199 
3641.277 1784682 1788342 1788608 1789008 1792701 1802616 1819951 1843941 
3645.134 1871960 1900446 1924874 1940516 1943511 1930498 1899314 1849864 
3648.991 1784449 1709032 1632630 1566982 1522856 1508027 1524153 1567414 
3652.849 1629071 1697223 1759265 1803580 1821381 1809303 1770909 1716949 
3656.706 1660967 1616699 1592621 1591091 1608651 1638417 1672875 1704541 
3660.564 1727993 1740568 1742098 1735212 1723735 1712525 1706204 1708699 
3664.421 1722837 1749916 1789573 1840181 1897883 1956891 2009516 2047599 
3668.279 2064244 2056987 2030488 1998598 1983120 2004523 2077761 2205925 
3672.136 2381499 2588875 2807289 3014802 3185697 3295057 3324539 3268316 
3675.993 3138036 2957485 2753467 2545812 2347051 2164465 2003291 1868599 
3679.851 1764954 1693597 1651521 1631066 1623284 1619559 1615335 1610580 
3683.708 1609515 1617198 1637286 1669416 1708367 1746190 1772838 1780191 
3687.566 1764621 1727827 1677764 1624149 1575894 1538118 1511086 1492466 
3691.423 1479234 1469060 1460649 1453967 1449146 1446187 1445323 1446586 
3695.281 1451241 1460416 1476275 1500014 1531767 1569243 1608351 1644137 
3699.138 1670580 1683319 1679461 1659204 1626044 1585704 1545667 1512449 
3702.995 1490937 1482957 1488310 1504336 1527611 1554478 1582013 1607886 
3706.853 1631299 1652452 1672176 1691169 1709431 1725099 1735478 1736210 
3710.710 1724134 1697888 1660269 1617298 1577124 1547928 1534427 1537886 
3714.568 1555875 1583509 1614970 1644703 1668750 1684749 1692433 1692832 
3718.425 1687810 1679627 1670081 1660734 1652818 1647696 1646166 1648893 
3722.282 1655313 1663927 1671910 1676068 1673174 1661100 1639847 1611976 
3726.140 1583077 1560165 1550688 1559932 1589462 1636521 1694861 1756171 
3729.997 1810934 1852127 1875454 1881444 1874622 1862210 1850397 1841080 
3733.855 1831663 1816390 1789374 1748419 1696924 1643273 1597876 1568811 
3737.712 1559034 1567347 1590825 1626776 1674272 1733482 1804279 1883440 
3741.570 1963781 2032718 2073799 2072168 2018670 1920514 1801318 1696425 
3745.427 1634525 1626044 1663927 1730721 1807141 1875354 1922710 1942080 
3749.284 1931563 1894688 1837586 1768347 1694562 1624880 1567979 1532133 
3753.142 1522756 1540812 1581913 1637851 1698221 1753875 1797126 1824043 
3756.999 1834025 1829600 1814327 1792268 1767515 1743562 1724168 1713090 
3760.857 1712658 1723003 1741100 1761527 1777995 1785082 1780623 1766983 
3764.714 1750349 1739038 1740102 1756403 1785215 1819318 1848899 1865704 
3768.572 1863873 1842377 1804878 1758799 1712857 1674471 1648794 1637785 
3772.429 1640978 1656111 1679993 1708600 1738139 1765319 1787544 1803314 
3776.286 1811898 1813562 1808671 1798224 1783485 1766983 1751713 1741300 
3780.144 1738605 1744194 1756237 1770576 1782686 1788342 1785947 1776564 
3784.001 1763889 1752844 1747255 1748585 1755572 1763922 1769245 1768081 
3787.859 1759497 1744926 1727927 1712126 1701315 1697522 1701947 1714454 
3791.716 1734380 1759830 1788375 1816157 1838451 1850896 1850530 1837253 
3795.573 1814827 1790671 1774369 1773737 1792701 1828701 1874589 1918650 
3799.431 1947772 1950867 1921412 1861677 1783618 1706836 1651189 1628140 
3803.288 1639747 1678230 1730555 1781156 1816623 1827437 1810867 1771707 
3807.146 1721972 1676334 1645767 1635290 1643838 1666921 1699751 1738605 
3811.003 1782354 1830365 1881777 1933460 1979858 2012911 2024629 2009449 
3814.861 1967742 1907967 1846703 1802616 1789074 1809536 1856686 1915222 
3818.718 1966377 1993272 1983486 1932994 1849465 1751779 1665324 1610114 
3822.575 1595913 1619459 1668750 1728126 1782786 1823045 1843509 1846104 
3826.433 1836488 1823710 1815825 1817921 1830931 1852460 1878582 1904939 
3830.290 1928235 1946673 1959987 1969007 1974732 1978926 1982654 1987214 
3834.148 1992939 1999530 2004955 2006587 2001094 1985217 1957823 1921013 
3838.005 1879647 1840481 1809736 1791569 1786579 1792801 1806043 1821880 
3841.863 1836454 1846936 1852127 1852859 1850862 1849099 1850696 1858616 
3845.720 1874356 1898715 1930665 1969373 2013411 2062214 2115850 2174321 
3849.577 2236664 2299549 2355546 2393793 2400490 2362176 2272002 2135395 
3853.435 1974698 1821614 1704541 1638018 1620025 1639015 1680525 1733050 
3857.292 1788309 1841346 1890096 1933227 1969706 1998764 2020235 2034516 
3861.150 2042871 2047366 2048930 2047832 2042705 2032618 2017871 2002026 
3865.007 1991042 1991408 2007152 2037678 2076729 2113952 2138059 2139491 
3868.865 2114485 2066841 2008318 1953962 1915156 1895554 1891228 1893657 
3872.722 1894356 1888832 1877450 1866236 1863241 1875387 1905904 1952731 
3876.579 2010049 2068872 2120811 2157871 2173988 2166962 2138525 2095540 
3880.437 2048797 2009915 1989178 1990675 2012212 2045468 2079359 2101566 
3884.294 2102299 2078360 2034416 1982421 1937620 1913026 1914423 1939052 
3888.152 1978892 2023031 2061947 2087549 2096672 2089880 2072501 2051261 
3892.009 2033550 2024695 2027492 2042372 2067940 2102066 2142055 2184678 
3895.866 2226406 2263209 2291255 2307144 2308876 2296518 2272335 2240761 
3899.724 2207423 2177352 2154009 2137959 2127271 2118114 2106594 2089780 
3903.581 2067141 2040807 2014542 1992906 1979425 1975797 1981855 1996234 
3907.439 2016573 2040142 2064611 2087583 2106993 2121277 2129668 2132698 
3911.296 2132232 2131433 2133797 2142521 2159037 2182580 2210154 2236697 
3915.154 2257314 2267439 2264741 2249420 2224575 2195301 2166396 2142854 
3919.011 2128170 2123841 2129635 2143753 2163366 2184678 2203727 2217614 
3922.868 2224075 2223209 2216415 2206591 2197199 2190572 2188208 2190073 
3926.726 2194369 2199597 2204060 2206691 2207357 2205958 2202861 2198032 
3930.583 2191505 2183579 2174821 2166396 2159969 2156906 2158404 2164165 
3934.441 2173156 2183912 2194502 2203627 2210554 2215849 2219879 2224075 
3938.298 2229204 2235898 2243658 2251519 2257713 2260744 2259079 2252251 
3942.156 2241060 2227472 2214217 2204726 2201362 2205325 2216215 2231802 
3946.013 2249154 2264841 2275700 2279863 2277198 2268971 2257314 2244990 
3949.870 2234433 2227439 2224741 2226073 2231069 2238929 2249054 2260511 
3953.728 2272702 2285226 2297051 2307443 2315971 2322000 2325898 2327930 
3957.585 2329362 2330861 2333326 2336958 2341488 2345985 2349217 2350350 
3961.443 2348351 2343520 2336491 2328563 2321501 2316637 2314938 2316604 
3965.300 2321001 2326764 2332660 2337324 2340156 2341488 2342188 2343853 
3969.157 2348484 2356846 2369305 2384897 2401689 2417249 2429510 2436741 
3973.015 2438807 2436208 2430510 2423846 2417749 2413650 2411984 2412651 
3976.872 2415250 2418981 2423346 2428011 2432942 2438207 2444371 2451135 
3980.730 2459033 2467263 2475128 2481459 2485325 2485825 2483159 2477594 
3984.587 2470562 2462965 2455701 2449203 2443105 2436641 2429144 2420447 
3988.445 2411052 2401956 2394826 2390861 2391094 2395525 2403688 2414716 
3992.302 2427178 2439706 2450936 2459266 2463731 2463465 2458833 2450902 
3996.159 2441872 2434408 2430643 2431976 2437840 2446937 2456467 2463631 
4000.017 2466630 2464531 
##END=
