
##TITLE=mdmaHCL00403_8
##JCAMP-DX=5.01  $$ Nicolet v. 1
##DATATYPE=INFRARED SPECTRUM
##ORIGIN=UniL
##OWNER=Nicolet
##LONGDATE=2011/08/23
##TIME=11:35:56
##SPECTROMETER/DATA SYSTEM=Nicolet iS5
##DATA PROCESSING=
Ratio against background
%Transmittance->Absorbance
Truncated
ElementMultiply or ElementDivide
##COMMENTS=
Number of sample scans: 32
Collection length: 51.21 sec
Sample gain: 2.0
Background collected on: Mar Aout 23 11:33:54 2011 (GMT+02:00);
Number of background scans: 32
Background gain: 2.0
Sample spacing:  1.000
Number of scan points: 12415
Resolution points: 8192
Number of FFT points: 65536
Apodization: N-B fort;
Phase correction: Mertz;
Laser frequency: 15798.0 cm-1
Number of rejected sample scans: 0
Number of rejected background scans: 0
Bench serial number: ASB1000141;
##RESOLUTION=4.000
##XUNITS=1/CM
##YUNITS=ABSORBANCE
##FIRSTX=649.893372
##LASTX=4000.122314
##FIRSTY=0.088762
##MAXX=4000.122314
##MINX=649.893372
##MAXY=0.237790
##MINY=0.002668
##XFACTOR=1.000000
##YFACTOR=1.000000E-009
##NPOINTS=6950
##DELTAX=0.482117
##ZPD=6100
##XYDATA=(X++(Y..Y))
649.893 88761624 88198448 87682744 87245744 86896640 86629200 86429472 
653.268 86290448 86215928 86219608 86314384 86503704 86776176 87108496 
656.643 87474832 87855512 88243304 88641232 89053776 89482168 89919672 
660.018 90358912 90797304 91244560 91721728 92254456 92865264 93566064 
663.393 94357176 95234184 96195320 97247408 98396048 99632832 100907128 
666.767 102095168 103011864 103466360 103372904 102812560 101983360 
669.660 101080888 100214880 99415744 98659736 97906336 97125072 96311984 
673.035 95484648 94673312 93900136 93166808 92456640 91744728 91012776 
676.410 90258112 89493368 88737800 88005048 87296944 86602504 85907224 
679.785 85203464 84495368 83798184 83129608 82500752 81910304 81346784 
683.159 80793616 80238768 79680400 79126048 78587968 78075616 77591168 
686.534 77130608 76687016 76256672 75841472 75448744 75085992 74756120 
689.909 74455384 74173944 73902272 73635952 73378200 73138936 72930496 
693.284 72762200 72636344 72550224 72498888 72480840 72499440 72563416 
696.659 72681624 72859528 73096240 73384904 73716200 74084144 74487392 
700.034 74930280 75417168 75947736 76513296 77097448 77679200 78239448 
703.408 78767440 79261320 79725664 80166632 80586464 80982152 81346672 
706.783 81674264 81963048 82217304 82444752 82652872 82846024 83025496 
710.158 83193008 83354920 83526208 83728064 83981704 84301560 84684944 
713.533 85110504 85537936 85920352 86212656 86381968 86415680 86321896 
716.908 86126800 85866768 85588128 85341728 85175368 85136984 85265672 
720.282 85584976 86097904 86779248 87575144 88400040 89152744 89731984 
723.657 90046520 90043624 89716832 89112144 88315416 87437344 86591296 
727.032 85860672 85293456 84897048 84649632 84513240 84450688 84438008 
730.407 84462680 84521288 84612344 84730128 84864736 85005192 85144328 
733.782 85282040 85424208 85578480 85747904 85928592 86109624 86278776 
737.156 86428616 86560032 86682064 86808056 86948856 87108288 87282816 
740.531 87464416 87645728 87823464 87999128 88175056 88351960 88525024 
743.906 88687312 88831288 88955752 89067312 89179392 89305464 89453704 
747.281 89622616 89802224 89978728 90140624 90283896 90412280 90533360 
750.656 90652800 90770632 90881680 90979072 91059768 91128096 91195088 
754.031 91274360 91375392 91499560 91639520 91783368 91920792 92047168 
757.405 92164520 92279656 92399576 92527488 92662808 92803680 92949720 
760.780 93104768 93275872 93468632 93684784 93920080 94166664 94418368 
764.155 94677392 94955368 95274784 95662864 96142608 96729136 97423352 
767.530 98210520 99057592 99915960 100725840 101418688 101936136 102245384 
770.905 102356928 102331888 102275280 102315576 102554176 103032568 
773.797 103700424 104423408 104999512 105214136 104912512 104027008 
776.690 102603064 100768120 98698080 96557856 94456464 92442992 90505656 
780.065 88598776 86665928 84667344 82588392 80440656 78254128 76068720 
783.440 73928824 71873584 69937664 68148808 66524512 65073872 63797988 
786.815 62691836 61747512 60956996 60314768 59818152 59466772 59261452 
790.189 59203276 59294228 59537868 59941492 60515596 61271960 62221484 
793.564 63366884 64699560 66192864 67804064 69472928 71122120 72670536 
796.939 74033288 75132032 75912544 76350360 76464496 76315088 76003040 
800.314 75651688 75375824 75269576 75375552 75673424 76074560 76435808 
803.689 76591480 76371808 75655752 74396424 72635408 70493376 68144696 
807.063 65782084 63556016 61555732 59791460 58207768 56708432 55192660 
810.438 53592560 51883388 50088392 48259716 46464040 44760084 43184720 
813.813 41757216 40479668 39344852 38342652 37462764 36695188 36029360 
817.188 35454208 34959028 34534548 34174892 33876464 33636916 33453934 
820.563 33323436 33240478 33201136 33204104 33251960 33350450 33506796 
823.938 33727076 34014652 34369188 34787016 35262192 35784340 36338212 
827.312 36902596 37447848 37940704 38349960 38652456 38842680 38936864 
830.687 38974088 39007216 39098972 39311948 39693892 40274256 41053144 
834.062 41997128 43033632 44052672 44926880 45513732 45689976 45379484 
837.437 44564576 43297568 41684524 39873420 38014184 36234000 34630168 
840.812 33253394 32117690 31209440 30501026 29959164 29551208 29249594 
844.186 29030438 28873534 28764552 28693184 28654674 28647914 28673292 
847.561 28729894 28814862 28922478 29046840 29183782 29331792 29491910 
850.936 29666738 29857786 30064968 30286530 30521110 30769400 31034916 
854.311 31324134 31643800 31999722 32395602 32832682 33312776 33839248 
857.686 34418504 35060780 35778548 36584044 37490576 38511664 39661512 
861.060 40955768 42407708 44021940 45786392 47664596 49592816 51475692 
864.435 53205276 54670788 55773364 56451396 56684800 56504300 55982808 
867.810 55232020 54387760 53581876 52940384 52565424 52522720 52848688 
871.185 53546864 54594284 55941200 57515988 59229400 60965956 62597028 
874.560 63990608 65013908 65563664 65577916 65045424 64008384 62553556 
877.935 60801544 58876636 56900804 54978744 53181680 51554072 50111372 
881.309 48846272 47737708 46759588 45890452 45116856 44436240 43854652 
884.684 43382652 43028912 42796992 42683800 42682116 42783536 42982528 
888.059 43279228 43677540 44183828 44801892 45530656 46362752 47288472 
891.434 48296708 49380600 50539076 51776796 53102932 54526884 56056280 
894.809 57693088 59429768 61242852 63088172 64899044 66577152 68006288 
898.183 69065952 69641080 69654232 69076624 67936704 66312820 64323536 
901.558 62113512 59821196 57576928 55488640 53628544 52043004 50750632 
904.933 49748468 49019832 48540556 48286600 48236016 48372924 48688232 
908.308 49177656 49839992 50675188 51682884 52862084 54209940 55719872 
911.683 57379532 59166936 61044888 62965848 64870148 66694356 68385872 
915.058 69907728 71248792 72424624 73475696 74460176 75438848 76470544 
918.432 77595608 78824920 80133592 81457216 82700696 83740440 84455960 
921.807 84753208 84584776 83973952 83017712 81887296 80790584 79956312 
925.182 79601784 79882432 80881384 82584344 84883472 87575224 90384744 
928.557 93020568 95178656 96600280 97109776 96610048 95096696 92639064 
931.932 89369848 85458896 81095232 76489432 71841408 67333904 63131200 
935.306 59352076 56077016 53349080 51177028 49548212 48437412 47815824 
938.681 47650620 47900468 48512988 49408816 50481052 51607392 52646660 
942.056 53467560 53970580 54093284 53826756 53209808 52323496 51268780 
945.431 50149640 49063044 48079092 47241224 46568044 46057348 45694836 
948.806 45459604 45331668 45292208 45324316 45413220 45544272 45703192 
952.181 45878336 46060736 46246196 46435352 46632740 46843988 47074244 
955.555 47326864 47603220 47903352 48226908 48573940 48944356 49337652 
958.930 49751964 50184412 50631512 51090888 51561980 52046100 52545792 
962.305 53062680 53596832 54146164 54706980 55276044 55851848 56435244 
965.680 57028872 57635684 58257820 58895304 59547980 60215640 60900076 
969.055 61604796 62334684 63094036 63885616 64710096 65567360 66458136 
972.429 67385528 68354728 69372696 70445752 71577448 72768544 74017648 
975.804 75323952 76688280 78114368 79607400 81173000 82814504 84533568 
979.179 86330784 88208712 90172832 92232984 94400624 96685464 99093184 
982.554 101622504 104264488 107001360 109807968 112645848 115458176 
985.447 118172032 120689544 122895112 124676528 125928136 126574752 
988.339 126585960 125977872 124814344 123194448 121252728 119136184 
991.232 116990168 114957576 113152472 111658064 110526296 109774432 
994.125 109394304 109360968 109643992 110213224 111042904 112113136 
997.017 113406616 114904776 116589632 118439920 120433600 122548152 
999.910 124755648 127019408 129292472 131509184 133593576 135468704 
1002.803 137061024 138319280 139219904 139770688 140009280 139998848 
1005.695 139826688 139587456 139384128 139318912 139475936 139922624 
1008.588 140701552 141829232 143302208 145102672 147208288 149595008 
1011.481 152240288 155123120 158218864 161499872 164937968 168503584 
1014.374 172170816 175914624 179700016 183474448 187155664 190620272 
1017.266 193723072 196306544 198226144 199389904 199772112 199430368 
1020.159 198493376 197161040 195679920 194296880 193261392 192782928 
1023.052 193004048 194005040 195791024 198305616 201439344 205055200 
1025.945 209009360 213149104 217332752 221425152 225286432 228788208 
1028.838 231813024 234264224 236084240 237253936 237790336 237732896 
1031.731 237133712 236047344 234522448 232608096 230350960 227790720 
1034.624 224958848 221869808 218521184 214897680 210983392 206775440 
1037.517 202294032 197584928 192713680 187761872 182810240 177934976 
1040.410 173208608 168689376 164424656 160445776 156759152 153346128 
1043.303 150160944 147143952 144229392 141363616 138519792 135702640 
1046.196 132948504 130313680 127869440 125685912 123821256 122322632 
1049.089 121218208 120517944 120214432 120284536 120692432 121390384 
1051.982 122329624 123461088 124738040 126120720 127567976 129032088 
1054.875 130458776 131778792 132912592 133783936 134320192 134465760 
1057.768 134190320 133487912 132380736 130916696 129173088 127249672 
1060.661 125259328 123329248 121577752 120106552 118998760 118306152 
1063.554 118054264 118243504 118853448 119843912 121153304 122706648 
1066.448 124408824 126150040 127823440 129323232 130560264 131473168 
1069.341 132021560 132188112 131971912 131383168 130440208 129166648 
1072.234 127593624 125755968 123691864 121444336 119059776 116590064 
1075.127 114099976 111660376 109351552 107258696 105456952 104011016 
1078.020 102966752 102345856 102147152 102344016 102889856 103711448 
1080.913 104712544 105785368 106804328 107648728 108222880 108463088 
1083.806 108358808 107952296 107338448 106643768 106009512 105583608 
1086.699 105489608 105824096 106649056 107981912 109795432 112014496 
1089.592 114529192 117192312 119834664 122296512 124426168 126104552 
1092.485 127256424 127843720 127867344 127357256 126369608 124976200 
1095.378 123255080 121290976 119161736 116935296 114672336 112420704 
1098.271 110218352 108095488 106069152 104143352 102305216 100527656 
1101.164 98771904 96996048 95169000 93277112 91331800 89367368 87438928 
1104.540 85611976 83949184 82509888 81340832 80473512 79928144 79711728 
1107.915 79820264 80239160 80944736 81905904 83082064 84430080 85901696 
1111.290 87442048 88994224 90493288 91867280 93046544 93963352 94561576 
1114.665 94805968 94680888 94192720 93364032 92232128 90842928 89245264 
1118.041 87493392 85638688 83726016 81794088 79869952 77970808 76107568 
1121.416 74287904 72520704 70818344 69195552 67668520 66251716 64955332 
1124.791 63785636 62746124 61839996 61072764 60453480 59993648 59706484 
1128.166 59602972 59688804 59962260 60412656 61020404 61754392 62574604 
1131.542 63433984 64276316 65047160 65698160 66194260 66522852 66695936 
1134.917 66750416 66738480 66722752 66765448 66914544 67201448 67633632 
1138.292 68194624 68843808 69521184 70158256 70678456 71011328 71101632 
1141.667 70908600 70412744 69612224 68520664 67162696 65571600 63790276 
1145.042 61865824 59849868 57797428 55757916 53776128 51889808 50125204 
1148.418 48500912 47027792 45710444 44549484 43541884 42682700 41964972 
1151.793 41380416 40921032 40579044 40348204 40224380 40204460 40286108 
1155.168 40466572 40742016 41107920 41559476 42092216 42702332 43386972 
1158.543 44142708 44965204 45848732 46786380 47770848 48794588 49849692 
1161.919 50927080 52013604 53090388 54133740 55113056 55994644 56746116 
1165.294 57335328 57735132 57924396 57887748 57618240 57117560 56397476 
1168.669 55478172 54386968 53156592 51819132 50406656 48949508 47473576 
1172.044 46003672 44562224 43168544 41840432 40592724 39436312 38379712 
1175.420 37428524 36585380 35852312 35229600 34717268 34314360 34019488 
1178.795 33830900 33746808 33766216 33889576 34118868 34457136 34907572 
1182.170 35472796 36153724 36950104 37859860 38879460 40002960 41219752 
1185.545 42513592 43858652 45220168 46557012 47821300 48965048 49945772 
1188.921 50725940 51279444 51592692 51665236 51510720 51155560 50638700 
1192.296 50004324 49299900 48573456 47865432 47210564 46635696 46157640 
1195.671 45785584 45520868 45357896 45284596 45282388 45329312 45397216 
1199.046 45455304 45471968 45413328 45247600 44948340 44495480 43880532 
1202.422 43108788 42199960 41185328 40104048 38999676 37911052 36871176 
1205.797 35904964 35026768 34243688 33556616 32962818 32456900 32032360 
1209.172 31682328 31399780 31178006 31012104 30899168 30838300 30830508 
1212.547 30878106 30983316 31147496 31370894 31652280 31989556 32379034 
1215.923 32815672 33292204 33798704 34324220 34856804 35385112 35901040 
1219.298 36398592 36874420 37326904 37755248 38159228 38540308 38902508 
1222.673 39253444 39604012 39968228 40360824 40794972 41281404 41826312 
1226.048 42431088 43091772 43799492 44539828 45292356 46034064 46739256 
1229.424 47382624 47944200 48409780 48773488 49037412 49212128 49316528 
1232.799 49375328 49422516 49498340 49644744 49907972 50330640 50948536 
1236.174 51791392 52879416 54224240 55830408 57695808 59810660 62155680 
1239.549 64702332 67409944 70225128 73090632 75942848 78716120 81350904 
1242.925 83787136 85968448 87847560 89383000 90546664 91325136 91718864 
1246.300 91740432 91410600 90758344 89817256 88624856 87223920 85654352 
1249.675 83950072 82134032 80213336 78182120 76025816 73731592 71296696 
1253.050 68736040 66082396 63386940 60713320 58124088 55680956 53433532 
1256.426 51412952 49633788 48090972 46763720 45616032 44603492 43678636 
1259.801 42791616 41900160 40971716 39985412 38934364 37823996 36670096 
1263.176 35493940 34320456 33175096 32079090 31049936 30099948 29235524 
1266.551 28458424 27766452 27154548 26615962 26143668 25731404 25373692 
1269.927 25066084 24804928 24586424 24406724 24262274 24150062 24068558 
1273.302 24017814 23999430 24015258 24066808 24154056 24274748 24424528 
1276.677 24596242 24780548 24965034 25134644 25273870 25367300 25402532 
1280.052 25372918 25278368 25124744 24922044 24682126 24415766 24131428 
1283.427 23835758 23534310 23233278 22940978 22667064 22422382 22217526 
1286.803 22061112 21959992 21919496 21943544 22035978 22200646 22440422 
1290.178 22756896 23148940 23612458 24139624 24718320 25332420 25959524 
1293.553 26572528 27141462 27634440 28025190 28297060 28445618 28480818 
1296.928 28424320 28307208 28161846 28019676 27908750 27849324 27856426 
1300.304 27938432 28096446 28324150 28606930 28923894 29248070 29550782 
1303.679 29807072 29996050 30104918 30129068 30070614 29938362 29745150 
1307.054 29508260 29246156 28977270 28719520 28486408 28287016 28126316 
1310.429 28005504 27923804 27880380 27875504 27909564 27983028 28094820 
1313.805 28241716 28419226 28622928 28849030 29095906 29364018 29654286 
1317.180 29968182 30306498 30670288 31060612 31479928 31930924 32415308 
1320.555 32931828 33474154 34030276 34582628 35108196 35583800 35986128 
1323.930 36296636 36505580 36615012 36641400 36613100 36571140 36560904 
1327.306 36622580 36788044 37071628 37468652 37957376 38505764 39079356 
1330.681 39646188 40184656 40684192 41144308 41572492 41981796 42388672 
1334.056 42809604 43260596 43754192 44297596 44890356 45524364 46185096 
1337.431 46851996 47501776 48111812 48659360 49125188 49495032 49759912 
1340.807 49918044 49974508 49939788 49826688 49648200 49415648 49137208 
1344.182 48818128 48461824 48070468 47646516 47193240 46713612 46211036 
1347.557 45686920 45142040 44575440 43986816 43377672 42753952 42127444 
1350.932 41515032 40940436 40431368 40015856 39723336 39578276 39598712 
1354.308 39793088 40157284 40671892 41300896 41997744 42707156 43370824 
1357.683 43939004 44369808 44634596 44720568 44630044 44381444 44006468 
1361.058 43552540 43078344 42645124 42315032 42135516 42130656 42298452 
1364.433 42611204 43024084 43478336 43913524 44271104 44496404 44550292 
1367.809 44411060 44080356 43580272 42949712 42236364 41482844 40726512 
1371.184 39994968 39306220 38675132 38116652 37646940 37284984 37047232 
1374.559 36942024 36966592 37107064 37343336 37654420 38024312 38444652 
1377.934 38914108 39437620 40024976 40690924 41452696 42329568 43337508 
1381.310 44480800 45741992 47072212 48395000 49603628 50576972 51203496 
1384.685 51382068 51044936 50170948 48802372 47052052 45086640 43106588 
1388.060 41286212 39739896 38515536 37600544 36947472 36493220 36178500 
1391.435 35950564 35763400 35580060 35367824 35100220 34762604 34354128 
1394.811 33888964 33390238 32881606 32378320 31884566 31397178 30912404 
1398.186 30433000 29972798 29554366 29201820 28933634 28755948 28663488 
1401.561 28643102 28680726 28764622 28887558 29047370 29245022 29482302 
1404.936 29759662 30075338 30425712 30806604 31214604 31647682 32105810 
1408.312 32589030 33096746 33627036 34176184 34739632 35313336 35894096 
1411.687 36479848 37068632 37657164 38240708 38813588 39370792 39910688 
1415.062 40435952 40953256 41471252 41998916 42543848 43111020 43703664 
1418.437 44323096 44966380 45626076 46287628 46929920 47529020 48062100 
1421.813 48513024 48873484 49149192 49359516 49537404 49719752 49937444 
1425.188 50209184 50537256 50913108 51324416 51761940 52219788 52694800 
1428.563 53184120 53682532 54184300 54685968 55190892 55710000 56258468 
1431.938 56852044 57500288 58205424 58962324 59763740 60606176 61491520 
1435.313 62429968 63435784 64523652 65697008 66946976 68255032 69595080 
1438.689 70936376 72238872 73455528 74523392 75368528 75922128 76120792 
1442.064 75920160 75299640 74259440 72821248 71024600 68930824 66614584 
1445.439 64153664 61631680 59125472 56706132 54445072 52404200 50628872 
1448.814 49137096 47917228 46935564 46151816 45537428 45083260 44799060 
1452.190 44701688 44800752 45084400 45518732 46045080 46590208 47078640 
1455.565 47434360 47605992 47587576 47433916 47239820 47096328 47064824 
1458.940 47164724 47391936 47734380 48179000 48712624 49316456 49965736 
1462.315 50623172 51239328 51762652 52144872 52358968 52409620 52335420 
1465.691 52193892 52036764 51901312 51802144 51736820 51692144 51648924 
1469.066 51583360 51462524 51244808 50881924 50326476 49553708 48582168 
1472.441 47484924 46367992 45335236 44454556 43745144 43195408 42783608 
1475.816 42495100 42328144 42289284 42382648 42602612 42930620 43341280 
1479.192 43806344 44304896 44827640 45377056 45965548 46609760 47327568 
1482.567 48134020 49043088 50070876 51236528 52561312 54061684 55740928 
1485.942 57576700 59509408 61447624 63260084 64787900 65870688 66352540 
1489.317 66119672 65133108 63446216 61201916 58589832 55807312 53005328 
1492.693 50270296 47642560 45124172 42706024 40392896 38210352 36209616 
1496.068 34457100 33010754 31901684 31125926 30656348 30453364 30479132 
1499.443 30703820 31102540 31651746 32328274 33104576 33950476 34835620 
1502.818 35721060 36560364 37295388 37840304 38084528 37900532 37174524 
1506.194 35870916 34082420 32017164 29899600 27883454 26024180 24310628 
1509.569 22710632 21200036 19771270 18435856 17214666 16123597 15170877 
1512.944 14352212 13654742 13061807 12556642 12123746 11747617 11414163 
1516.319 11113187 10840991 10602269 10406067 10259922 10163583 10105823 
1519.695 10065331 10018266 9946829 9850931 9750074 9674447 9647716 9674718 
1523.552 9743263 9831951 9922318 10003109 10075063 10148828 10237836 
1526.927 10350853 10487829 10641657 10804472 10972446 11147997 11338211 
1530.302 11549467 11783636 12035372 12293560 12545046 12781766 13005164 
1533.678 13227821 13464504 13726382 14013671 14317691 14624288 14918758 
1537.053 15189886 15427778 15624889 15774190 15868690 15902234 15873536 
1540.428 15791267 15672635 15537826 15402544 15270634 15134988 14980830 
1543.803 14794329 14570011 14315705 14050563 13797930 13574842 13384263 
1547.179 13216447 13053783 12879883 12685889 12475750 12264043 12069779 
1550.554 11906318 11776010 11671096 11579038 11490230 11401474 11317872 
1553.929 11249929 11207494 11194404 11206236 11230581 11251424 11247480 
1557.304 11193724 11064105 10841466 10534879 10187462 9861100 9603236 
1560.680 9429018 9328462 9278598 9254397 9232938 9198111 9142409 9068443 
1564.537 8987624 8915071 8863598 8837357 8831405 8833604 8831338 8814093 
1568.395 8777914 8726187 8668382 8616566 8581046 8568170 8580403 8617478 
1572.252 8677271 8755025 8843781 8931914 9006195 9053896 9068037 9052983 
1576.109 9024937 9007007 9016648 9059647 9131311 9221329 9320811 9424210 
1579.967 9530749 9642600 9762544 9891572 10029285 10173317 10321571 10471978 
1583.824 10622846 10771048 10911011 11034569 11133311 11200048 11232859 
1587.199 11235749 11219122 11196682 11183660 11194506 11240135 11328993 
1590.575 11466653 11655440 11892765 12168622 12465658 12757471 13013016 
1593.950 13203399 13305129 13306599 13209547 13028346 12786134 12508249 
1597.325 12220487 11943746 11694276 11485228 11326001 11223100 11179547 
1600.700 11195390 11267475 11391644 11564337 11782649 12043548 12342134 
1604.076 12669344 13011480 13351835 13671122 13950265 14173101 14325978 
1607.451 14399407 14388721 14293789 14119392 13873937 13571288 13228744 
1610.826 12866811 12507976 12172028 11872640 11616267 11400216 11215824 
1614.201 11049897 10888892 10720781 10538986 10346273 10155612 9986733 
1617.577 9858320 9782030 9759427 9783216 9840323 9915539 9994734 10065840 
1621.434 10122916 10166737 10204965 10249236 10310136 10393815 10499880 
1624.809 10623355 10758073 10899018 11043032 11187877 11331103 11470089 
1628.185 11602416 11727090 11846624 11965885 12090731 12225906 12372441 
1631.560 12527347 12683637 12831180 12959143 13055695 13110604 13117230 
1634.935 13075978 12996799 12898485 12803811 12729390 12682068 12658597 
1638.310 12649660 12642973 12627248 12595832 12547775 12488845 12428627 
1641.686 12377725 12342748 12324102 12315512 12306002 12282823 12233029 
1645.061 12148347 12026924 11876215 11712623 11558416 11436205 11362291 
1648.436 11343380 11377358 11454780 11560628 11673342 11766648 11806311 
1651.811 11756707 11596971 11344231 11060740 10820676 10668992 10604409 
1655.187 10599655 10622710 10650180 10669095 10674901 10669060 10655342 
1658.562 10637005 10615206 10587806 10550970 10500389 10432403 10345255 
1661.937 10240449 10123085 10002058 9887742 9790502 9717172 9669635 9644294 
1665.794 9632911 9624509 9606251 9566212 9496780 9395666 9268207 9125897 
1669.652 8983903 8855686 8750123 8670545 8615248 8577633 8548029 8514272 
1673.509 8462778 8381565 8266357 8123868 7973461 7837916 7735502 7671184 
1677.367 7638068 7621949 7608731 7589747 7564257 7538600 7522586 7523091 
1681.224 7539105 7559402 7563313 7527407 7432952 7279044 7088984 6904056 
1685.082 6761374 6675565 6639261 6632868 6638218 6640338 6630951 6607536 
1688.939 6571372 6526802 6479243 6436365 6405562 6393154 6402469 6431523 
1692.796 6472753 6512373 6534370 6523438 6472686 6389254 6296559 6224858 
1696.654 6193835 6205531 6243816 6283381 6295147 6254740 6152900 6004518 
1700.511 5847891 5723214 5655300 5642309 5666949 5706763 5742519 5760617 
1704.369 5753364 5720864 5669399 5610254 5554171 5508464 5475680 5454406 
1708.226 5441053 5432195 5425954 5421962 5421694 5426928 5438838 5457661 
1712.083 5482457 5510913 5541250 5572227 5603440 5634052 5661946 5682189 
1715.941 5687191 5669466 5625089 5558164 5481384 5412669 5366943 5351378 
1719.798 5364259 5397605 5440818 5484135 5521081 5548734 5567595 5580483 
1723.656 5591391 5603440 5618443 5637610 5661074 5688500 5718984 5750376 
1727.513 5779420 5802891 5818674 5827741 5834021 5842954 5858805 5881341 
1731.371 5903676 5911939 5887117 5812025 5679503 5502356 5312602 5150592 
1735.228 5044183 4998663 5001713 5032584 5071536 5101809 5113107 5102278 
1739.085 5073045 5034126 4995513 4965549 4947585 4941285 4944133 4953014 
1742.943 4965683 4981100 4999066 5020350 5045624 5074788 5107441 5142645 
1746.800 5178187 5211821 5241164 5263332 5275942 5276848 5264640 5239252 
1750.658 5203437 5162629 5124875 5098423 5088533 5096143 5117935 5146534 
1754.515 5172252 5186704 5183921 5163701 5131715 5098088 5073515 5063893 
1758.373 5069693 5084845 5101306 5109252 5102010 5077034 5036908 4988642 
1762.230 4941184 4903216 4879960 4873325 4881468 4900099 4923490 4945105 
1766.087 4959483 4963638 4958243 4948557 4942290 4946748 4964879 4993904 
1769.945 5024741 5046093 5046663 5020819 4971649 4911057 4855064 4816265 
1773.802 4800050 4803400 4819414 4840087 4860358 4878519 4895307 4911895 
1777.660 4928550 4943497 4953819 4957170 4953048 4943765 4933912 4927679 
1781.517 4927478 4932270 4938503 4942223 4940414 4932638 4921144 4909783 
1785.375 4902545 4901875 4908845 4922954 4943564 4970006 5001479 5036305 
1789.232 5071067 5100669 5118807 5120215 5102144 5066139 5019210 4969739 
1793.089 4926539 4894804 4875370 4866088 4863575 4865183 4868869 4873426 
1796.947 4877882 4881166 4881703 4877916 4868735 4854461 4835932 4815260 
1800.804 4795024 4776867 4762361 4752245 4746918 4746684 4751675 4761055 
1804.662 4773852 4788525 4803366 4817371 4829968 4841561 4852317 4862301 
1808.519 4870645 4875973 4877212 4873728 4866691 4858013 4850775 4847056 
1812.376 4848296 4853958 4862737 4873024 4883579 4894201 4905192 4917323 
1816.234 4931264 4946647 4962700 4978687 4993468 5006808 5018975 5030774 
1820.091 5043613 5058764 5077202 5098792 5122662 5146534 5167189 5181708 
1823.949 5187878 5186537 5180869 5176611 5178925 5190963 5211686 5236368 
1827.806 5257899 5268731 5264304 5244819 5216113 5186905 5166786 5161589 
1831.664 5172084 5195054 5225301 5258301 5290532 5321323 5350439 5378315 
1835.521 5404718 5428941 5450514 5469942 5489705 5514235 5548062 5595720 
1839.378 5659295 5738289 5829185 5926483 6024238 6115228 6193398 6254404 
1843.236 6297130 6325270 6346182 6369718 6404049 6452473 6513112 6579950 
1847.093 6644307 6698244 6736504 6757504 6763057 6757133 6743369 6723885 
1850.951 6698614 6665841 6623919 6572617 6513382 6449211 6382966 6316562 
1854.808 6250707 6185163 6119698 6054947 5992793 5935317 5883860 5837917 
1858.666 5795470 5753498 5709919 5664531 5618779 5575817 5538230 5507222 
1862.523 5482357 5462325 5445951 5433336 5425418 5423506 5427599 5435013 
1866.380 5441355 5440617 5428169 5402369 5366171 5325784 5288587 5260917 
1870.238 5244886 5239856 5242405 5249548 5259073 5269704 5281040 5292108 
1874.095 5301835 5308275 5310657 5308711 5303747 5297743 5292176 5287145 
1877.953 5281678 5273662 5261185 5243679 5222149 5198776 5175672 5154045 
1881.810 5133928 5114113 5093662 5072509 5052161 5034663 5022227 5015590 
1885.667 5013981 5014651 5014919 5012305 5005769 4995915 4984016 4972185 
1889.525 4962298 4955360 4952210 4953149 4957874 4965381 4974364 4982474 
1893.382 4987535 4988541 4985659 4981033 4977681 4978318 4984016 4994172 
1897.240 5006138 5017065 5025210 5030003 5032651 5034998 5038350 5043512 
1901.097 5049915 5056954 5063961 5071905 5081527 5093998 5108615 5123500 
1904.955 5136141 5144053 5146333 5143584 5138052 5132318 5127591 5124238 
1908.812 5120785 5115924 5108782 5100367 5092020 5085550 5082097 5081493 
1912.669 5082867 5086153 5090880 5098054 5107944 5119612 5129569 5133257 
1916.527 5126049 5106034 5075392 5040864 5011065 4992161 4985759 4988139 
1920.384 4991021 4986597 4969370 4939140 4901104 4863340 4833352 4816064 
1924.242 4811407 4815796 4824641 4833989 4841695 4847525 4851445 4853254 
1928.099 4852350 4848195 4841092 4833620 4827991 4826685 4829700 4834960 
1931.957 4837976 4834960 4824474 4808258 4790837 4777269 4770703 4771305 
1935.814 4776096 4780552 4781892 4779982 4777470 4778709 4786147 4799447 
1939.671 4815059 4827254 4830973 4824172 4807856 4786347 4764874 4747287 
1943.529 4735194 4728461 4725681 4725983 4729700 4737003 4748091 4761926 
1947.386 4776331 4789262 4800284 4810034 4820420 4832682 4845950 4857611 
1951.244 4863541 4859654 4845749 4823636 4798241 4774187 4754690 4738779 
1955.101 4723001 4702636 4673463 4635015 4589706 4541723 4495620 4455013 
1958.958 4420802 4393890 4374846 4364738 4365541 4377624 4398710 4424015 
1962.816 4447079 4462444 4468638 4467231 4462712 4459499 4460068 4462277 
1966.673 4462344 4455716 4439380 4414777 4386125 4356873 4330535 4306272 
1970.531 4282446 4257250 4230851 4206393 4188962 4182874 4188929 4205356 
1974.388 4228274 4254875 4286997 4328995 4387297 4464754 4558431 4657019 
1978.246 4746215 4813585 4851780 4862034 4852082 4831878 4810637 4792612 
1982.103 4778006 4764907 4751173 4736232 4721896 4709134 4698348 4687363 
1985.960 4672994 4653334 4628485 4602565 4581134 4569749 4569515 4577451 
1989.818 4587596 4592921 4589237 4577752 4563320 4553811 4555184 4569548 
1993.675 4594160 4624466 4654339 4680296 4701564 4718547 4731610 4740487 
1997.533 4742664 4736266 4719886 4694698 4664655 4634915 4609765 4591448 
2001.390 4579661 4570821 4561512 4549525 4534090 4517952 4505062 4499571 
2005.248 4504124 4520262 4546009 4577919 4610267 4637494 4654339 4658660 
2009.105 4650823 4635618 4619075 4607119 4603034 4607789 4617903 4629456 
2012.962 4639402 4646201 4652062 4659564 4670047 4683243 4694765 4700492 
2016.820 4698114 4689741 4681501 4682707 4700392 4736366 4786984 4844309 
2020.677 4898289 4943027 4976877 5002484 5023701 5043009 5058429 5064899 
2024.535 5058094 5035333 5000339 4960891 4927142 4908242 4907270 4922216 
2028.392 4947049 4975168 5001110 5024439 5045724 5067882 5092690 5120215 
2032.250 5150793 5185765 5227045 5277116 5338397 5408610 5482793 5553398 
2036.107 5613006 5656777 5684136 5697968 5703607 5705823 5707636 5710255 
2039.964 5714183 5720293 5730365 5746381 5768675 5795235 5821864 5842618 
2043.822 5853163 5853063 5845305 5836036 5832510 5839629 5859880 5892256 
2047.679 5933033 5978415 6024944 6068152 6104945 6131157 6143725 6141440 
2051.537 6127762 6108978 6094193 6092781 6109785 6145002 6191482 6238942 
2055.394 6277599 6301265 6309670 6307619 6303182 6301602 6306106 6315049 
2059.251 6324093 6329438 6328665 6321908 6312326 6302778 6295013 6289802 
2063.109 6286877 6285801 6287919 6294676 6307619 6326816 6350485 6374257 
2066.966 6394095 6406605 6411144 6408555 6401527 6391977 6381486 6369819 
2070.824 6356403 6341475 6325942 6312057 6302341 6298173 6299349 6304863 
2074.681 6313267 6323320 6335457 6349914 6367297 6386765 6406100 6422443 
2078.539 6433607 6438887 6439660 6438282 6437609 6438988 6442721 6447832 
2082.396 6453381 6459737 6468044 6480421 6497742 6519066 6540862 6558622 
2086.253 6567873 6566292 6554754 6535817 6513550 6491284 6470096 6450153 
2090.111 6430043 6409698 6389556 6372206 6359496 6353141 6352906 6356807 
2093.968 6362858 6369482 6376409 6384613 6395474 6408857 6423519 6437037 
2097.826 6446656 6451566 6452204 6450826 6449884 6450994 6453650 6456812 
2101.683 6458897 6459636 6460477 6464614 6474602 6492461 6517417 6546580 
2105.541 6576787 6605281 6631186 6655747 6680242 6705949 6732466 6757638 
2109.398 6779042 6795635 6807751 6817478 6828283 6842656 6860731 6881266 
2113.255 6901128 6917388 6928464 6935097 6938901 6942369 6947385 6953580 
2117.113 6959876 6964355 6965600 6963614 6959843 6956543 6956577 6962065 
2120.970 6973715 6991695 7014828 7040960 7067598 7092049 7111987 7126033 
2124.828 7134049 7137485 7138630 7140045 7143009 7147657 7152036 7153249 
2128.685 7148735 7136777 7117848 7093665 7066756 7039814 7014525 6991628 
2132.542 6971863 6955937 6944894 6940113 6942301 6950786 6963311 6976711 
2136.400 6986812 6991190 6988833 6980146 6966711 6951291 6935433 6921360 
2140.257 6910991 6905942 6907995 6917792 6933985 6953210 6970550 6979607 
2144.115 6976274 6958294 6926006 6882511 6832625 6780456 6729606 6682900 
2147.972 6641851 6606896 6578941 6555931 6535682 6513819 6484827 6444436 
2151.830 6390868 6323723 6246505 6162209 6073494 5981169 5885338 5786337 
2155.687 5689407 5604816 5546351 5530612 5569340 5663424 5803261 5967430 
2159.544 6132299 6275044 6382899 6450489 6481766 6484053 6465926 6436163 
2163.402 6401998 6369953 6345644 6332767 6332397 6342618 6359563 6376913 
2167.259 6390262 6396516 6395474 6388548 6377182 6361783 6341542 6314007 
2171.117 6277363 6232084 6180424 6127057 6077762 6037442 6008952 5993532 
2174.974 5989332 5993633 6003241 6013253 6018930 6016209 6001695 5974686 
2178.832 5937500 5895716 5856656 5826667 5809641 5805142 5809137 5814779 
2182.689 5816794 5812126 5800877 5786807 5774618 5767701 5768004 5775458 
2186.546 5787915 5804000 5822234 5841308 5860249 5878217 5893600 5905893 
2190.404 5916137 5926583 5939885 5959233 5984864 6016007 6048597 6078770 
2194.261 6102829 6120336 6131325 6139054 6145910 6152833 6160192 6166780 
2198.119 6171720 6175786 6179853 6185903 6194810 6206271 6218136 6228152 
2201.976 6234101 6235480 6234034 6233026 6234101 6239379 6248354 6259480 
2205.833 6270069 6279179 6285600 6290104 6293937 6297870 6302442 6307989 
2209.691 6314713 6323656 6335591 6351124 6369684 6389590 6407815 6422039 
2213.548 6430278 6432867 6431657 6429135 6427790 6429269 6432901 6436634 
2217.406 6439055 6438450 6434549 6427857 6419752 6410774 6401291 6390464 
2221.263 6377518 6361917 6343391 6322647 6300694 6278675 6257967 6239580 
2225.121 6224925 6214909 6210943 6213060 6220824 6232891 6246807 6260556 
2228.978 6272455 6281431 6287684 6292021 6295416 6298677 6302274 6306342 
2232.835 6311150 6316999 6324261 6333507 6345274 6360303 6379200 6402939 
2236.693 6431455 6464345 6499793 6534303 6564711 6587586 6601883 6608376 
2240.550 6611000 6614230 6622708 6639126 6662981 6692288 6723515 6753566 
2244.408 6781769 6808694 6836462 6866589 6899343 6932740 6963412 6987553 
2248.265 7002773 7008733 7007218 7000854 6993412 6987621 6985432 6988126 
2252.123 6996510 7010720 7031026 7056552 7085111 7113806 7138933 7157426 
2255.980 7167666 7169249 7163691 7153114 7139910 7125830 7112560 7100704 
2259.837 7090971 7084201 7081035 7081642 7086357 7094305 7105015 7117848 
2263.695 7132298 7147691 7163253 7177435 7187776 7192021 7188484 7177266 
2267.552 7160424 7141561 7124921 7113739 7109124 7109899 7113301 7116130 
2271.410 7116096 7113065 7108518 7105420 7106059 7112122 7123338 7138158 
2275.267 7153855 7168508 7180467 7189191 7195255 7199668 7203609 7208461 
2279.125 7215434 7224800 7237232 7252359 7269273 7286827 7303810 7319142 
2282.982 7332452 7343943 7354087 7363557 7372791 7381790 7390518 7399315 
2286.839 7408246 7418459 7430795 7445828 7464131 7485335 7508831 7534048 
2290.697 7560346 7587758 7616588 7647038 7679109 7712667 7746970 7781545 
2294.554 7815751 7849556 7882823 7916026 7949264 7982742 8016222 8049603 
2298.412 8082784 8115732 8148851 8182310 8216684 8252545 8290132 8329985 
2302.269 8372241 8416731 8463421 8512008 8562087 8613897 8667807 8724767 
2306.126 8785792 8851627 8922410 8998043 9077071 9158280 9239945 9321285 
2309.984 9400982 9478729 9553443 9624137 9689760 9749261 9802601 9850728 
2313.841 9895979 9941370 9990429 10046341 10111623 10187326 10273662 
2317.217 10369721 10473947 10584003 10697892 10813236 10927728 11039565 
2320.592 11146400 11246018 11335320 11411170 11469987 11509215 11528167 
2323.967 11528472 11515033 11494652 11475396 11464408 11467197 11486590 
2327.342 11522212 11571279 11629233 11691349 11752928 11809715 11858814 
2330.718 11898282 11927127 11945620 11956485 11962921 11969768 11981927 
2334.093 12002910 12034724 12077035 12127664 12183887 12242265 12301025 
2337.468 12358702 12414989 12469272 12520798 12568341 12609680 12643690 
2340.843 12669924 12688414 12700048 12704381 12698922 12677565 12631648 
2344.219 12551322 12428866 12262749 12059934 11837601 11619705 11432532 
2347.594 11301617 11245134 11273120 11386916 11580058 11838521 12142656 
2350.969 12471522 12803675 13120918 13412011 13672112 13902297 14106556 
2354.344 14290331 14457911 14612329 14755044 14886729 15007377 15116221 
2357.719 15211675 15292015 15355240 15401205 15430456 15445391 15448824 
2361.095 15442850 15428533 15405394 15372026 15327401 15271526 15205808 
2364.470 15132277 15053306 14969821 14881826 14787987 14686251 14575219 
2367.845 14454417 14324130 14185151 14039064 13886561 13728878 13566980 
2371.220 13401896 13234858 13067408 12900908 12735975 12573355 12412944 
2374.596 12254500 12097988 11942998 11790003 11639138 11491285 11346951 
2377.971 11207970 11075763 10952261 10839360 10738239 10649399 10572698 
2381.346 10507178 10452122 10406440 10369585 10341352 10321400 10309219 
2384.721 10304096 10304741 10309626 10317499 10327067 10337315 10347392 
2388.097 10356520 10363748 10368499 10370400 10369246 10365954 10361440 
2391.472 10356826 10352889 10349971 10347867 10346374 10345085 10343932 
2394.847 10343321 10343286 10343796 10344610 10345017 10344644 10343693 
2398.222 10342913 10344033 10349021 10359745 10377118 10401383 10431996 
2401.598 10467396 10506432 10548186 10591948 10637378 10684477 10733178 
2404.973 10784126 10837627 10894295 10954877 11019785 11089053 11162242 
2408.348 11238946 11318451 11400590 11485637 11573933 11665889 11760724 
2411.723 11857350 11953317 12046273 12133695 12213910 12286197 12350623 
2415.099 12408340 12460303 12507635 12551220 12591364 12628134 12661156 
2418.474 12689506 12712399 12728981 12738738 12741946 12739967 12734576 
2421.849 12728196 12722634 12719358 12718506 12719836 12722498 12726149 
2425.224 12730857 12737579 12747848 12763442 12785896 12816847 12857357 
2428.600 12908077 12969112 13040023 13119313 13205585 13296315 13389867 
2431.975 13485148 13582124 13681721 13785206 13893984 14008504 14128223 
2435.350 14252563 14380432 14511662 14646702 14786067 14931069 15081709 
2438.725 15237344 15396709 15558260 15720868 15884636 16050462 16219720 
2442.101 16394274 16574787 16761882 16955190 17154064 17357582 17564992 
2445.476 17775468 17987428 18199422 18410206 18618292 18823430 19025828 
2448.851 19226590 19426404 19625650 19823846 20019736 20211550 20397580 
2452.226 20576740 20748538 20912926 21070282 21220320 21362370 21495692 
2455.602 21618678 21729922 21827748 21910366 21976094 22023534 22051490 
2458.977 22059404 22047692 22016980 21968252 21902664 21820744 21722712 
2462.352 21608822 21479224 21335014 21177980 21011020 20837660 20661518 
2465.727 20486524 20315666 20152092 19998294 19856412 19728620 19616672 
2469.103 19521770 19445012 19386594 19346682 19324406 19318760 19328392 
2472.478 19351566 19386316 19430942 19483406 19542114 19605650 19672452 
2475.853 19740688 19808724 19874242 19935292 19990522 20038994 20080668 
2479.228 20116100 20145948 20170660 20189888 20203080 20208876 20206412 
2482.604 20195444 20176318 20150320 20119154 20084312 20047390 20009224 
2485.979 19970296 19930642 19890300 19848678 19805776 19760834 19713468 
2489.354 19663402 19610328 19553968 19494356 19431254 19364280 19292746 
2492.729 19216164 19133954 19045976 18952514 18854296 18752086 18646446 
2496.104 18537680 18425452 18309276 18188226 18061996 17930448 17794282 
2499.480 17654602 17513104 17371826 17232938 17097850 16967592 16842508 
2502.855 16721832 16604425 16488805 16373940 16259311 16145777 16034544 
2506.230 15927874 15827280 15733683 15646975 15566468 15490233 15416997 
2509.605 15345457 15275300 15207043 15141678 15080132 15023361 14971810 
2512.981 14925308 14883404 14845344 14810408 14777943 14747914 14720286 
2516.356 14695847 14675490 14659484 14648209 14640910 14636043 14632376 
2519.731 14628299 14623329 14617881 14613494 14612158 14615790 14626105 
2523.106 14643205 14666989 14696259 14729644 14765739 14803140 14840236 
2526.482 14875106 14905761 14930040 14946466 14954731 14955143 14949039 
2529.857 14938098 14923764 14907133 14888307 14867596 14845242 14822030 
2533.232 14798991 14777875 14759705 14745069 14733654 14724811 14716996 
2536.607 14709524 14701983 14694580 14688068 14683578 14681898 14683338 
2539.983 14688136 14695539 14704451 14713396 14720766 14725051 14725325 
2543.358 14721623 14714734 14706576 14698762 14693448 14691015 14691255 
2546.733 14693243 14695196 14695505 14693483 14688787 14681796 14673227 
2550.108 14663734 14654241 14645056 14636934 14630423 14625899 14623604 
2553.484 14623432 14624802 14626756 14628572 14630183 14631519 14632788 
2556.859 14634330 14635701 14635495 14632410 14624802 14611918 14593927 
2560.234 14572101 14548082 14523996 14500596 14478568 14457501 14436604 
2563.609 14415163 14393071 14370123 14346938 14323376 14299645 14275539 
2566.985 14251125 14226885 14203877 14183576 14167144 14155436 14148659 
2570.360 14145886 14146263 14148727 14153040 14159373 14168753 14181659 
2573.735 14198742 14219660 14243147 14267321 14290433 14310705 14327622 
2577.110 14341423 14353136 14364609 14377795 14394064 14414785 14439517 
2580.486 14467948 14498712 14530540 14562061 14592865 14622678 14651910 
2583.861 14681384 14711889 14744109 14778560 14815276 14854259 14895165 
2587.236 14937275 14980247 15023361 15066238 15108949 15151732 15195274 
2590.611 15240227 15287176 15335846 15385688 15435399 15483708 15529345 
2593.987 15571688 15610944 15647696 15682735 15717261 15752133 15787901 
2597.362 15825080 15863672 15903747 15944751 15986310 16027667 16068444 
2600.737 16108433 16148081 16188662 16231483 16278127 16329626 16385913 
2604.112 16446510 16509939 16574994 16640676 16706612 16773073 16840648 
2607.488 16909886 16980824 17053290 17126630 17200118 17273344 17346030 
2610.863 17418246 17489786 17560506 17630032 17697568 17762386 17824038 
2614.238 17882178 17936630 17987428 18034606 18078092 18117852 18153954 
2617.613 18186570 18216110 18243202 18268358 18292446 18316016 18339656 
2620.989 18363644 18388394 18413906 18440144 18467110 18494734 18522708 
2624.364 18551132 18579592 18608366 18637312 18666090 18695044 18724134 
2627.739 18753470 18783710 18815334 18848864 18884784 18923304 18964144 
2631.114 19007066 19051586 19097182 19143234 19189290 19234554 19278578 
2634.490 19320700 19360712 19398824 19435828 19473010 19511408 19551992 
2637.865 19595110 19640246 19686700 19733440 19779942 19825822 19872020 
2641.240 19919402 19968560 20020014 20073382 20127762 20182010 20234878 
2644.615 20285772 20334624 20382022 20429044 20476940 20526714 20579380 
2647.990 20635458 20694946 20757678 20822780 20889806 20957782 21026148 
2651.366 21094596 21163194 21232080 21301432 21371350 21442322 21514108 
2654.741 21586848 21660956 21736262 21813252 21892070 21972714 22054872 
2658.116 22138266 22222582 22307472 22392694 22478106 22563884 22649576 
2661.491 22735036 22819924 22903604 22985904 23066506 23145200 23222232 
2664.867 23297320 23370918 23443338 23515244 23587200 23659972 23734190 
2668.242 23810030 23887462 23966200 24045654 24125542 24205586 24286204 
2671.617 24367506 24449732 24533202 24617878 24703520 24790194 24877588 
2674.992 24965842 25054746 25143982 25232888 25320828 25406994 25491210 
2678.368 25573720 25654980 25736114 25817930 25901488 25987242 26075934 
2681.743 26168196 26264738 26366512 26474474 26589084 26710242 26837604 
2685.118 26970008 27106756 27247288 27391568 27539922 27693024 27850950 
2688.493 28013526 28179982 28349404 28520978 28694246 28869392 29047016 
2691.869 29227584 29411704 29599588 29791422 29986962 30186214 30389146 
2695.244 30595942 30806534 31020680 31238174 31458590 31681578 31906996 
2698.619 32134746 32364686 32596886 32830932 33066242 33302222 33538114 
2701.994 33773056 34006556 34237916 34466496 34691284 34911952 35127560 
2705.370 35337916 35542372 35740376 35931276 36113900 36286948 36448784 
2708.745 36598104 36734456 36857648 36968540 37068016 37157484 37238052 
2712.120 37310296 37374388 37430260 37477140 37514596 37541512 37557408 
2715.495 37561380 37553144 37532372 37499464 37455108 37400136 37335968 
2718.871 37263796 37184992 37101076 37013600 36923912 36833412 36743868 
2722.246 36656576 36573124 36495308 36424536 36362708 36311300 36271640 
2725.621 36245092 36231732 36231732 36244696 36269912 36306472 36353808 
2728.996 36411276 36478516 36554776 36639596 36731896 36830708 36935024 
2732.372 37043840 37156364 37271988 37390280 37510804 37632992 37756184 
2735.747 37879488 38001816 38121968 38238972 38352168 38460760 38565036 
2739.122 38665316 38762248 38856996 38950384 39043032 39135552 39228384 
2742.497 39321852 39416612 39512912 39611452 39712808 39817204 39924604 
2745.873 40035076 40148308 40264004 40382312 40502796 40625028 40747696 
2749.248 40869228 40987228 41099616 41203652 41298236 41382348 41456160 
2752.623 41520464 41576468 41625768 41669352 41708560 41743868 41775236 
2755.998 41802488 41824560 41840432 41849004 41849116 41840104 41821128 
2759.374 41791616 41750872 41697724 41631348 41550764 41455864 41346776 
2762.749 41224636 41091344 40948340 40797336 40639692 40476468 40309048 
2766.124 40139112 39968848 39800500 39636680 39479344 39329944 39189400 
2769.499 39058112 38936720 38825724 38725840 38637972 38562612 38499824 
2772.875 38448888 38408672 38377720 38354448 38337332 38324772 38315108 
2776.250 38306244 38296036 38282396 38263108 38236440 38200692 38154888 
2779.625 38097952 38029372 37949164 37858016 37757560 37649796 37537536 
2783.000 37423180 37308564 37194660 37081944 36970052 36858876 36748916 
2786.375 36640856 36535424 36433400 36334680 36237924 36141732 36043724 
2789.751 35942288 35836192 35725264 35609984 35491924 35372464 35253208 
2793.126 35135896 35021988 34913104 34810420 34714720 34626332 34545416 
2796.501 34471264 34404012 34343192 34289224 34242648 34204324 34174428 
2799.876 34152992 34138976 34131376 34128724 34129764 34133564 34139584 
2803.252 34147828 34158152 34170844 34185788 34202640 34220960 34240392 
2806.627 34260256 34279972 34298796 34316368 34332036 34345448 34356100 
2810.002 34363592 34367396 34366608 34360260 34347424 34327304 34299084 
2813.377 34262800 34218596 34166612 34108080 34043752 33975128 33904084 
2816.753 33832552 33763568 33700076 33645224 33602228 33573516 33561276 
2820.128 33566604 33589980 33631152 33689012 33762492 33850636 33951664 
2823.503 34064712 34188052 34320276 34459108 34601784 34745084 34885456 
2826.878 35019368 35144088 35257056 35356860 35442668 35514184 35571536 
2830.254 35615160 35645772 35664076 35671164 35668072 35655732 35635052 
2833.629 35606960 35572220 35532448 35489588 35445616 35402944 35363188 
2837.004 35327568 35295796 35267296 35240920 35215872 35192520 35172108 
2840.379 35156804 35149548 35152852 35169416 35201540 35251088 35320380 
2843.755 35412612 35531048 35679616 35861812 36080124 36334964 36623984 
2847.130 36941408 37277224 37617780 37946560 38243928 38491392 38672380 
2850.505 38773988 38790364 38721716 38575104 38361724 38097008 37797792 
2853.880 37479600 37157992 36846072 36553768 36288784 36055968 35856560 
2857.256 35690052 35553524 35442992 35353736 35281708 35222524 35172324 
2860.631 35127452 35084416 35039948 34991388 34936944 34876300 34810236 
2864.006 34740636 34670072 34601140 34536772 34479876 34432996 34399176 
2867.381 34381276 34381668 34402724 34445368 34509832 34594860 34697960 
2870.757 34815764 34943372 35075724 35207216 35332060 35445976 35545572 
2874.132 35630124 35700552 35759696 35811616 35859728 35907588 35956648 
2877.507 36007980 36061188 36116060 36172704 36231368 36293356 36359680 
2880.882 36431888 36510592 36596408 36688516 36786024 36886576 36987480 
2884.258 37085556 37177628 37260620 37332684 37392664 37440480 37477248 
2887.633 37504844 37525796 37542992 37560260 37582048 37613228 37659732 
2891.008 37727744 37823564 37954336 38127828 38351732 38636052 38990980 
2894.383 39427676 39956716 40585664 41316128 42141100 43042520 43989636 
2897.759 44937572 45834736 46623448 47247244 47661972 47837948 47766224 
2901.134 47458272 46945164 46271224 45484332 44634996 43767496 42916176 
2904.509 42108788 41363616 40692232 40101680 39594976 39171992 38830652 
2907.884 38567428 38377940 38257644 38202500 38209336 38275120 38396868 
2911.260 38570540 38791016 39051876 39344596 39659440 39985848 40311664 
2914.635 40624556 40912656 41164744 41371924 41528744 41632880 41685616 
2918.010 41690684 41653848 41581028 41477596 41348124 41195744 41022476 
2921.385 40829732 40618736 40391112 40149764 39898776 39644484 39394552 
2924.760 39157668 38942484 38756744 38605632 38491752 38414572 38371388 
2928.136 38357380 38367044 38394552 38433684 38478716 38524376 38565256 
2931.511 38597084 38615916 38618776 38603604 38568984 38514056 38438644 
2934.886 38343264 38229092 38098024 37952960 37797140 37633896 37466808 
2938.261 37299504 37135180 36977812 36831320 36700168 36588696 36500104 
2941.637 36436460 36397476 36380216 36379712 36388000 36396144 36393728 
2945.012 36369984 36315372 36222292 36085708 35905140 35684296 35431128 
2948.387 35155620 34869980 34585820 34312136 34055972 33821408 33609816 
2951.762 33421118 33254500 33108260 32980974 32870814 32775830 32694082 
2955.138 32623426 32561958 32507748 32459508 32415986 32376572 32340802 
2958.513 32308608 32280232 32255962 32236014 32220562 32209214 32201506 
2961.888 32196652 32194584 32195404 32200008 32209714 32225844 32249610 
2965.263 32281410 32321170 32368432 32422482 32482788 32549140 32621500 
2968.639 32700230 32785800 32878890 32980296 33091274 33213046 33346620 
2972.014 33492692 33650520 33818044 33992116 34167868 34340036 34502764 
2975.389 34650012 34775740 34874432 34940284 34969012 34957488 34904484 
2978.764 34811316 34681952 34522708 34341252 34146360 33947288 33751892 
2982.140 33567396 33398968 33249456 33119238 33006180 32905948 32812562 
2985.515 32719664 32621890 32515392 32398850 32273452 32142058 32007854 
2988.890 31873584 31740070 31605848 31467102 31318612 31155186 30972818 
2992.265 30770076 30548338 30312254 30068592 29824674 29587456 29361890 
2995.641 29150366 28952440 28766038 28587678 28414202 28243026 28072940 
2999.016 27903770 27736216 27571274 27410238 27253708 27102136 26955800 
3002.391 26814554 26678426 26547342 26421440 26300924 26185968 26076884 
3005.766 25973594 25875992 25783648 25696106 25612802 25533234 25457128 
3009.142 25384442 25315104 25249006 25185800 25125200 25066576 25009818 
3012.517 24954752 24901658 24850992 24803034 24757956 24715584 24675532 
3015.892 24637410 24601466 24567840 24537478 24511008 24488992 24471220 
3019.267 24457022 24445210 24434974 24425160 24415732 24406548 24397962 
3022.643 24389900 24382400 24375180 24368520 24362878 24359586 24360636 
3026.018 24367892 24382926 24406444 24437920 24475812 24517460 24559988 
3029.393 24600240 24635376 24662976 24681318 24689138 24686472 24673532 
3032.768 24651438 24621840 24586460 24547470 24506520 24465576 24426106 
3036.144 24389444 24356396 24327344 24302114 24279968 24260312 24242408 
3039.519 24226152 24211646 24199982 24191820 24187966 24188562 24193220 
3042.894 24201138 24211402 24223454 24236556 24250712 24265566 24281126 
3046.269 24296858 24312346 24327378 24342062 24356956 24372726 24390322 
3049.645 24410158 24432486 24457094 24483454 24511288 24540564 24571206 
3053.020 24603326 24636464 24670446 24704220 24737084 24768408 24798122 
3056.395 24826608 24854606 24882816 24911904 24942190 24973632 25006272 
3059.770 25040074 25075246 25112632 25152550 25195490 25241878 25291536 
3063.146 25344256 25399898 25457832 25517494 25578534 25640392 25702646 
3066.521 25764698 25826334 25886998 25946474 26004022 26059396 26112174 
3069.896 26162178 26209478 26254706 26298708 26342290 26385948 26429926 
3073.271 26473734 26517088 26559530 26600674 26641258 26681984 26723774 
3076.646 26767540 26813354 26861218 26910112 26958726 27006044 27051212 
3080.022 27094096 27135114 27175218 27215642 27257378 27301444 27347950 
3083.397 27396896 27447720 27499960 27553268 27607498 27662972 27720076 
3086.772 27779062 27839962 27901930 27964298 28026072 28086832 28147032 
3090.147 28207314 28269192 28333734 28401434 28471940 28544330 28617158 
3093.523 28689504 28760692 28831078 28902078 28974612 29049886 29128468 
3096.898 29210042 29293934 29378978 29464108 29548442 29631264 29712720 
3100.273 29792736 29872018 29951142 30030882 30111664 30193636 30276298 
3103.648 30359332 30441848 30523384 30604190 30684582 30765454 30847690 
3107.024 30931828 31017726 31105350 31194026 31283218 31372744 31462222 
3110.399 31551256 31639416 31726058 31810690 31892982 31973616 32053478 
3113.774 32133960 32216032 32300398 32386604 32473862 32561210 32648108 
3117.149 32735060 32822854 32912630 33004820 33099250 33194590 33289022 
3120.525 33380542 33468462 33552826 33634696 33715940 33797484 33880692 
3123.900 33965276 34050704 34136536 34222288 34308120 34394580 34482100 
3127.275 34571108 34661676 34753704 34846640 34940500 35034992 35129824 
3130.650 35224860 35319948 35414628 35508896 35603076 35697532 35793156 
3134.026 35890352 35989116 36089164 36189556 36289540 36388468 36486120 
3137.401 36582892 36679360 36776068 36873268 36970776 37068488 37166040 
3140.776 37263576 37361536 37460524 37560984 37662836 37765624 37868536 
3144.151 37970716 38071472 38170592 38268896 38366864 38465472 38565364 
3147.527 38666476 38768772 38871488 38974160 39076564 39178448 39280068 
3150.902 39381964 39484648 39588624 39694512 39802496 39912360 40023960 
3154.277 40136424 40248808 40360132 40469376 40575548 40678844 40779248 
3157.652 40877712 40975320 41073320 41172320 41273020 41374948 41477812 
3161.028 41581172 41684812 41788880 41894324 42001868 42112076 42224860 
3164.403 42339176 42453156 42564860 42672284 42774248 42870712 42962700 
3167.778 43051780 43139928 43228968 43320192 43414360 43511372 43610824 
3171.153 43711944 43813492 43914404 44013144 44108928 44201144 44289816 
3174.529 44374912 44457088 44536600 44613628 44688284 44760676 44831500 
3177.904 44901452 44971932 45044184 45118768 45195756 45274260 45353148 
3181.279 45431464 45508468 45584200 45659276 45734372 45809920 45885776 
3184.654 45961312 46036016 46109552 46182256 46254788 46328064 46402500 
3188.030 46478056 46553804 46628872 46702100 46773316 46842808 46911424 
3191.405 46980312 47050056 47121144 47193424 47265976 47338688 47410560 
3194.780 47481116 47549832 47616268 47680092 47741444 47800692 47858624 
3198.155 47916488 47974804 48034124 48094564 48155976 48218208 48281448 
3201.531 48345964 48411816 48478868 48546224 48612404 48675668 48735012 
3204.906 48789692 48841076 48890248 48939236 48989116 49040380 49092352 
3208.281 49144928 49197580 49250504 49304280 49359440 49416016 49472752 
3211.656 49528080 49580224 49628436 49673012 49715996 49759912 49807144 
3215.031 49858836 49914512 49972388 50029980 50085040 50136772 50185268 
3218.407 50232280 50279748 50329412 50382916 50440820 50503044 50569192 
3221.782 50638400 50709556 50781136 50851676 50920152 50985464 51047544 
3225.157 51106616 51163612 51219308 51274336 51329112 51383488 51437644 
3228.532 51491508 51545420 51599672 51655084 51712036 51770936 51832312 
3231.908 51896680 51963972 52034336 52106880 52180516 52254016 52325848 
3235.283 52395564 52463304 52529976 52596952 52665364 52735504 52807232 
3238.658 52879824 52952620 53025728 53099748 53175580 53254080 53334508 
3242.033 53415252 53493868 53568456 53637768 53703156 53766976 53832496 
3245.409 53903052 53979884 54062544 54149276 54237868 54325876 54412888 
3248.784 54498900 54584892 54671580 54759372 54847296 54934748 55020340 
3252.159 55103464 55184384 55263548 55341528 55418880 55495792 55572152 
3255.534 55648152 55723748 55799472 55875664 55952540 56029740 56107176 
3258.910 56183944 56259716 56334096 56406908 56478260 56547888 56615828 
3262.285 56681856 56746340 56809444 56871492 56932684 56993092 57051956 
3265.660 57108832 57162984 57214504 57263948 57312036 57360020 57408496 
3269.035 57457700 57507172 57556084 57603712 57649492 57693768 57736604 
3272.411 57778124 57818548 57857388 57894640 57930228 57964308 57997704 
3275.786 58031180 58065528 58100640 58136812 58173560 58210876 58248840 
3279.161 58287600 58327696 58369236 58411720 58454972 58498116 58541028 
3282.536 58583952 58627336 58671972 58718172 58766572 58816648 58868216 
3285.912 58921072 58975608 59032200 59091380 59153380 59217856 59284428 
3289.287 59352152 59420080 59487748 59554856 59621712 59688692 59756328 
3292.662 59825264 59896728 59971620 60051320 60136404 60227060 60322916 
3296.037 60423164 60526716 60632964 60741672 60853148 60967596 61085044 
3299.413 61204700 61325572 61446936 61568792 61692092 61818872 61951260 
3302.788 62090880 62237696 62390760 62548040 62707796 62868880 63031740 
3306.163 63197576 63368456 63545504 63729456 63919396 64114564 64313816 
3309.538 64516776 64723060 64932556 65145232 65360560 65577844 65796964 
3312.914 66018900 66244848 66476896 66716492 66963792 67217544 67474880 
3316.289 67732528 67987960 68240064 68488968 68736040 68983136 69231504 
3319.664 69481520 69732776 69984176 70234936 70483864 70730592 70974536 
3323.039 71215568 71454040 71690264 71925080 72159088 72393152 72626904 
3326.415 72859368 73088632 73312880 73530752 73741648 73946472 74145992 
3329.790 74340592 74530000 74712088 74884448 75044200 75189672 75319584 
3333.165 75433768 75532008 75614456 75680560 75729704 75762728 75780912 
3336.540 75787104 75784424 75775000 75759288 75736288 75702416 75653704 
3339.916 75587008 75500152 75392656 75264968 75118528 74954304 74773480 
3343.291 74576688 74364848 74138528 73898584 73644752 73376816 73093536 
3346.666 72793936 72478016 72146648 71802160 71447480 71085584 70718584 
3350.041 70347408 69972416 69593360 69210712 68824936 68437224 68048296 
3353.417 67658144 67265936 66871060 66472924 66072060 65670604 65271600 
3356.792 64877764 64491944 64115292 63748108 63390040 63040816 62700948 
3360.167 62370828 62051164 61741860 61441632 61148624 60860048 60574064 
3363.542 60289144 60005400 59724200 59447092 59176160 58913444 58660064 
3366.917 58417484 58186136 57966008 57756324 57555212 57360740 57170204 
3370.293 56981380 56792864 56603900 56414604 56225164 56035692 55845740 
3373.668 55654520 55461228 55265620 55066940 54865340 54660152 54450368 
3377.043 54234676 54011104 53778004 53534532 53280264 53015476 52741116 
3380.418 52457624 52165236 51864008 51553552 51233584 50904500 50566624 
3383.794 50220824 49868276 49509960 49147080 48781200 48413592 48045596 
3387.169 47678096 47311604 46946016 46580732 46215128 45848364 45480800 
3390.544 45113036 44746092 44381956 44022200 43668196 43321220 42981172 
3393.919 42647684 42319412 41994428 41670772 41346852 41022224 40697072 
3397.295 40373184 40052628 39737424 39428400 39124892 38825616 38528212 
3400.670 38231120 37933252 37635088 37337592 37041964 36748988 36458444 
3404.045 36169028 35879988 35590308 35300396 35011392 34725060 34442644 
3407.420 34164392 33889468 33616044 33342150 33066460 32788764 32510712 
3410.796 32234266 31962310 31697474 31441204 31194026 30955170 30723130 
3414.171 30496050 30272036 30049878 29828862 29608952 29390678 29174710 
3417.546 28961684 28751700 28544792 28340420 28138266 27938432 27741728 
3420.921 27548926 27361326 27179698 27003856 26833164 26665812 26500112 
3424.297 26334756 26169076 26002966 25837342 25672766 25509904 25349314 
3427.672 25190576 25033616 24878570 24725300 24574258 24425792 24279968 
3431.047 24136576 23995542 23856236 23718722 23582862 23448968 23317212 
3434.422 23187910 23060810 22935390 22811716 22689336 22568422 22449564 
3437.798 22333180 22219512 22108490 21999238 21890746 21782246 21673042 
3441.173 21563308 21453846 21345594 21238970 21133972 21029278 20923080 
3444.548 20813116 20697902 20576808 20451340 20324554 20200234 20081952 
3447.923 19972376 19871502 19777792 19687706 19597364 19503646 19404262 
3451.299 19299222 19189638 19078278 18967466 18859624 18755964 18656718 
3454.674 18561436 18468976 18378092 18287746 18196934 18105278 18012950 
3458.049 17920192 17827732 17736016 17645318 17555158 17464706 17373136 
3461.424 17278964 17182158 17082926 16982408 16882258 16783818 16688397 
3464.800 16596198 16506910 16419772 16334064 16249301 16165208 16081853 
3468.175 15999304 15917528 15836455 15756050 15676312 15597240 15518939 
3471.550 15441649 15365160 15288960 15212808 15136017 15058486 14980728 
3474.925 14903395 14827653 14754941 14686354 14622507 14563980 14510292 
3478.301 14460720 14413930 14368000 14320397 14269478 14213908 14153485 
3481.676 14089443 14023801 13959504 13899048 13844005 13794817 13750731 
3485.051 13710411 13671942 13634228 13596380 13558024 13519499 13480944 
3488.426 13442905 13406030 13370697 13337827 13307692 13280942 13257029 
3491.802 13235610 13215763 13196602 13177953 13159748 13142535 13127270 
3495.177 13114805 13105687 13100564 13099335 13102648 13111015 13124845 
3498.552 13144379 13169619 13199539 13232741 13267209 13301713 13335435 
3501.927 13368442 13401520 13435933 13473322 13514576 13560827 13612415 
3505.302 13670267 13734179 13804463 13880573 13961215 14044951 14129900 
3508.678 14215107 14299919 14385227 14472367 14562712 14657085 14755352 
3512.053 14856556 14959567 15063185 15166691 15270496 15375149 15480825 
3515.428 15587281 15693316 15797144 15897043 15991982 16081819 16166825 
3518.803 16247855 16324809 16396718 16461378 16515892 16556956 16582187 
3522.179 16590759 16582187 16558299 16520780 16471598 16411858 16341874 
3525.554 16260412 16165724 16056100 15930040 15787454 15629526 15458815 
3528.929 15278561 15092207 14902263 14711272 14520158 14330260 14142292 
3532.304 13956732 13773612 13591936 13410234 13226080 13037736 12844013 
3535.680 12645634 12444653 12244139 12047227 11856090 11671879 11494347 
3539.055 11322940 11156972 10996370 10841704 10693409 10551683 10416010 
3542.430 10284485 10155205 10025759 9894590 9760986 9624984 9487670 9350196 
3546.288 9214255 9081368 8952953 8830324 8713813 8603486 8498154 8396360 
3550.145 8296381 8197032 8097705 7999313 7903608 7812749 7728419 7651557 
3554.002 7581149 7516012 7453749 7392338 7330127 7266072 7199837 7131455 
3557.860 7061401 6989641 6916816 6843463 6770124 6698277 6628932 6564139 
3561.717 6505343 6454155 6410774 6374694 6343929 6314814 6282709 6242471 
3565.575 6189869 6122890 6042482 5952918 5861392 5774585 5697833 5633783 
3569.432 5581288 5537458 5498195 5460077 5420352 5378215 5333767 5287983 
3573.290 5242304 5197602 5154481 5113275 5073883 5036171 4999970 4965348 
3577.147 4932136 4900200 4869037 4837842 4806080 4773349 4739616 4705650 
3581.004 4672860 4643455 4619410 4603068 4595466 4596336 4603603 4613415 
3584.862 4620548 4618438 4601326 4565296 4510017 4439447 4361960 4287767 
3588.719 4225966 4182940 4160125 4155074 4161898 4173841 4184112 4187423 
3592.577 4180231 4161463 4131825 4093826 4050848 4006837 3965539 3930197 
3596.434 3903115 3885195 3876169 3873695 3874497 3874965 3871656 3862262 
3600.292 3846516 3825825 3802460 3779397 3759209 3742966 3731704 3725688 
3604.149 3724318 3727159 3732974 3739257 3743134 3740560 3728863 3706940 
3608.006 3676431 3641980 3609170 3583144 3565972 3556552 3550538 3542287 
3611.864 3527355 3503873 3473745 3441648 3413829 3395562 3389618 3394928 
3615.721 3407751 3422312 3433132 3434468 3423514 3399469 3364306 3322836 
3619.579 3280835 3243913 3216239 3199216 3192039 3192740 3198548 3208262 
3623.436 3222081 3241809 3269651 3307444 3354556 3406515 3455910 3491848 
3627.293 3502637 3479957 3421710 3336325 3240674 3154724 3092549 3058513 
3631.151 3048402 3053340 3063317 3069658 3067455 3055343 3035222 3011099 
3635.008 2986977 2965992 2948812 2934701 2921891 2909015 2895773 2882664 
3638.866 2871290 2863519 2859950 2860984 2865821 2873258 2882497 2893204 
3642.723 2906247 2922425 2942840 2968061 2997086 3028382 3059647 3088011 
3646.581 3110403 3123886 3125454 3112105 3081204 3032486 2968895 2897307 
3650.438 2828566 2774509 2743664 2740296 2762170 2802220 2849811 2893371 
3654.295 2922859 2930698 2914953 2879295 2833035 2787180 2751600 2732027 
3658.153 2728793 2739063 2758036 2781144 2804255 2824631 2840740 2851579 
3662.010 2857049 2857749 2854814 2850645 2847877 2850045 2860651 2882397 
3665.868 2916621 2962523 3016971 3073428 3125287 3164937 3188568 3198848 
3669.725 3205958 3227288 3280635 3378932 3525919 3716230 3937151 4171365 
3673.583 4399447 4597174 4738812 4803132 4778575 4670817 4499169 4288871 
3677.440 4061116 3830605 3607733 3400504 3217675 3067322 2954516 2879496 
3681.297 2836871 2818061 2813592 2816227 2822630 2833269 2849811 2873425 
3685.155 2903011 2934000 2960121 2974066 2970496 2947978 2909616 2862585 
3689.012 2815393 2774975 2744098 2722358 2707721 2697885 2692584 2692384 
3692.870 2698185 2710388 2728260 2749433 2771007 2790282 2805522 2816827 
3696.727 2825865 2834803 2845709 2859317 2874559 2888568 2898008 2899942 
3700.584 2892837 2877928 2858850 2840539 2827999 2824064 2830067 2844308 
3704.442 2864420 2887667 2911717 2935001 2957485 2979203 3000222 3020308 
3708.299 3038058 3051005 3055876 3048936 3026981 2988712 2935334 2871824 
3712.157 2805855 2746198 2700719 2674447 2667980 2679015 2702986 2734561 
3716.014 2768539 2801253 2830701 2856248 2878995 2899675 2918889 2936769 
3719.872 2952848 2966426 2977702 2987411 2997286 3009297 3024345 3042429 
3723.729 3061883 3079936 3093517 3100725 3101460 3097522 3093283 3093884 
3727.586 3103428 3123986 3154423 3191405 3229291 3262273 3285709 3297528 
3731.444 3299030 3294223 3288547 3285442 3285142 3283439 3273958 3251290 
3735.301 3213736 3165170 3113841 3069925 3040327 3027281 3029016 3041595 
3739.159 3061983 3089279 3124219 3167841 3218743 3272222 3317827 3341801 
3743.016 3330248 3275527 3183227 3074329 2979771 2924260 2915753 2946543 
3746.874 3000155 3058479 3106198 3133364 3136501 3118045 3084007 3041395 
3750.731 2995751 2949579 2905079 2865587 2835336 2819128 2819395 2835036 
3754.588 2861485 2892404 2921624 2944175 2958453 2964758 2965058 2961088 
3758.446 2953315 2941072 2924059 2903145 2881730 2865120 2857783 2861685 
3762.303 2875893 2895906 2915320 2929630 2935601 2934501 2929964 2927529 
3766.161 2930831 2940472 2953215 2963590 2965959 2956418 2934634 2903645 
3770.018 2869890 2839839 2818895 2809357 2810691 2820195 2834436 2850145 
3773.875 2865254 2878962 2891904 2905580 2921391 2939504 2958586 2975167 
3777.733 2985376 2985309 2973332 2951314 2924226 2899475 2883065 2878728 
3781.590 2886000 2901010 2917922 2931231 2937236 2935101 2926528 2914919 
3785.448 2904345 2897007 2894305 2896140 2901743 2910216 2920924 2933033 
3789.305 2945409 2956952 2966426 2973699 2979404 2985275 2993116 3004092 
3793.163 3017305 3029750 3037224 3035689 3023344 3002090 2978003 2960321 
3797.020 2957052 2972965 3006828 3051739 3096254 3126956 3132529 3105831 
3800.877 3049403 2975367 2903411 2853446 2836570 2853613 2895840 2949379 
3804.735 2997887 3027915 3030584 3004559 2956851 2901210 2853246 2823964 
3808.592 2816460 2826966 2849178 2876427 2905046 2935034 2968695 3008596 
3812.450 3054842 3103962 3148015 3177787 3183862 3162000 3115543 3057812 
3816.307 3006428 2977902 2980271 3011232 3060415 3111838 3150185 3162300 
3820.165 3141407 3089446 3018806 2947744 2892971 2864620 2863119 2881597 
3824.022 2909983 2938570 2960588 2972998 2977535 2978336 2981672 2991948 
3827.879 3010532 3035489 3061983 3084774 3099257 3103228 3097855 3087310 
3831.737 3077499 3074830 3083973 3106932 3142342 3185631 3230560 3269518 
3835.594 3294991 3301601 3287045 3253093 3205925 3154957 3109969 3077499 
3839.452 3060481 3057044 3062917 3072427 3080770 3084874 3083473 3077099 
3843.309 3067222 3056510 3047268 3042196 3043397 3052273 3069491 3095253 
3847.167 3128825 3169443 3216540 3269651 3328211 3390653 3453872 3511054 
3851.024 3552509 3565905 3538546 3462990 3343136 3198348 3057712 2947944 
3854.881 2884099 2865287 2881197 2918088 2964725 3012834 3057712 3097622 
3858.739 3132363 3161766 3185798 3204656 3218376 3227555 3233230 3235300 
3862.596 3233764 3226587 3212801 3193107 3171312 3154090 3149183 3162133 
3866.454 3192740 3235700 3279867 3312786 3323337 3305641 3262874 3207193 
3870.311 3155792 3122117 3111805 3120849 3139104 3155124 3160798 3153856 
3874.168 3138437 3123051 3116377 3124687 3148783 3184996 3226354 3265411 
3878.026 3295425 3311384 3311450 3296660 3272055 3244981 3224017 3216606 
3881.883 3226254 3251624 3286444 3321767 3346308 3350816 3331049 3290250 
3885.741 3239306 3192974 3165371 3163201 3185397 3224117 3268616 3307511 
3889.598 3332318 3338562 3326943 3302903 3274492 3249621 3234299 3230660 
3893.456 3238404 3255663 3280134 3309614 3342135 3376027 3409087 3439010 
3897.313 3463324 3479857 3487072 3485201 3475482 3460719 3443986 3427788 
3901.170 3412694 3398167 3381871 3361668 3336392 3306977 3276094 3248319 
3905.028 3227789 3217074 3216106 3222949 3234132 3246483 3257266 3266112 
3908.885 3273290 3280267 3288480 3298596 3310783 3324705 3339864 3355892 
3912.743 3372788 3390086 3406849 3421377 3431295 3434501 3429926 3418204 
3916.600 3401840 3384409 3369582 3359565 3354690 3354489 3357528 3362837 
3920.458 3370117 3379767 3391789 3405380 3418371 3427688 3430527 3424950 
3924.315 3411658 3393692 3375426 3361702 3355758 3358830 3369916 3386846 
3928.172 3406515 3426085 3443753 3457813 3467499 3472041 3470973 3464526 
3932.030 3453538 3440079 3426586 3415165 3407384 3403276 3401707 3400772 
3935.887 3399035 3395395 3390419 3385678 3383173 3385143 3392189 3403744 
3939.745 3417770 3431262 3441147 3445122 3442250 3433633 3421644 3409655 
3943.602 3400772 3397232 3399402 3406182 3415599 3425317 3433199 3438409 
3947.459 3440713 3440680 3439244 3437006 3434368 3431229 3427655 3423981 
3951.317 3421143 3420575 3423247 3430026 3440580 3453605 3467566 3480492 
3955.174 3490846 3498261 3503105 3505977 3507881 3509685 3511522 3513493 
3959.032 3515130 3516098 3516466 3516432 3516532 3517401 3519505 3523514 
3962.889 3529293 3536441 3544292 3551875 3558623 3563734 3567409 3570014 
3966.747 3572153 3574525 3577130 3579870 3581975 3582676 3581641 3579302 
3970.604 3576730 3575460 3577130 3582576 3591463 3602588 3614248 3624305 
3974.461 3631255 3634696 3634663 3632257 3628649 3625107 3622467 3621365 
3978.319 3622167 3625107 3629851 3635966 3642715 3649097 3654210 3657083 
3982.176 3657183 3654878 3650367 3644720 3639107 3634462 3631856 3631957 
3986.034 3634830 3640477 3648028 3656114 3662697 3666439 3665938 3661060 
3989.891 3652907 3642883 3633493 3626744 3623637 3624372 3628415 3634195 
3993.749 3640243 3645622 3649331 3651136 3651470 3650902 3649933 3649699 
3997.606 3650668 3653107 3657183 3662095 3666840 3670215 3671184 
##END=
