
##TITLE=mdmaHCL00403_5
##JCAMP-DX=5.01  $$ Nicolet v. 1
##DATATYPE=INFRARED SPECTRUM
##ORIGIN=UniL
##OWNER=Nicolet
##LONGDATE=2011/08/23
##TIME=11:23:18
##SPECTROMETER/DATA SYSTEM=Nicolet iS5
##DATA PROCESSING=
Ratio against background
%Transmittance->Absorbance
Truncated
ElementMultiply or ElementDivide
##COMMENTS=
Number of sample scans: 32
Collection length: 51.22 sec
Sample gain: 2.0
Background collected on: Mar Aout 23 11:21:55 2011 (GMT+02:00);
Number of background scans: 32
Background gain: 2.0
Sample spacing:  1.000
Number of scan points: 12415
Resolution points: 8192
Number of FFT points: 65536
Apodization: N-B fort;
Phase correction: Mertz;
Laser frequency: 15798.0 cm-1
Number of rejected sample scans: 0
Number of rejected background scans: 0
Bench serial number: ASB1000141;
##RESOLUTION=4.000
##XUNITS=1/CM
##YUNITS=ABSORBANCE
##FIRSTX=649.893372
##LASTX=4000.122314
##FIRSTY=0.082581
##MAXX=4000.122314
##MINX=649.893372
##MAXY=0.230317
##MINY=-0.000252
##XFACTOR=1.000000
##YFACTOR=1.000000E-009
##NPOINTS=6950
##DELTAX=0.482117
##ZPD=6100
##XYDATA=(X++(Y..Y))
649.893 82581464 81956320 81399264 80935760 80570464 80291856 80083632 
653.268 79936952 79856416 79856856 79951880 80143672 80416368 80740752 
656.643 81085856 81431952 81777728 82137992 82532048 82970144 83448152 
660.018 83948184 84451496 84948656 85448568 85974144 86554536 87211648 
663.393 87949384 88754376 89603560 90471936 91332088 92154240 92895176 
666.767 93488848 93861800 93964840 93814880 93495008 93108792 92727208 
670.142 92365352 91995528 91570536 91049840 90410768 89661104 88832024 
673.517 87967360 87104080 86261072 85440344 84635696 83844840 83074280 
676.892 82339440 81654904 81026312 80446080 79895728 79352880 78802120 
680.267 78238528 77667000 77095304 76528400 75965104 75399040 74825440 
683.642 74246192 73671016 73115456 72594512 72115008 71674896 71264912 
687.016 70874976 70499144 70139248 69801608 69493264 69215920 68963480 
690.391 68723896 68485672 68241848 67994280 67752280 67527864 67331192 
693.766 67167032 67034700 66931748 66858464 66819392 66823832 66881344 
697.141 66998780 67177080 67410872 67692176 68012880 68369040 68759520 
700.516 69184016 69639880 70118688 70607544 71091328 71557128 71997624 
703.890 72412648 72806160 73182184 73542024 73882872 74199456 74487360 
707.265 74745496 74976624 75185728 75377840 75555464 75720712 75878880 
710.640 76040024 76222864 76450000 76741616 77108128 77542400 78017288 
714.015 78487128 78901208 79209816 79376944 79388040 79249864 78990304 
717.390 78650152 78283328 77951032 77713320 77631264 77755960 78119368 
720.765 78727520 79550216 80521208 81532800 82457448 83166560 83546216 
724.139 83531552 83116928 82363272 81379872 80305848 79280728 78404440 
727.514 77733136 77272224 76991208 76841496 76775736 76762456 76784200 
730.889 76835768 76914000 77013168 77122528 77232120 77335600 77435392 
734.264 77539320 77657576 77795592 77950912 78114296 78275512 78428776 
737.639 78575344 78723864 78883448 79059144 79247840 79438920 79619856 
741.013 79783192 79929024 80065816 80204296 80352016 80509128 80668928 
744.388 80821680 80961112 81088528 81212152 81342672 81487272 81645512 
747.763 81809168 81967328 82110888 82237968 82354096 82468464 82587544 
751.138 82712480 82838128 82956664 83063160 83158616 83250280 83347656 
754.513 83457664 83580552 83709944 83837168 83956024 84066952 84175856 
757.888 84291824 84421912 84567776 84725936 84890888 85059760 85234224 
761.262 85421064 85628112 85859616 86114912 86389480 86678384 86982336 
764.637 87309960 87678976 88112024 88630712 89251864 89981744 90813472 
768.012 91721528 92660848 93570464 94374640 95004720 95419304 95624120 
771.387 95682808 95710440 95848744 96208224 96832320 97658656 98529640 
774.762 99211880 99458904 99096144 98052232 96390120 94268952 91907568 
778.136 89512296 87224080 85113160 83174952 81358536 79594704 77826552 
781.511 76022456 74176928 72306456 70440064 68613792 66862672 65219500 
784.886 63712188 62360004 61173420 60153568 59295140 58589568 58029624 
788.261 57612756 57341760 57222784 57261832 57463752 57830736 58364760 
791.636 59070276 59955984 61034212 62317700 63812384 65511608 67388312 
795.010 69395872 71466736 73512544 75439640 77149000 78547432 79567640 
798.385 80175160 80384552 80258176 79907632 79472736 79086568 78862152 
801.760 78856192 79054808 79368664 79647320 79713360 79383936 78528408 
805.135 77094592 75126048 72752048 70159224 67554848 65101080 62893384 
808.510 60941780 59184476 57513868 55816500 54015380 52081364 50040500 
811.885 47953932 45900692 43951396 42153040 40530188 39086568 37813336 
815.259 36697140 35724476 34882904 34159012 33538938 33008754 32555494 
818.634 32170426 31848982 31590272 31395186 31264200 31195842 31187796 
822.009 31237284 31344042 31509962 31740102 32040636 32416806 32872066 
825.384 33405912 34012968 34680264 35386660 36102916 36789268 37403752 
828.759 37908232 38275300 38499900 38601612 38626960 38638512 38709832 
832.133 38914760 39310900 39934592 40789584 41841708 43011828 44178252 
835.508 45197848 45908092 46164900 45875168 45008940 43615952 41809636 
838.883 39753620 37618428 35553200 33675408 32050408 30700832 29616118 
842.258 28766958 28116702 27627766 27269054 27013096 26836724 26722118 
845.633 26655596 26628222 26635726 26675432 26745480 26842396 26961300 
849.008 27097340 27247534 27411544 27591998 27792308 28015116 28260918 
852.382 28528018 28814224 29118972 29444748 29796852 30181808 30605398 
855.757 31071608 31582612 32139882 32747246 33411636 34143528 34956444 
859.132 35864368 36882248 38025648 39310860 40755516 42374500 44173484 
862.507 46139216 48231540 50378824 52473028 54389340 55998188 57180676 
865.882 57858976 58003116 57640716 56850004 55755092 54509756 53263784 
869.256 52161796 51320536 50815848 50690452 50951332 51576984 52519992 
872.631 53713128 55074160 56498448 57870712 59072440 59983072 60507068 
876.006 60584044 60197372 59378440 58199172 56762656 55176520 53546864 
879.381 51964044 50488272 49154872 47973768 46935308 46019512 45203108 
882.756 44469788 43810636 43227360 42728396 42325260 42026836 41836856 
886.131 41753348 41770788 41884364 42092980 42399960 42813116 43339776 
889.505 43983296 44740144 45598516 46543036 47556928 48627080 49747876 
892.880 50920152 52150104 53445864 54814700 56258692 57772144 59335896 
896.255 60913648 62449596 63862196 65054624 65926104 66380256 66352004 
899.630 65816164 64795828 63356264 61597160 59641972 57610068 55615384 
903.005 53754640 52094476 50679652 49530312 48648020 48020760 47629212 
906.379 47453284 47473908 47676908 48054112 48601324 49317904 50204272 
909.754 51261176 52488504 53884336 55443272 57153648 58995080 60933588 
913.129 62925980 64919740 66860280 68703824 70422448 72011544 73489552 
916.504 74896536 76285544 77709472 79215552 80830296 82550400 84334672 
919.879 86102592 87743408 89118160 90093408 90566416 90486880 89883192 
923.254 88865608 87628416 86408000 85465880 85053472 85353344 86467560 
926.628 88387088 90994560 94060904 97272440 100294512 102775904 104417216 
930.003 105014160 104452032 102721544 99897864 96126768 91597248 86522104 
933.378 81140648 75683600 70365328 65381088 60874728 56946248 53652164 
936.753 51007448 49001172 47606472 46791396 46517808 46738776 47393080 
940.128 48389740 49604852 50895488 52095560 53048008 53631248 53765776 
943.502 53435296 52680696 51595116 50297900 48914052 47562144 46328876 
946.877 45268744 44405960 43738252 43247600 42907576 42692680 42579260 
950.252 42546992 42579844 42662268 42780244 42922208 43079332 43246868 
953.627 43424652 43615292 43823060 44051536 44303172 44578600 44878008 
957.002 45201160 45548464 45919584 46313468 46727336 47157304 47598784 
960.377 48048892 48506544 48973244 49451292 49942836 50448260 50966236 
963.751 51494496 52031572 52578028 53136520 53710316 54302072 54912040 
967.126 55537924 56176556 56825080 57483572 58155148 58845144 59558924 
970.501 60300604 61072004 61873808 62707184 63575156 64482912 65436944 
973.876 66442608 67502632 68616624 69782264 70997552 72262864 73581424 
977.251 74958472 76399312 77907376 79484240 81130624 82848904 84644720 
980.625 86527680 88508576 90596832 92797200 95108080 97520688 100019440 
984.000 102582624 105178208 107758864 110262472 112604888 114684800 
986.893 116402712 117663256 118397232 118573904 118202920 117335936 
989.786 116055392 114475760 112723336 110925296 109208632 107677592 
992.678 106409768 105456448 104837680 104549984 104574048 104884888 
995.571 105456576 106266192 107295992 108529016 109947384 111533008 
998.464 113265872 115125600 117093424 119146520 121255360 123380832 
1001.356 125467432 127449048 129258152 130829368 132116648 133098112 
1004.249 133778792 134189296 134382032 134429840 134413504 134421760 
1007.142 134544784 134858800 135426384 136288560 137461728 138943792 
1010.035 140718128 142763696 145056896 147575776 150299872 153204656 
1012.927 156262720 159445600 162723584 166071712 169467840 172884304 
1015.820 176280672 179592512 182720752 185546496 187938304 189774160 
1018.713 190974464 191514848 191440080 190856384 189930832 188872160 
1021.605 187892032 187207520 187003616 187408736 188498352 190281120 
1024.498 192710976 195693136 199107216 202826432 206714768 210646272 
1027.391 214499856 218149456 221477584 224375152 226749440 228541648 
1030.284 229725936 230308560 230316544 229789712 228772304 227306416 
1033.177 225438208 223214416 220677696 217864816 214797728 211481504 
1036.070 207909616 204074176 199977872 195643632 191116080 186455920 
1038.963 181736832 177030544 172404736 167924288 163643008 159605296 
1041.856 155840464 152353872 149122208 146093232 143197744 140357360 
1044.750 137505568 134605632 131654888 128688872 125767920 122973088 
1047.643 120386952 118081312 116117552 114535792 113355296 112575984 
1050.536 112179368 112132136 112388856 112901456 113622248 114505728 
1053.429 115514288 116610352 117751504 118890264 119965976 120908296 
1056.322 121648784 122120600 122270600 122066824 121497408 120575376 
1059.215 119336456 117843024 116179208 114441688 112742400 111187160 
1062.108 109867792 108861176 108216584 107960456 108097832 108614880 
1065.001 109480168 110643064 112039192 113584120 115177744 116721096 
1067.894 118113624 119269992 120130096 120654544 120826624 120646536 
1070.787 120126512 119286344 118151112 116752096 115122360 113296496 
1073.680 111312624 109209608 107031368 104832448 102673824 100625064 
1076.573 98761504 97149512 95846472 94892952 94307320 94088144 94212760 
1079.948 94641504 95313984 96151408 97064112 97947768 98700240 99238152 
1083.324 99504400 99486152 99216040 98772488 98263208 97810040 97542304 
1086.699 97569880 97980568 98832888 100146816 101902496 104036400 106451552 
1090.074 109014296 111568264 113963280 116055048 117728960 118912752 
1092.967 119570016 119702296 119339768 118537552 117364896 115896088 
1095.860 114211336 112383832 110476808 108546848 106637584 104782720 
1098.753 103006272 101319056 99717112 98178456 96666960 95134432 93530392 
1102.129 91817424 89977136 88020224 85983104 83926840 81925312 80050320 
1105.504 78371144 76943192 75804384 74979496 74478272 74297768 74424264 
1108.879 74835360 75501648 76386152 77449448 78648568 79934280 81256056 
1112.254 82555608 83768048 84830336 85679616 86263088 86545640 86509208 
1115.630 86154752 85498392 84569112 83404544 82045968 80540400 78933752 
1119.005 77267192 75577584 73891432 72226392 70594096 69002168 67458472 
1122.380 65972924 64557024 63222332 61978512 60830584 59780092 58826324 
1125.755 57969264 57212348 56564988 56039764 55653164 55420460 55352332 
1129.131 55452872 55717232 56131456 56670564 57300320 57978884 58655552 
1132.506 59280060 59807088 60202472 60452376 60564960 60571588 60517808 
1135.881 60459152 60451576 60538336 60748340 61089468 61548440 62090960 
1139.256 62665120 63211644 63663000 63956208 64041488 63880704 63454992 
1142.632 62761432 61811460 60626484 59236236 57678516 55994004 54227056 
1146.007 52424496 50628348 48877196 47204504 45634140 44184232 42866436 
1149.382 41686276 40645040 39740296 38966908 38317388 37783800 37358684 
1152.757 37035940 36812028 36685348 36655492 36722124 36883620 37136336 
1156.133 37474828 37893048 38384636 38944692 39568728 40252480 40991780 
1159.508 41781292 42614896 43487200 44392896 45326408 46281548 47248020 
1162.883 48210064 49147116 50032204 50835476 51528516 52083008 52475196 
1166.258 52686608 52702920 52516512 52126940 51542356 50778452 49858056 
1169.634 48809600 47661824 46443648 45183216 43904360 42629992 41381292 
1173.009 40176076 39031392 37961064 36975504 36082504 35286956 34591524 
1176.384 33998420 33508800 33123780 32844618 32671828 32605744 32646428 
1179.759 32794874 33052872 33423874 33911856 34520772 35253928 36112420 
1183.135 37095732 38201884 39427276 40765344 42204448 43726820 45303424 
1186.510 46894408 48453232 49924064 51251068 52384084 53278168 53901512 
1189.885 54236820 54282280 54053052 53579216 52905872 52083828 51168048 
1193.260 50213572 49266720 48367260 47545768 46821696 46206060 45700688 
1196.635 45300296 44992180 44758400 44577424 44423652 44269932 44089856 
1200.011 43855276 43540488 43124084 42589092 41928188 41145000 40255608 
1203.386 39286160 38269872 37244012 36241708 35291088 34412476 33617192 
1206.761 32909986 32290332 31755254 31299420 30916920 30601666 30347180 
1210.136 30147322 29997896 29896264 29842596 29839118 29889412 29997152 
1213.512 30164724 30393482 30683196 31032496 31438712 31897902 32404170 
1216.887 32949128 33522758 34114316 34713396 35311968 35904244 36486728 
1220.262 37057588 37615612 38160604 38693532 39218156 39741748 40274148 
1223.637 40828420 41417772 42053340 42743680 43492876 44300200 45159576 
1227.013 46059744 46983376 47906680 48802516 49640952 50393000 51036328 
1230.388 51555568 51945448 52210296 52364052 52430592 52440648 52435528 
1233.763 52463716 52575896 52826912 53267492 53939476 54877748 56105176 
1237.138 57634816 59470916 61609380 64037568 66730172 69651360 72750136 
1240.514 75960880 79213240 82430008 85532768 88451056 91115880 93464192 
1243.889 95444520 97014192 98145808 98829104 99069704 98886024 98304752 
1247.264 97361368 96096296 94553672 92783288 90831656 88737512 86526552 
1250.639 84206176 81767768 79192768 76464424 73577080 70545872 67406960 
1254.015 64217852 61050836 57977936 55070100 52384908 49959084 47810460 
1257.390 45935124 44311576 42902240 41660632 40537612 39481708 38449504 
1260.765 37408156 36335580 35223924 34076684 32906484 31730872 30569740 
1264.140 29443224 28367724 27357232 26421828 25566726 24793982 24101692 
1267.516 23485132 22937694 22452458 22023220 21645632 21316918 21035468 
1270.891 20799596 20607140 20455056 20340386 20261052 20216410 20207800 
1274.266 20237376 20306986 20417166 20566178 20749406 20958684 21183476 
1277.641 21409464 21619164 21794998 21918728 21976166 21959680 21869210 
1281.017 21712262 21500948 21249930 20972210 20677642 20372750 20062068 
1284.392 19750154 19443694 19151198 18883226 18650976 18463790 18329598 
1287.767 18254536 18242788 18298666 18425622 18626454 18901636 19249448 
1291.142 19665274 20140986 20665410 21224426 21799072 22365970 22899622 
1294.518 23371442 23757638 24041662 24218198 24295246 24291602 24235716 
1297.893 24157242 24085684 24047160 24060820 24140570 24294264 24522788 
1301.268 24819346 25168526 25548556 25930400 26283114 26579432 26796156 
1304.643 26918678 26941556 26867530 26706332 26473452 26188854 25874444 
1308.019 25552352 25243492 24963806 24723792 24528678 24378720 24272330 
1311.394 24207582 24183412 24200192 24258106 24355870 24490186 24655962 
1314.769 24847868 25061556 25294908 25547574 25820780 26115658 26432850 
1318.144 26772720 27135958 27523932 27939032 28383146 28855546 29351220 
1321.520 29860272 30367610 30853524 31298172 31681790 31988524 32210392 
1324.895 32348904 32418058 32442796 32459758 32509856 32630284 32850624 
1328.270 33183504 33623528 34147904 34722868 35313080 35885420 36418228 
1331.645 36902088 37338388 37736924 38113324 38485704 38871672 39287504 
1335.021 39745776 40253572 40810912 41410664 42040124 42681532 43315724 
1338.396 43924560 44490672 44999604 45439632 45802076 46082876 46282060 
1341.771 46403644 46454120 46440480 46368504 46241996 46062836 45831936 
1345.146 45550524 45221380 44849168 44439140 43996276 43523128 43019660 
1348.521 42482568 41908044 41293936 40642856 39964416 39275132 38599908 
1351.897 37967860 37410144 36959084 36642876 36483596 36495132 36678928 
1355.272 37021900 37494444 38055196 38653364 39233676 39748320 40156232 
1358.647 40428752 40551468 40524112 40360604 40087076 39744796 39386244 
1362.022 39067176 38845656 38766632 38853192 39103792 39492700 39977384 
1365.398 40502360 41010424 41445480 41753788 41894980 41843640 41594880 
1368.773 41164016 40583228 39894708 39138740 38351916 37563368 36793812 
1372.148 36062228 35388888 34796492 34311600 33958684 33752860 33695672 
1375.523 33774276 33967532 34251432 34607920 35027696 35510800 36065184 
1378.899 36704960 37449440 38319956 39339156 40525168 41882136 43388764 
1382.274 44986928 46586008 48058920 49261560 50060392 50334136 50001236 
1385.649 49035336 47484480 45479400 43212720 40917320 38795364 36980264 
1389.024 35529536 34431060 33632552 33064206 32660254 32362652 32121294 
1392.400 31897262 31656984 31374350 31035914 30641770 30206352 29751892 
1395.775 29299748 28862630 28441974 28031976 27626178 27224250 26836476 
1399.150 26482150 26183152 25957552 25812516 25744798 25743812 25796870 
1402.525 25893400 26026150 26192866 26394186 26631990 26906482 27216172 
1405.901 27557292 27925180 28316404 28729362 29164610 29623816 30108292 
1409.276 30617734 31149634 31699966 32264456 32839614 33422906 34012108 
1412.651 34603760 35192948 35772900 36337380 36883548 37412776 37931556 
1416.026 38449432 38976876 39523692 40097176 40702968 41343860 42017892 
1419.402 42717140 43424796 44117624 44767912 45349948 45845268 46245316 
1422.777 46557788 46806196 47030192 47272920 47570496 47943164 48391448 
1426.152 48903744 49463508 50058608 50681368 51327360 51991908 52667236 
1429.527 53343836 54014328 54679504 55349692 56041312 56773344 57559036 
1432.903 58402624 59300420 60245748 61235524 62273260 63372864 64554564 
1436.278 65839300 67234912 68731928 70306808 71925240 73546848 75121680 
1439.653 76592576 77886048 78916744 79606528 79884336 79701456 79035896 
1443.028 77889064 76285424 74269264 71908576 69286568 66491188 63618420 
1446.404 60758324 57995996 55418388 53100272 51095588 49424148 48068652 
1449.779 46984852 46120532 45437716 44922432 44585060 44446372 44521436 
1453.154 44802368 45255760 45820856 46420604 46976100 47410488 47674208 
1456.529 47764708 47740776 47697028 47721028 47868500 48153456 48567268 
1459.905 49093616 49716292 50418492 51177140 51962960 52733108 53431212 
1463.280 53999468 54385016 54560132 54535376 54359896 54104088 53830920 
1466.655 53585176 53385688 53231532 53110496 53003532 52886448 52724952 
1470.030 52474596 52083308 51499792 50697192 49694300 48568564 47430964 
1473.406 46389888 45514832 44824224 44304124 43931304 43691428 43584848 
1476.781 43621080 43806676 44136656 44590972 45140604 45753440 46405336 
1480.156 47085544 47797032 48554340 49376556 50283652 51291600 52413432 
1483.531 53664500 55063628 56632552 58388868 60336772 62451544 64666332 
1486.906 66877052 68933000 70650432 71844224 72335728 71997304 70789832 
1490.282 68781688 66143512 63096524 59867860 56628212 53472960 50444392 
1493.657 47541332 44751348 42079436 39555812 37241480 35215912 33547922 
1497.032 32274664 31391836 30866188 30650482 30698950 30975986 31452000 
1500.407 32100104 32893546 33800852 34786436 35814348 36838208 37802852 
1503.783 38639492 39247860 39500720 39253008 38378372 36843184 34760628 
1507.158 32372646 29935060 27618940 25482706 23509928 21661444 19908686 
1510.533 18243824 16681511 15247502 13962310 12836505 11866068 11035827 
1513.908 10326422 9718494 9194694 8738121 8333600 7970019 7642182 7353110 
1517.766 7110674 6921563 6784663 6688755 6612649 6533395 6435087 6319992 
1521.623 6209161 6132904 6112573 6149505 6227917 6323454 6415650 6493201 
1525.481 6558757 6624794 6707800 6817782 6954691 7110168 7274529 7442626 
1529.338 7616318 7802999 8009910 8239477 8487072 8741840 8990871 9227117 
1533.196 9453298 9682341 9929133 10202964 10501815 10814459 11125017 
1536.571 11417462 11680763 11905978 12087120 12219874 12300002 12323760 
1539.946 12291618 12212854 12104632 11986696 11873286 11766716 11657891 
1543.321 11529766 11367121 11163160 10925451 10672864 10429213 10211444 
1546.697 10022368 9852254 9683526 9500844 9297081 9078256 8860352 8663109 
1550.554 8499033 8368390 8261291 8164010 8066211 7965429 7868180 7785795 
1554.411 7728722 7700053 7694083 7697254 7692633 7659684 7575080 7417549 
1558.269 7175279 6863021 6525389 6220959 5991449 5846849 5774316 5749000 
1562.126 5745709 5741344 5719622 5673394 5605790 5528497 5457292 5405120 
1565.984 5375799 5364125 5358355 5346648 5320753 5279229 5227682 5176779 
1569.841 5137616 5117600 5120048 5145227 5192069 5258569 5341080 5433202 
1573.698 5524168 5600822 5651238 5669936 5663558 5651070 5656576 5696927 
1577.556 5775559 5884498 6011841 6147254 6285667 6427756 6577359 6738389 
1581.413 6912910 7099391 7294173 7493290 7692768 7888829 8076911 8249878 
1585.271 8398083 8512210 8585034 8615383 8609469 8581249 8548401 8530626 
1589.128 8546339 8609401 8729906 8914158 9163661 9474022 9831646 10214090 
1592.986 10588383 10915496 11159488 11290768 11294169 11171217 10939927 
1596.361 10629807 10273662 9905369 9552630 9235917 8971421 8769698 8636744 
1600.218 8574996 8582465 8655097 8787584 8976022 9217504 9509446 9847610 
1604.076 10222707 10620096 11021654 11405454 11749252 12033771 12241515 
1607.451 12359486 12380112 12300889 12124700 11859836 11520205 11124609 
1610.826 10696024 10260974 9843306 9461188 9124679 8833874 8581215 8354001 
1614.684 8138554 7922538 7699446 7472221 7253471 7063018 6918667 6831211 
1618.541 6801592 6821450 6876923 6952099 7031969 7104174 7162647 7208360 
1622.398 7250405 7301148 7372050 7469188 7591534 7733343 7887783 8049805 
1626.256 8216379 8385213 8554247 8719358 8876348 9022602 9158551 9288279 
1630.113 9417709 9552291 9694098 9841238 9986835 10120746 10231866 10308473 
1633.971 10340979 10324726 10263043 10168671 10062822 9967814 9898183 
1637.346 9857880 9840865 9835782 9829172 9809176 9768712 9707312 9631387 
1641.203 9551173 9478222 9419978 9377045 9343290 9307880 9257951 9181225 
1645.061 9070101 8923628 8750123 8565669 8391429 8248628 8151957 8107562 
1648.918 8113335 8160567 8234613 8314889 8376024 8384672 8307762 8127919 
1652.776 7865548 7584352 7356581 7222880 7178142 7193301 7234907 7278775 
1656.633 7311627 7328173 7329453 7318839 7300305 7275372 7243464 7201959 
1660.490 7147893 7078543 6993177 6892779 6781903 6668196 6560439 6467708 
1664.348 6396147 6347157 6317638 6299820 6283515 6256589 6208220 6131056 
1668.205 6023499 5891114 5745373 5601393 5472794 5368620 5292645 5243042 
1672.063 5213497 5193914 5171850 5133022 5065167 4963170 4833319 4694497 
1675.920 4568979 4474898 4416618 4387096 4371867 4356605 4333178 4301420 
1679.778 4268693 4246108 4241624 4254406 4273278 4277226 4241858 4148316 
1683.635 3995333 3806170 3622467 3481761 3398801 3366477 3366043 3378999 
1687.492 3390553 3392423 3381303 3357294 3323036 3282872 3243545 3212668 
1691.350 3197413 3202554 3227555 3265845 3303938 3325540 3314355 3262073 
1695.207 3175384 3077232 2998254 2959754 2964691 2997420 3032786 3041562 
1699.065 2999521 2897841 2751667 2599275 2481093 2420681 2415716 2448203 
1702.922 2495222 2537114 2560077 2556544 2526782 2477960 2421747 2369372 
1706.780 2328496 2301214 2285759 2277965 2274134 2272236 2272202 2275966 
1710.637 2285559 2302114 2325365 2352915 2381332 2407753 2430310 2448703 
1714.494 2463498 2474328 2478793 2472295 2449303 2407120 2349816 2288157 
1718.352 2237264 2208989 2208422 2232867 2274767 2324599 2374003 2418148 
1722.209 2455167 2486358 2514418 2542246 2571643 2603442 2637543 2674214 
1726.067 2713289 2753834 2794050 2830701 2860050 2879229 2888768 2892237 
1729.924 2894972 2901810 2913252 2923559 2920257 2886367 2806822 2676515 
1733.781 2509652 2336624 2194235 2106394 2074998 2086417 2120278 2157605 
1737.639 2183346 2189207 2173656 2141888 2103531 2068406 2044436 2034449 
1741.496 2037711 2051194 2071868 2096872 2124607 2154009 2184745 2216815 
1745.354 2250286 2284626 2318969 2351848 2380733 2403088 2416516 2418881 
1749.211 2408486 2384964 2349317 2304978 2258013 2216448 2187209 2174854 
1753.069 2179583 2196900 2219312 2237230 2242459 2229770 2199930 2159336 
1756.926 2118747 2088548 2073966 2073466 2080424 2085119 2077961 2053192 
1760.783 2009915 1953496 1892958 1838517 1798224 1776099 1771873 1782021 
1764.641 1801484 1824309 1844207 1856320 1857518 1848334 1833060 1818819 
1768.498 1812730 1818154 1833160 1850031 1859048 1850263 1818620 1768014 
1772.356 1709830 1659204 1628007 1620258 1632397 1656743 1685148 1712092 
1776.213 1735744 1756803 1776598 1795828 1813296 1826905 1834358 1835922 
1780.071 1833393 1831197 1833060 1840381 1851761 1863607 1871294 1872093 
1783.928 1865471 1853658 1840847 1831064 1827104 1830465 1841312 1859248 
1787.785 1884039 1914756 1949436 1983885 2012412 2028124 2025128 2001227 
1791.643 1959088 1906603 1853990 1810335 1780391 1763955 1757468 1756403 
1795.500 1757069 1757135 1755605 1752112 1746024 1736909 1723835 1706836 
1799.358 1686579 1665092 1645268 1629537 1619060 1614537 1614670 1618628 
1803.215 1625512 1635058 1646865 1660967 1676999 1694329 1712392 1730222 
1807.073 1746955 1761593 1772938 1779426 1780025 1774502 1764022 1751380 
1810.930 1739404 1731386 1729257 1732917 1740668 1749916 1758998 1766817 
1814.787 1774102 1782686 1794531 1810834 1831863 1856286 1882242 1907900 
1818.645 1931796 1953630 1974465 1995302 2018238 2044369 2073733 2105462 
1822.502 2136627 2163399 2182047 2190273 2188474 2180582 2173389 2172923 
1826.360 2183179 2203427 2228804 2251552 2263909 2261277 2244358 2219746 
1830.217 2197099 2186110 2192404 2214816 2248388 2286525 2323066 2354913 
1834.074 2382165 2406820 2432043 2459633 2490290 2523416 2558611 2596075 
1837.932 2638077 2687683 2748266 2821796 2908281 3005060 3107366 3209430 
1841.789 3304272 3385911 3450065 3496491 3529727 3558456 3593701 3643450 
1845.647 3710683 3792232 3880548 3965974 4039142 4094194 4128881 4144971 
1849.504 4145540 4134200 4112825 4081183 4037939 3982626 3916254 3842171 
1853.362 3765158 3688828 3615418 3544960 3475381 3404412 3331483 3257199 
1857.219 3183461 3112239 3044164 2978703 2914252 2849944 2786347 2725826 
1861.076 2671347 2625276 2588175 2558511 2533548 2510952 2490323 2472595 
1864.934 2459999 2453968 2453335 2455034 2454001 2445704 2428444 2404188 
1868.791 2378234 2357412 2346718 2347418 2357745 2373470 2390061 2404688 
1872.649 2415283 2421547 2423480 2421280 2414783 2404488 2391227 2376068 
1876.506 2360510 2345352 2330262 2314239 2296051 2274967 2252185 2229470 
1880.364 2208955 2192437 2179749 2169027 2157505 2143320 2125839 2106461 
1884.221 2087982 2072567 2061248 2052992 2045135 2034449 2018970 1998498 
1888.078 1974931 1951033 1930465 1915655 1908466 1908999 1916354 1929067 
1891.936 1944843 1960819 1974299 1982654 1985217 1983153 1980623 1981289 
1895.793 1989011 2005588 2029323 2056321 2082655 2105262 2123575 2139524 
1899.651 2155640 2173922 2194968 2217348 2237996 2254616 2266040 2273068 
1903.508 2277232 2280363 2283327 2285725 2286658 2284959 2280929 2275233 
1907.365 2269271 2263775 2259346 2255082 2250586 2245390 2239995 2235565 
1911.223 2232834 2231469 2231002 2230703 2229670 2229570 2232401 2239895 
1915.080 2252718 2268771 2283660 2292354 2291288 2279730 2262010 2244291 
1918.938 2231902 2227638 2229371 2232135 2229670 2217881 2195767 2166929 
1922.795 2136527 2109457 2088981 2075198 2065543 2058285 2052659 2049496 
1926.653 2050928 2058252 2070703 2085951 2100967 2113120 2121910 2128702 
1930.510 2135528 2143553 2152344 2159536 2162333 2159336 2151278 2141056 
1934.367 2132765 2129635 2132665 2140923 2151978 2163199 2174122 2185144 
1938.225 2197299 2210787 2224075 2234033 2237763 2234300 2224075 2211087 
1942.082 2199764 2193902 2194369 2199830 2207923 2216149 2224241 2233001 
1945.940 2243925 2258047 2274134 2289756 2302813 2311874 2317803 2323266 
1949.797 2330995 2342554 2356579 2370771 2381066 2385930 2384997 2379767 
1953.655 2372737 2365508 2357212 2346485 2331428 2311207 2288557 2266740 
1957.512 2249687 2240228 2237897 2239795 2242926 2244191 2243858 2243925 
1961.369 2247588 2256781 2271536 2290588 2310874 2330895 2350083 2367640 
1965.227 2383598 2396825 2404521 2405321 2398724 2386530 2373370 2364175 
1969.084 2360943 2363675 2369572 2373503 2373503 2370138 2366407 2367773 
1972.942 2378134 2397658 2423480 2452668 2483259 2518350 2564677 2628776 
1976.799 2714122 2817394 2926361 3024812 3098456 3138203 3142575 3117812 
1980.656 3073562 3019707 2963757 2910316 2860517 2815360 2775342 2741130 
1984.514 2713022 2690250 2671047 2653478 2637110 2622509 2611975 2607842 
1988.371 2609809 2615475 2620675 2620342 2611775 2597109 2580742 2569543 
1992.229 2569676 2583442 2609708 2644910 2684682 2726292 2768940 2812392 
1996.086 2855748 2895906 2927962 2946076 2947711 2933033 2905513 2872158 
1999.944 2838905 2809223 2784279 2762671 2742497 2723458 2706787 2694518 
2003.801 2688050 2687050 2688150 2688650 2686383 2682249 2681049 2688316 
2007.658 2707254 2737562 2774575 2810391 2838672 2856448 2864320 2867321 
2011.516 2871624 2881163 2898408 2921991 2950113 2980505 3012300 3043964 
2015.373 3075130 3104630 3129326 3148282 3161766 3171412 3180891 3193274 
2019.231 3208295 3222849 3233163 3233764 3223616 3205458 3185030 3170110 
2023.088 3166138 3174449 3192907 3216707 3240808 3263041 3283005 3302536 
2026.946 3322936 3344505 3365775 3384275 3400104 3414597 3430894 3452703 
2030.803 3481260 3515130 3551006 3586184 3618525 3650133 3685386 3728061 
2034.660 3780165 3840165 3903516 3964336 4018107 4062621 4098509 4127543 
2038.518 4150792 4167752 4176885 4176283 4165110 4145205 4119616 4092221 
2042.375 4065530 4040046 4014663 3988713 3961895 3935981 3914951 3902614 
2046.233 3901444 3913079 3936015 3967378 4004697 4044728 4083290 4116437 
2050.090 4139351 4147313 4138548 4114130 4078508 4039678 4006636 3985870 
2053.948 3980253 3988512 4004965 4024327 4042119 4056099 4068106 4080046 
2057.805 4093157 4107574 4121121 4131691 4137813 4140589 4141660 4144034 
2061.662 4149554 4157482 4166448 4173573 4177488 4178290 4177688 4177755 
2065.520 4179729 4184045 4188695 4192174 4193245 4191204 4187223 4182071 
2069.377 4176016 4168488 4157884 4142930 4123830 4101787 4079545 4059744 
2073.235 4044862 4035129 4029845 4027905 4028240 4030748 4035798 4043457 
2077.092 4053691 4065163 4076701 4087003 4096235 4105299 4115602 4128011 
2080.949 4142596 4157984 4172302 4184312 4193212 4199669 4204821 4209270 
2084.807 4212850 4214624 4212850 4206828 4196925 4184513 4171633 4159723 
2088.664 4148785 4137779 4125335 4110350 4093057 4075063 4058607 4045330 
2092.522 4036266 4030748 4027772 4026735 4028006 4032320 4041149 4054293 
2096.379 4070012 4085899 4098843 4107474 4112591 4117140 4124399 4136909 
2100.237 4155341 4177655 4201408 4223757 4243799 4262470 4281543 4302324 
2104.094 4325280 4348941 4371298 4391213 4409154 4426660 4446677 4471249 
2107.951 4499538 4529369 4557494 4580799 4598681 4612645 4625471 4639670 
2111.809 4656583 4674635 4691181 4703942 4711613 4715800 4719752 4727121 
2115.666 4740219 4759681 4783433 4808526 4832381 4853389 4871415 4887433 
2119.524 4901976 4915145 4926237 4934549 4940011 4943631 4946982 4951707 
2123.381 4958612 4967325 4976374 4984720 4991658 4997758 5004596 5013411 
2127.239 5024674 5036841 5047534 5053367 5052295 5043914 5029467 5012238 
2131.096 4996686 4986597 4985558 4996283 5020249 5056652 5102714 5153475 
2134.953 5201962 5241533 5267122 5276915 5274098 5264137 5253840 5249280 
2138.811 5252902 5263466 5278156 5293182 5305893 5315755 5323906 5330648 
2142.668 5336451 5339000 5335478 5324107 5304652 5279632 5252197 5226441 
2146.526 5203873 5184424 5165814 5145361 5121958 5096177 5069056 5043445 
2150.383 5019612 4996686 4972185 4943094 4906500 4861598 4808258 4745009 
2154.240 4672994 4592586 4506267 4421940 4352455 4313267 4320696 4385824 
2158.098 4507840 4673597 4860459 5040495 5190192 5295328 5352385 5367312 
2161.955 5351512 5318069 5278793 5242639 5214067 5194349 5182312 5173191 
2165.813 5161790 5143450 5114951 5076867 5032048 4985525 4941921 4904254 
2169.670 4872521 4843739 4813819 4778508 4735596 4684851 4628954 4570653 
2173.528 4513331 4460603 4414375 4376285 4347670 4327288 4313300 4300952 
2177.385 4284722 4259559 4223590 4179027 4132995 4094964 4073390 4073223 
2181.242 4094027 4128814 4166950 4198899 4217635 4220311 4209638 4190066 
2185.100 4166648 4144603 4126540 4114632 4111320 4118311 4136374 4165745 
2188.957 4203817 4245673 4286629 4321097 4345829 4359718 4363902 4360956 
2192.815 4354698 4348473 4345929 4349577 4361827 4382645 4411129 4443364 
2196.672 4474463 4499939 4516545 4523744 4524681 4524748 4527929 4538375 
2200.530 4555820 4577618 4600154 4619778 4634111 4643354 4649483 4653536 
2204.387 4657521 4661707 4665525 4668607 4671018 4672626 4674535 4676913 
2208.244 4679257 4681032 4680999 4679123 4675741 4672090 4668874 4666296 
2212.102 4664219 4661707 4658660 4655813 4654808 4657387 4664722 4676712 
2215.959 4690913 4704646 4714862 4720020 4720489 4718312 4715733 4714393 
2219.817 4714761 4715331 4714292 4710240 4702301 4690879 4677114 4661540 
2223.674 4644392 4625739 4605043 4583043 4560675 4540049 4523242 4511657 
2227.531 4505531 4503723 4504760 4506602 4507874 4508109 4507104 4504626 
2231.389 4501279 4497562 4493612 4490632 4488958 4488825 4490666 4493712 
2235.246 4497429 4502450 4510218 4523309 4543866 4573667 4611406 4654071 
2239.104 4696004 4730638 4754422 4765108 4763701 4754924 4744104 4736232 
2242.961 4734658 4741424 4755862 4776532 4801624 4827791 4852718 4873928 
2246.819 4889175 4898323 4902244 4902612 4902411 4903852 4907605 4913470 
2250.676 4920072 4925299 4928919 4931600 4934917 4940883 4950032 4961326 
2254.533 4972085 4979056 4979827 4973961 4963203 4950334 4938537 4929689 
2258.391 4924260 4921144 4919133 4916955 4914441 4911928 4909750 4907840 
2262.248 4905628 4902110 4896949 4890515 4885020 4882574 4885154 4893498 
2266.106 4906634 4921848 4935990 4946613 4951976 4952043 4947216 4938436 
2269.963 4926841 4912866 4897318 4880965 4864881 4850239 4837875 4827824 
2273.821 4819615 4812647 4806784 4802294 4800887 4804003 4813149 4828863 
2277.678 4850038 4874666 4900401 4924730 4946312 4964778 4980597 4994340 
2281.535 5006976 5018975 5030003 5040026 5047970 5053267 5055010 5052764 
2285.393 5046630 5037244 5026350 5015489 5006942 5001747 5000306 5001646 
2289.250 5004260 5006305 5006942 5005869 5003758 5002216 5002317 5004864 
2293.108 5009892 5017132 5025914 5035769 5046630 5058429 5071134 5084644 
2296.965 5097920 5110526 5121656 5131178 5139125 5146031 5152000 5157096 
2300.823 5161422 5164071 5164942 5163937 5161287 5157767 5154347 5152268 
2304.680 5152536 5156157 5163500 5174096 5187006 5200352 5211888 5219902 
2308.537 5223323 5222685 5219902 5217722 5218863 5225234 5236838 5251962 
2312.395 5267994 5282147 5292310 5298313 5300930 5301835 5302573 5304217 
2316.252 5306900 5309818 5312468 5314111 5315051 5316057 5318069 5322262 
2320.110 5329642 5340376 5353793 5368352 5381201 5388145 5385058 5368117 
2323.967 5335176 5287178 5227515 5162427 5098826 5043177 5000138 4971146 
2327.824 4955026 4948255 4946982 4947585 4948088 4948457 4949362 4951942 
2331.682 4957170 4965415 4976207 4989178 5004060 5020316 5037847 5056049 
2335.539 5074487 5092824 5110693 5127658 5143919 5159209 5172922 5184424 
2339.397 5193109 5198944 5202498 5205751 5210680 5218662 5230130 5243344 
2343.254 5255719 5264271 5267088 5264807 5261185 5261588 5272790 5300292 
2347.112 5346883 5412400 5494202 5587095 5684237 5779554 5866362 5939448 
2350.969 5995648 6033981 6056425 6066606 6069664 6070403 6072318 6077022 
2354.826 6084784 6095033 6106861 6119832 6133811 6149203 6166040 6184559 
2358.684 6204691 6226572 6250606 6276893 6304863 6333439 6361043 6385555 
2362.541 6406201 6422880 6437441 6452541 6470937 6494008 6521353 6550751 
2366.399 6579277 6603868 6622675 6635493 6643265 6647874 6650498 6652214 
2370.256 6653560 6655276 6657867 6663048 6671796 6684919 6702551 6723919 
2374.114 6747542 6772513 6798496 6826028 6856389 6891196 6931595 6978227 
2377.971 7031228 7089893 7154091 7223048 7296363 7373263 7452772 7533205 
2381.828 7613249 7691790 7767681 7841054 7911571 7979165 8043190 8102870 
2385.686 8156886 8204257 8244441 8277468 8303878 8324649 8340321 8351839 
2389.543 8359980 8365418 8369370 8372883 8376498 8380010 8382105 8380957 
2393.401 8374775 8362749 8345388 8324582 8303676 8285911 8273990 8269363 
2397.258 8271760 8280068 8293003 8309384 8328601 8350725 8376024 8404738 
2401.115 8437203 8473016 8512380 8555362 8602270 8653340 8708845 8768921 
2404.973 8833671 8903234 8978051 9058159 9143797 9234495 9329308 9427359 
2408.830 9527227 9628371 9730929 9835612 9943201 10054005 10167314 10280991 
2412.688 10392118 10497741 10595174 10683017 10761199 10830255 10891271 
2416.063 10945227 10992394 11032462 11065022 11089563 11105879 11114887 
2419.438 11117742 11116417 11112983 11109448 11107239 11106695 11107443 
2422.813 11108123 11107272 11104009 11098163 11091433 11086402 11086300 
2426.189 11094220 11112406 11141539 11181825 11232485 11292605 11362291 
2429.564 11441649 11530719 11629097 11735396 11847408 11962581 12078876 
2432.939 12195303 12312341 12431832 12555517 12685957 12824150 12970580 
2436.314 13124845 13286066 13453294 13625680 13802479 13983388 14168274 
2439.690 14357143 14550309 14748120 14951165 15159692 15373846 15593497 
2443.065 15818104 16047401 16281188 16519370 16761985 17008768 17259104 
2446.440 17512104 17766354 18020584 18273852 18525438 18774646 19020740 
2449.815 19262678 19499070 19728550 19950000 20162954 20366950 20562496 
2453.191 20749718 20928504 21098422 21258630 21408350 21546178 21671162 
2456.566 21781760 21875902 21951418 22005546 22035840 22040788 22019350 
2459.941 21971946 21899738 21804126 21686696 21549380 21393764 21221990 
2463.316 21036406 20839536 20634138 20423070 20208668 19994094 19782160 
2466.692 19576118 19379734 19196876 19030986 18884820 18760252 18658066 
2470.067 18578312 18520738 18484534 18468874 18472538 18493870 18530280 
2473.442 18579728 18639492 18707184 18781668 18861528 18945246 19030986 
2476.817 19115950 19196494 19269226 19331474 19381534 19419820 19448026 
2480.193 19467604 19480876 19488500 19490614 19486594 19475610 19457070 
2483.568 19430908 19397298 19356832 19310306 19258592 19202554 19143614 
2486.943 19083160 19022366 18962344 18903610 18845750 18787688 18728390 
2490.318 18666332 18600410 18529866 18454146 18372942 18286086 18193686 
2493.694 18095742 17992952 17885596 17773742 17657536 17536184 17408762 
2497.069 17274482 17132624 16983478 16827560 16666636 16502263 16336026 
2500.444 16169334 16002880 15837383 15673356 15511660 15352871 15197984 
2503.819 15047714 14902126 14761763 14626824 14497547 14374780 14259000 
2507.195 14150747 14050187 13956937 13869935 13787840 13709454 13633613 
2510.570 13559391 13486378 13414095 13342679 13271889 13202271 13134578 
2513.945 13069832 13008988 12952657 12901216 12853978 12810499 12770198 
2517.320 12733108 12700219 12673266 12653992 12644065 12644270 12653344 
2520.696 12670128 12691723 12715742 12740513 12765660 12790877 12817325 
2524.071 12845650 12875924 12908009 12940709 12972628 13002398 13029098 
2527.446 13051939 13070822 13085642 13096057 13101658 13101896 13096091 
2530.821 13084345 13067544 13047228 13025683 13005061 12987103 12972935 
2534.197 12962284 12954297 12947674 12941154 12933746 12925485 12916064 
2537.572 12905960 12895345 12884798 12874798 12866333 12860258 12857800 
2540.947 12859371 12865002 12873535 12883263 12892546 12899783 12904288 
2544.322 12906302 12906745 12906370 12906029 12905824 12905449 12904629 
2547.698 12903229 12901455 12899714 12898656 12898588 12899305 12900328 
2551.073 12901148 12901216 12900704 12899748 12898895 12898451 12898758 
2554.448 12899578 12900875 12902547 12904424 12906336 12908145 12909169 
2557.823 12908623 12905619 12899305 12889372 12875719 12858654 12838552 
2561.198 12815345 12788728 12758836 12725705 12689881 12652457 12615002 
2564.574 12578300 12543580 12511011 12480081 12450995 12423513 12397772 
2567.949 12374793 12355361 12340089 12329147 12322534 12319875 12321306 
2571.324 12326931 12336851 12351509 12370600 12393033 12417682 12443119 
2574.699 12467942 12491710 12514387 12536520 12558893 12582291 12607123 
2578.075 12633626 12662077 12692576 12725228 12759928 12796338 12833809 
2581.450 12871590 12908998 12945932 12982904 13020698 13060203 13102306 
2584.825 13146907 13193869 13242408 13291704 13341004 13390038 13438428 
2588.200 13486139 13533514 13580825 13628107 13675943 13724774 13774911 
2591.576 13826594 13879103 13931618 13983216 14032972 14080407 14125622 
2594.951 14169232 14211957 14254481 14297419 14340773 14384816 14429686 
2598.326 14475759 14523311 14572786 14623980 14676757 14730638 14785074 
2601.701 14839893 14895268 14951508 15008921 15067816 15128367 15190469 
2605.077 15254469 15320880 15390495 15464378 15543115 15626470 15713826 
2608.452 15803879 15895016 15985932 16075699 16163900 16250540 16335646 
2611.827 16418707 16499612 16577713 16652348 16723555 16791052 16854736 
2615.202 16914364 16969352 17019070 17063248 17101882 17135624 17165784 
2618.578 17193982 17221318 17249106 17277586 17306514 17335478 17363756 
2621.953 17390760 17416142 17440492 17463706 17487024 17511208 17537322 
2625.328 17566198 17598528 17634138 17672546 17712754 17753756 17794452 
2628.703 17834464 17873822 17912838 17952204 17991952 18032498 18073844 
2632.079 18115606 18158238 18202012 18247520 18295384 18345776 18398590 
2635.454 18452934 18507942 18562542 18615800 18667578 18717838 18766688 
2638.829 18814678 18862186 18909286 18956182 19003328 19050754 19098844 
2642.204 19147908 19197984 19248928 19300816 19353402 19406688 19461020 
2645.580 19516572 19573864 19633312 19695474 19760452 19828630 19899804 
2648.955 19973660 20049888 20127796 20206448 20285286 20363652 20441616 
2652.330 20519280 20597378 20676320 20757226 20840092 20925096 21012202 
2655.705 21100960 21191026 21282292 21374692 21468398 21563726 21660818 
2659.081 21759498 21859420 21959958 22060032 22159012 22256062 22351040 
2662.456 22444400 22536872 22629224 22722574 22817164 22912720 23008786 
2665.831 23104242 23198220 23290048 23379868 23467958 23555646 23644156 
2669.206 23734646 23827882 23924360 24023908 24125892 24229410 24333512 
2672.582 24437184 24539862 24641478 24742136 24842606 24943488 25045514 
2675.957 25148862 25253326 25358482 25463592 25567920 25670868 25772468 
2679.332 25873038 25973136 26073928 26176608 26282374 26392708 26508846 
2682.707 26631568 26761690 26899324 27044338 27196242 27354798 27519658 
2686.083 27690622 27867766 28050814 28239384 28432634 28629546 28829414 
2689.458 29031500 29235524 29441628 29650350 29862188 30077434 30296158 
2692.833 30518300 30743900 30973102 31206344 31444448 31687674 31936382 
2696.208 32190372 32448616 32710340 32974434 33240228 33507186 33774920 
2699.583 34043536 34313356 34583952 34855436 35127416 35399136 35669940 
2702.959 35938976 36205296 36468460 36727748 36982752 37232928 37477212 
2706.334 37714192 37941752 38157640 38359480 38545664 38715372 38868408 
2709.709 39005516 39127756 39236324 39332264 39416392 39489580 39552036 
2713.084 39604228 39646012 39676792 39696180 39702972 39696576 39676432 
2716.460 39642524 39595588 39536356 39465772 39384356 39292904 39192116 
2719.835 39083196 38968072 38848952 38728884 38610484 38496316 38388580 
2723.210 38288836 38198556 38119148 38052084 37998308 37958492 37933000 
2726.585 37921504 37923200 37937884 37965004 38004456 38056356 38120448 
2729.961 38196208 38282684 38378480 38482268 38592884 38709652 38832140 
2733.336 38959952 39092804 39229800 39369844 39511860 39654468 39796540 
2736.711 39936808 40073704 40206096 40332824 40453116 40566928 40675456 
2740.086 40780304 40883496 40987120 41091932 41198296 41305924 41414240 
2743.462 41522948 41632516 41743684 41857728 41975848 42098712 42226212 
2746.837 42358240 42494040 42632588 42773004 42913688 43052332 43186660 
2750.212 43313788 43431316 43537524 43631960 43715204 43788572 43853956 
2753.587 43912608 43965880 44014388 44058064 44097048 44130824 44158700 
2756.963 44180012 44193400 44197292 44190580 44171976 44140360 44095028 
2760.338 44035288 43960232 43869244 43761524 43637016 43496320 43340840 
2763.713 43172424 42993720 42807304 42615480 42420384 42223912 42027492 
2767.088 41833100 41642364 41456740 41278156 41107988 40947684 40798828 
2770.464 40662688 40540592 40433476 40341660 40264804 40201808 40150964 
2773.839 40110476 40078608 40053716 40034460 40019200 40006088 39992680 
2777.214 39976076 39953368 39921368 39877312 39819636 39747012 39659256 
2780.589 39556684 39440992 39313764 39177616 39035308 38889464 38742544 
2783.965 38596760 38453156 38312976 38176776 38044852 37917236 37793668 
2787.340 37673356 37554624 37435856 37315100 37190764 37062028 36928708 
2790.715 36791252 36650916 36508896 36366456 36224672 36084372 35946820 
2794.090 35813088 35684472 35561972 35446620 35338960 35239192 35147932 
2797.466 35065304 34991748 34928112 34874540 34830884 34796780 34771004 
2800.841 34752232 34739308 34731268 34727320 34727460 34731376 34738736 
2804.216 34749104 34761956 34776352 34791680 34807620 34823632 34839640 
2807.591 34855296 34870120 34883732 34895076 34903584 34908220 34908144 
2810.967 34902332 34889512 34869044 34840000 34801984 34754996 34699504 
2814.342 34636596 34567232 34492936 34415168 34335732 34256596 34179840 
2817.717 34108008 34044072 33990680 33950908 33927368 33922356 33937404 
2821.092 33973696 34031028 34109084 34206508 34321496 34451792 34594720 
2824.468 34747276 34906280 35068468 35230460 35388780 35540324 35682244 
2827.843 35811976 35927240 36026228 36107704 36170792 36214656 36239908 
2831.218 36247508 36238716 36215704 36180552 36134892 36080556 36019100 
2834.593 35951680 35880452 35807620 35735052 35664944 35598800 35536656 
2837.969 35478188 35422500 35368792 35316856 35268088 35224568 35188960 
2841.344 35164604 35154004 35159460 35182744 35225972 35291588 35382632 
2844.719 35503108 35656956 35847564 36076920 36343540 36643416 36967528 
2848.094 37302896 37633928 37941280 38205900 38410588 38541320 38590168 
2851.469 38555116 38441068 38257244 38017368 37737176 37432208 37117528 
2854.845 36806976 36511024 36238680 35995596 35784488 35605380 35456152 
2858.220 35332132 35228272 35138984 35059056 34984096 34911092 34837488 
2861.595 34761740 34682704 34599452 34511340 34418072 34319664 34217084 
2864.970 34111880 34007128 33906808 33815716 33738712 33680848 33645868 
2868.346 33636488 33653672 33697104 33764608 33852856 33958004 34074784 
2871.721 34197660 34321388 34440420 34551052 34650624 34738480 34815372 
2875.096 34883192 34944524 35001192 35054600 35105752 35154972 35202616 
2878.471 35249616 35297232 35347296 35401472 35460896 35526408 35597936 
2881.847 35674904 35756424 35841268 35928104 36014996 36100288 36181596 
2885.222 36256544 36323580 36381228 36428964 36467560 36498804 36525188 
2888.597 36550196 36577700 36611764 36656252 36714948 36791648 36890296 
2891.972 37015804 37174340 37373956 37624608 37937556 38324228 38795324 
2895.348 39357332 40011936 40751916 41561264 42412892 43268136 44082156 
2898.723 44805012 45386476 45786648 45977780 45949564 45710700 45287428 
2902.098 44718800 44047388 43318728 42572352 41838572 41141464 40496580 
2905.473 39913412 39397780 38952340 38577748 38272624 38034328 37859824 
2908.849 37745452 37688820 37687556 37740104 37845360 38000984 38203296 
2912.224 38447404 38726060 39030268 39350180 39674180 39990244 40286908 
2915.599 40552560 40777864 40956644 41085444 41164780 41197820 41190024 
2918.974 41147000 41074192 40975756 40854048 40710136 40544300 40356784 
2922.350 40148564 39922564 39683112 39437144 39193532 38960820 38747868 
2925.725 38561920 38407296 38285760 38196276 38135968 38100048 38084136 
2929.100 38083376 38093176 38109420 38128188 38145520 38157892 38162124 
2932.475 38155144 38135172 38100228 38049264 37981928 37898544 37800428 
2935.851 37689904 37570124 37444776 37317696 37192496 37072096 36959268 
2939.226 36856388 36765612 36689528 36630512 36590536 36570636 36570384 
2942.601 36587360 36617136 36653224 36687004 36709216 36708964 36676764 
2945.976 36604340 36486404 36321384 36112420 35866600 35593508 35305068 
2949.352 35013264 34727752 34457136 34207264 33981076 33780368 33604984 
2952.727 33453684 33324440 33214654 33121132 33040610 32970466 32907914 
2956.102 32851372 32799556 32751892 32707694 32667256 32630250 32597140 
2959.477 32568242 32543852 32524246 32509536 32499536 32494002 32492928 
2962.853 32496430 32505248 32519926 32541208 32569532 32604746 32646466 
2966.228 32694120 32747318 32806132 32870636 32941762 33020124 33106294 
2969.603 33200632 33303548 33414998 33535000 33663628 33800744 33945680 
2972.978 34097688 34255016 34415204 34575128 34730372 34875152 35002740 
2976.354 35105900 35176780 35209152 35198912 35144516 35048172 34914684 
2979.729 34751512 34566552 34368328 34164820 33962448 33766932 33582324 
2983.104 33411312 33255286 33113230 32983120 32860808 32741744 32621820 
2986.479 32497608 32367684 32232336 32093290 31952358 31810760 31668320 
2989.854 31522396 31368614 31201038 31013990 30803120 30566824 30306604 
2993.230 30027722 29738196 29446344 29160962 28888868 28633332 28395384 
2996.605 28172842 27962320 27759776 27561740 27365596 27170174 26975192 
2999.980 26780896 26588098 26397706 26210182 26026500 25847328 25673082 
3003.355 25504176 25340918 25183168 25031018 24884430 24743398 24608024 
3006.731 24478510 24355064 24238064 24127470 24023592 23926218 23835268 
3010.106 23750218 23670328 23594792 23522766 23453094 23385358 23318926 
3013.481 23253588 23189238 23126084 23064268 23003930 22945694 22890122 
3016.856 22838014 22790242 22747222 22709132 22675476 22645282 22617286 
3020.232 22590514 22563952 22537080 22509790 22481944 22453472 22424652 
3023.607 22395728 22367262 22340924 22318320 22301682 22293066 22294182 
3026.982 22305622 22326830 22355958 22389902 22425524 22458810 22485992 
3030.357 22504696 22512688 22509372 22495484 22472068 22440596 22402672 
3033.733 22359552 22312006 22260978 22207586 22152944 22099146 22047900 
3037.108 22000666 21958460 21921238 21888202 21858410 21830814 21804578 
3040.483 21779702 21756502 21734938 21715570 21698574 21683700 21671232 
3043.858 21661480 21654548 21650960 21650856 21654236 21660642 21669664 
3047.234 21680566 21692790 21705852 21719332 21732918 21746294 21759568 
3050.609 21772910 21787124 21802766 21820396 21840082 21860778 21880954 
3053.984 21899074 21913362 21923746 21931066 21937198 21944764 21955742 
3057.359 21971354 21991466 22015376 22041972 22070314 22099948 22131152 
3060.735 22164312 22199634 22237300 22276918 22318110 22360842 22405078 
3064.110 22451378 22500020 22551110 22604442 22659698 22716114 22773304 
3067.485 22830960 22888654 22945590 23000890 23052948 23100120 23141846 
3070.860 23178018 23209684 23238800 23267396 23296726 23327456 23359028 
3074.236 23390218 23420326 23448898 23476352 23504052 23533294 23565196 
3077.611 23600248 23638106 23677606 23717602 23757252 23795262 23831592 
3080.986 23866388 23899748 23932622 23965500 23999324 24034658 24071920 
3084.361 24110902 24151570 24193534 24236416 24280284 24325628 24372832 
3087.737 24422180 24473848 24527276 24581830 24637096 24692612 24748660 
3091.112 24806122 24865552 24927800 24992936 25060256 25128992 25197984 
3094.487 25266600 25334526 25402146 25470058 25539034 25609462 25681554 
3097.862 25754748 25828762 25902508 25975210 26046272 26115552 26183152 
3101.238 26250096 26317400 26386088 26457322 26531388 26607930 26686108 
3104.613 26764544 26842150 26918396 26993244 27067540 27142448 27219170 
3107.988 27298164 27379922 27463852 27548890 27633876 27717428 27798736 
3111.363 27877198 27953238 28027450 28101290 28176270 28253740 28333948 
3114.739 28416928 28501374 28585378 28667664 28746956 28823218 28897508 
3118.114 28971106 29045636 29122232 29201004 29281316 29362634 29444004 
3121.489 29524752 29605050 29685082 29764842 29844654 29924270 30002904 
3124.864 30080522 30157160 30233066 30309090 30386232 30464914 30545778 
3128.240 30628472 30712746 30798318 30884830 30971822 31059402 31147390 
3131.615 31235396 31323422 31411358 31498704 31585642 31672202 31758140 
3134.990 31843812 31929214 32014382 32099534 32184876 32270524 32356832 
3138.365 32444406 32532922 32622714 32713268 32804236 32894902 32985088 
3141.740 33074360 33163044 33251676 33340930 33431604 33524082 33617836 
3145.116 33711892 33805220 33896312 33984912 34071344 34156792 34243044 
3148.491 34331820 34424132 34519912 34618544 34718560 34818712 34918344 
3151.866 35017388 35116424 35216088 35316712 35418224 35520004 35621276 
3155.241 35721308 35820000 35917880 36015320 36112996 36211416 36310144 
3158.617 36409004 36507492 36605204 36702364 36799508 36897328 36996428 
3161.992 37097356 37200004 37303944 37408376 37512288 37614564 37714660 
3165.367 37812216 37907004 38000188 38092488 38184520 38277256 38370336 
3168.742 38463224 38555260 38645612 38733776 38819928 38904680 38988804 
3172.118 39072940 39157852 39243324 39329360 39415196 39499848 39582632 
3175.493 39662456 39738076 39809212 39875784 39938184 39998276 40057932 
3178.868 40119196 40183380 40250916 40320972 40392460 40464176 40535136 
3182.243 40605708 40676548 40748276 40821360 40895692 40969860 41043088 
3185.619 41114364 41183760 41252068 41320320 41389672 41460388 41532424 
3188.994 41605128 41677664 41749592 41820840 41891480 41961872 42031948 
3192.369 42101344 42170236 42238520 42306488 42374828 42443948 42513664 
3195.744 42583612 42652544 42719552 42784524 42847708 42910140 42973380 
3199.120 43038240 43104576 43171620 43238012 43302508 43364636 43424652 
3202.495 43483500 43542212 43601700 43662224 43724108 43787324 43851940 
3205.870 43917960 43985312 44052964 44119380 44183056 44242412 44297156 
3209.245 44348308 44398288 44449416 44504148 44562664 44624164 44686668 
3212.621 44748004 44806480 44862432 44916520 44970204 45024928 45080872 
3215.996 45137444 45194064 45250248 45306072 45362936 45422192 45484844 
3219.371 45551596 45621588 45693364 45765628 45837092 45906988 45975528 
3222.746 46043016 46109772 46176248 46242920 46309780 46377392 46446080 
3226.122 46515820 46586228 46656244 46724608 46790404 46852996 46912644 
3229.497 46969972 47026608 47083292 47141492 47201588 47264240 47329560 
3232.872 47397812 47468844 47541996 47616456 47690740 47763708 47835024 
3236.247 47904904 47974504 48045264 48118216 48193664 48271044 48349000 
3239.623 48426560 48503136 48579088 48654764 48731192 48808040 48884756 
3242.998 48960116 49033296 49104044 49173460 49243600 49316344 49393408 
3246.373 49475016 49560172 49647640 49735948 49824312 49912804 50002352 
3249.748 50093036 50184968 50277144 50367884 50455816 50540232 50621348 
3253.124 50700172 50778788 50858308 50939560 51022204 51105536 51188248 
3256.499 51269676 51349064 51426716 51503036 51578472 51653180 51727564 
3259.874 51801288 51873868 51945336 52015360 52084092 52151708 52219004 
3263.249 52286384 52354520 52423900 52494116 52565128 52635624 52704824 
3266.625 52771796 52836004 52897076 52955616 53011952 53066424 53119820 
3270.000 53172508 53224752 53277152 53329900 53382988 53436872 53491208 
3273.375 53545704 53600468 53655240 53709944 53764504 53818992 53872780 
3276.750 53925596 53976996 54027200 54076692 54126460 54177428 54230172 
3280.125 54284948 54340968 54397336 54453300 54508212 54562536 54617240 
3283.501 54673308 54731972 54793840 54859140 54927756 54999580 55074424 
3286.876 55151956 55232056 55313788 55396404 55478960 55560932 55641900 
3290.251 55722620 55803732 55886176 55970672 56057408 56146652 56238628 
3293.626 56334024 56433772 56539132 56651084 56769492 56893740 57022484 
3297.002 57153916 57286896 57420900 57556008 57692708 57831608 57972408 
3300.377 58114956 58259068 58404712 58552480 58703720 58859560 59021344 
3303.752 59189528 59363968 59543572 59727544 59914636 60104172 60295960 
3307.127 60490384 60688020 60890012 61097024 61310004 61529276 61754428 
3310.503 61984088 62217276 62452080 62687932 62925404 63166188 63412352 
3313.878 63666032 63927920 64196756 64470688 64746244 65020984 65293892 
3317.253 65565356 65836488 66109440 66385312 66663796 66944272 67225352 
3320.628 67505880 67785352 68064080 68341928 68618712 68893432 69164976 
3324.004 69431992 69694256 69952448 70207640 70461376 70713752 70964392 
3327.379 71211856 71454040 71689088 71916008 72133776 72341752 72538984 
3330.754 72724200 72895888 73053544 73196392 73325272 73441088 73544336 
3334.129 73634856 73711808 73773968 73820072 73850264 73865624 73867624 
3337.505 73857848 73836832 73803696 73756728 73694096 73614008 73515808 
3340.880 73399928 73266272 73115248 72946568 72759416 72553160 72327744 
3344.255 72083752 71821824 71542912 71247192 70934312 70604224 70257144 
3347.630 69894576 69519080 69133504 68741008 68343632 67942128 67536344 
3351.006 67126224 66711700 66292980 65871500 65447612 65021560 64593008 
3354.381 64161076 63725500 63287376 62849036 62413828 61985504 61566728 
3357.756 61158964 60762328 60376024 59998668 59629808 59269124 58916516 
3361.131 58572312 58236224 57907628 57585932 57270300 56960452 56656296 
3364.507 56358276 56066268 55780788 55502456 55231452 54968816 54715888 
3367.882 54473016 54240456 54016992 53800616 53588812 53379428 53171048 
3371.257 52963404 52757280 52553272 52352052 52153240 51955156 51755596 
3374.632 51552620 51344140 51129092 50907296 50678872 50444504 50204720 
3378.008 49960196 49711056 49457604 49199248 48935268 48664772 48386592 
3381.383 48099632 47803692 47498824 47185484 46864288 46535512 46199612 
3384.758 45856720 45507476 45153028 44795388 44436864 44079184 43723632 
3388.133 43370384 43018600 42666580 42313428 41958476 41602284 41246352 
3391.509 40892272 40541904 40196936 39858204 39526560 39201944 38884244 
3394.884 38572424 38265420 37961388 37658324 37355468 37051564 36747076 
3398.259 36443524 36142236 35844436 35551112 35262232 34977200 34695520 
3401.634 34416640 34140052 33865792 33592808 33320040 33045794 32768112 
3405.010 32485396 32197938 31906892 31614504 31324596 31040006 30762748 
3408.385 30493988 30233278 29978974 29729432 29483044 29238252 28994732 
3411.760 28752056 28510078 28268770 28028512 27789658 27553374 27321134 
3415.135 27094412 26874580 26662326 26457288 26257558 26061050 25864948 
3418.510 25667246 25467282 25265372 25063556 24864572 24670550 24483628 
3421.886 24304392 24132094 23965604 23803170 23643108 23484396 23326828 
3425.261 23169944 23013852 22858724 22704698 22551948 22400962 22252052 
3428.636 22105630 21961840 21820188 21679868 21540188 21400136 21259778 
3432.011 21119536 20980834 20845030 20713576 20587372 20465998 20348790 
3435.387 20234286 20120752 20007384 19893700 19780046 19666766 19554834 
3438.762 19444318 19334868 19225688 19115430 19002982 18888382 18771946 
3442.137 18655230 18540482 18428908 18321340 18217146 18114190 18009600 
3445.512 17901132 17787756 17669612 17549536 17430800 17316618 17209734 
3448.888 17110292 17017108 16928110 16840408 16751619 16660715 16567213 
3452.263 16471013 16372873 16272932 16171260 16068786 15965719 15863054 
3455.638 15761787 15662536 15565472 15470489 15376660 15282852 15188308 
3459.013 15092584 14995098 14896091 14795632 14694237 14592454 14491757 
3462.389 14393345 14298549 14208499 14122917 14040775 13960462 13879718 
3465.764 13797211 13712600 13626159 13539598 13454456 13371756 13291942 
3469.139 13214500 13138540 13062900 12987171 12910842 12833536 12754810 
3472.514 12674665 12592421 12508555 12423684 12339305 12257533 12180105 
3475.890 12107937 12041436 11979543 11920997 11864399 11808456 11752417 
3479.265 11696080 11639784 11583597 11527929 11473593 11420898 11370726 
3482.640 11323586 11278832 11235919 11193282 11149324 11102990 11054146 
3486.015 11003642 10952363 10901939 10853152 10805865 10759976 10714906 
3489.391 10670860 10628753 10590081 10556131 10527648 10504021 10483892 
3492.766 10465427 10447404 10429450 10412752 10398295 10387673 10381462 
3496.141 10379087 10379494 10381394 10383770 10386790 10391474 10398328 
3499.516 10408204 10421067 10435763 10451138 10467124 10483858 10502901 
3502.892 10526596 10556877 10595140 10641351 10694835 10753319 10815308 
3506.267 10878700 10942373 11005376 11067810 11130320 11194370 11261966 
3509.642 11335285 11416407 11505880 11603267 11706088 11811622 11916467 
3513.017 12018272 12115943 12209480 12299594 12387271 12472443 12554528 
3516.393 12632672 12705882 12773952 12837358 12897700 12956003 13012948 
3519.768 13067885 13118459 13162242 13196192 13217506 13224781 13217472 
3523.143 13195816 13160534 13112756 13052964 12981812 12899373 12805039 
3526.518 12698410 12579426 12448165 12306035 12155230 11997766 11836511 
3529.894 11673547 11509895 11346135 11181994 11016726 10849891 10680912 
3533.269 10509147 10334261 10156188 9974527 9789485 9602220 9413679 9225729 
3537.126 9039957 8857849 8680382 8508156 8341976 8182310 8030026 7885388 
3540.984 7748454 7618813 7494875 7374611 7256133 7137249 7016478 6893216 
3544.841 6767230 6639126 6510758 6384075 6261531 6145910 6039122 5941665 
3548.698 5852794 5769951 5689474 5607703 5521786 5429746 5332560 5232344 
3552.556 5132452 5036506 4947518 4866825 4794756 4730638 4672458 4618405 
3556.413 4566200 4513566 4458461 4399848 4336458 4268660 4197895 4125536 
3560.271 4054661 3987576 3926252 3872558 3826961 3788321 3754363 3721310 
3564.128 3684551 3638472 3578868 3503405 3412326 3309948 3203622 3101760 
3567.986 3011833 2938504 2882764 2842574 2814259 2792883 2774942 2756669 
3571.843 2735528 2709821 2678348 2641077 2598742 2552845 2505586 2458799 
3575.700 2414283 2372437 2333160 2295518 2258213 2220545 2182314 2143253 
3579.558 2103897 2065110 2027092 1991008 1958056 1929699 1907301 1891860 
3583.415 1883041 1879048 1876585 1871094 1857384 1831497 1791104 1736443 
3587.273 1671444 1601833 1534993 1477605 1433821 1405099 1390739 1387149 
3591.130 1389742 1393365 1393033 1384556 1365942 1337525 1301431 1261553 
3594.988 1222576 1188187 1160279 1139415 1124001 1111843 1100083 1086564 
3598.845 1069956 1049894 1026810 1002367 978522 957269 940201 928446 922104 
3603.185 921108 924628 931335 939636 947639 952487 951790 942791 924262 
3607.524 896305 861709 824959 791199 764544 746554 735203 726806 716484 
3611.864 699791 675797 645964 614673 587731 569616 562682 565933 575555 
3616.203 586304 592874 590286 575754 548913 512355 470725 429961 396198 
3620.543 373415 362770 363267 371359 383994 397989 412416 428269 448236 
3624.883 474373 507280 544037 577645 597851 593040 554653 481804 384790 
3629.222 282161 195137 137494 112239 112405 127584 146245 160033 164873 
3633.562 161359 152907 144223 138953 138091 140908 144355 145880 144090 
3637.901 139218 132523 126126 121221 118271 116813 115885 115056 115056 
3642.241 117774 124900 138787 159735 187015 218076 249272 276890 297314 
3646.581 307824 306465 292340 265219 224972 173325 113797 52056 -3412 -44364 
3651.402 -64805 -62420 -39692 -3015 38801 76314 101368 108229 95767 67830 
3656.224 32671 -165 -22364 -30382 -24551 -8747 12094 33499 52156 66538 76480 
3661.528 82942 87316 91161 95933 103191 114526 131661 155791 187943 227922 
3666.350 273607 321253 365091 398586 416794 418253 408138 399647 411885 
3670.689 462665 564407 719073 919514 1151142 1395359 1631432 1833992 1976629 
3675.029 2037612 2006187 1889797 1709830 1493198 1262384 1031161 809556 
3678.886 604852 424190 275066 162552 86223 40988 19085 10934 9741 13320 
3683.708 21968 37940 62926 95138 129009 156652 168486 156884 118801 57922 
3688.530 -17030 -93030 -158749 -207336 -237307 -250851 -251679 -243665 
3692.387 -229326 -210747 -189286 -166532 -144307 -124698 -108566 -96840 
3696.245 -88458 -81369 -73716 -63347 -49797 -34424 -20045 -10304 -8846 
3700.584 -17593 -36346 -61691 -87961 -108931 -119365 -116516 -100318 -73352 
3704.924 -39228 -1656 36051 71873 105080 135572 163182 187380 205877 215689 
3709.746 213037 194805 160133 111676 55503 397 -45258 -74545 -85311 -79150 
3714.568 -60896 -36379 -11431 9874 25679 35985 42811 48411 54475 61567 68626 
3719.872 73828 75452 72602 65742 56729 47980 41485 38105 36714 35421 32008 
3725.176 24950 14976 4804 -1358 1126 16070 43772 81649 125331 168187 203855 
3730.479 228353 240454 242177 238365 234586 233823 234785 232630 220098 
3734.819 192485 149327 96662 44898 5235 -15373 -15373 1789 31014 68891 
3739.641 113465 165403 224872 289588 352623 402135 422233 398951 326791 
3743.980 216419 95535 1027 -40024 -22066 42181 130468 220065 291047 331533 
3748.802 337104 310842 262136 201866 139815 81848 31743 -6991 -30217 -34325 
3753.624 -17825 17031 64351 115918 163978 201866 225767 234785 230176 214330 
3758.446 189568 158442 123607 89868 63191 49306 52023 70879 101136 134843 
3763.268 163381 179888 182010 172795 158873 148830 148631 159105 175944 
3767.607 191225 197125 188175 163845 128214 89603 57292 37376 32472 41121 
3772.429 58717 79926 100871 118768 133683 147173 161856 179623 201037 224176 
3777.251 244830 258422 260743 250300 229049 202728 178430 162552 158078 
3781.590 164044 176905 191092 201965 206606 204717 197722 188441 179623 
3785.930 172496 167558 164475 162718 161923 161923 162088 161591 159901 
3790.270 156553 152774 151415 155691 168618 190927 220728 252355 278846 
3794.609 294031 294230 280736 260246 242940 238398 252156 283355 325067 
3798.949 365556 390627 388504 352390 285344 200805 120193 64583 46423 66571 
3803.771 115222 177369 235182 273375 282327 260213 214529 161028 117177 
3808.110 95071 98154 121850 157547 197059 235050 270424 305404 343371 385519 
3812.932 429198 467474 490992 490262 461238 407308 342442 285742 253615 
3817.271 254411 284781 332660 380081 410194 408867 369900 298474 210385 
3821.611 128579 72536 52122 65046 101501 147239 189302 219734 235182 237967 
3826.433 235050 234453 242708 262036 290616 323475 354745 379218 394275 
3830.772 399979 399316 395734 393711 396663 405816 421470 441901 463958 
3835.112 483429 494939 493613 475667 440906 392351 337568 285775 244797 
3839.452 219502 210750 215358 228585 245194 260577 271916 277884 278713 
3843.791 276094 272845 271850 276425 288660 309946 340221 378820 424488 
3848.131 476496 534482 598050 665543 733643 794750 836843 845940 807199 
3852.470 712668 568289 398155 236309 113764 46224 30782 54044 99479 153802 
3857.292 208496 259185 304873 345725 382104 413577 439214 458618 471421 
3861.632 478254 479913 476463 467441 452581 433443 414306 402566 405451 
3865.971 427938 469066 521046 570777 604089 608103 576848 514777 437191 
3870.311 365290 315882 296816 303348 324636 346720 359586 359155 348643 
3874.651 335943 330472 339027 363135 399747 442034 482235 513218 529440 
3878.990 528278 511095 483429 453046 429695 421105 430193 454604 487211 
3883.330 517530 534449 529539 500778 454140 403428 364925 351959 369568 
3887.669 413245 471687 531231 578574 603425 601268 573663 528809 478055 
3892.009 433410 404158 394474 404722 431851 471853 519653 570379 619617 
3896.349 663087 696737 718276 726408 721529 706229 684591 661560 640854 
3900.688 624628 612052 600472 585707 564540 535743 501275 465550 434936 
3905.028 414638 407806 414074 430923 453908 478984 503133 524729 543605 
3909.367 560193 574825 587631 598548 607705 615735 623831 633686 645964 
3913.707 660631 675996 688872 696339 695974 687113 671350 652402 634084 
3918.047 620048 612317 611222 616100 625457 637602 651240 664149 674370 
3922.386 679845 678784 670188 654957 636109 617261 603060 596789 599676 
3926.726 610957 627946 647258 665708 680675 690531 694879 694182 688839 
3931.065 679945 668828 656848 645499 636208 629970 627017 627216 629870 
3935.405 634217 639792 646296 653762 662290 672014 682401 692821 701915 
3939.745 708386 710875 708552 701052 689005 673905 657877 643475 633122 
3944.084 628045 628510 633554 640953 649216 656284 661229 664547 666903 
3948.424 669425 673042 678053 684093 690399 696671 702977 709681 718144 
3952.763 728565 740945 754753 768229 779846 788410 793157 794584 794186 
3957.103 793057 792825 794120 797074 800759 804311 806601 806568 804045 
3961.443 798966 791896 784128 776593 770187 766038 764378 765341 768992 
3965.782 774668 782070 790667 799829 808560 816527 822900 827216 829772 
3970.122 831100 832030 833623 837109 842487 849990 858721 867719 875753 
3974.461 882460 887374 891125 894246 897533 901285 905901 910815 915264 
3978.801 918684 920610 920709 919415 917090 914666 912541 911047 910217 
3983.141 909752 908856 907262 904838 901518 898198 895541 894246 894645 
3987.480 896338 898729 900588 901518 901219 900190 899526 900455 903809 
3991.820 909918 918186 927284 935718 941928 944850 944584 941728 937478 
3996.159 933427 930671 929774 930571 932398 934257 934888 933991 931036 
4000.499 926587 
##END=
