
##TITLE=mdmaHCL00403_1
##JCAMP-DX=5.01  $$ Nicolet v. 1
##DATATYPE=INFRARED SPECTRUM
##ORIGIN=UniL
##OWNER=Nicolet
##LONGDATE=2011/08/23
##TIME=11:05:48
##SPECTROMETER/DATA SYSTEM=Nicolet iS5
##DATA PROCESSING=
Ratio against background
%Transmittance->Absorbance
Truncated
ElementMultiply or ElementDivide
##COMMENTS=
Number of sample scans: 32
Collection length: 51.22 sec
Sample gain: 2.0
Background collected on: Mar Aout 23 11:04:08 2011 (GMT+02:00);
Number of background scans: 32
Background gain: 2.0
Sample spacing:  1.000
Number of scan points: 12415
Resolution points: 8192
Number of FFT points: 65536
Apodization: N-B fort;
Phase correction: Mertz;
Laser frequency: 15798.0 cm-1
Number of rejected sample scans: 0
Number of rejected background scans: 0
Bench serial number: ASB1000141;
##RESOLUTION=4.000
##XUNITS=1/CM
##YUNITS=ABSORBANCE
##FIRSTX=649.893372
##LASTX=4000.122314
##FIRSTY=0.100294
##MAXX=4000.122314
##MINX=649.893372
##MAXY=0.257668
##MINY=0.002118
##XFACTOR=1.000000
##YFACTOR=1.000000E-009
##NPOINTS=6950
##DELTAX=0.482117
##ZPD=6100
##XYDATA=(X++(Y..Y))
649.893 100294136 99666800 99090976 98586720 98152696 97774056 97439200 
653.268 97151840 96935112 96823048 96841968 96994968 97255488 97578056 
656.643 97913888 98231544 98529392 98829352 99163248 99553480 100003672 
660.018 100497088 101011928 101531696 102058208 102607384 103201840 
662.911 103855184 104564688 105310024 106063488 106800000 107496424 
665.803 108134936 108692152 109136456 109432544 109562536 109544416 
668.696 109426528 109263976 109085552 108884928 108628752 108274360 
671.589 107791480 107172944 106443168 105647792 104840672 104060904 
674.481 103321496 102612216 101912008 101204384 100486400 99769136 99069368 
677.856 98398624 97757080 97134304 96516472 95895432 95273664 94662104 
681.231 94072384 93511040 92973768 92449296 91923792 91389208 90847784 
684.606 90308824 89784296 89281400 88800392 88335632 87880704 87433008 
687.981 86996424 86578840 86188816 85829776 85499760 85193144 84904704 
691.355 84633808 84384208 84161456 83968648 83803808 83661128 83534928 
694.730 83426144 83344648 83310120 83344920 83464528 83672624 83958760 
698.105 84302528 84681520 85079792 85492504 85923704 86380952 86867184 
701.480 87376928 87896768 88410232 88903744 89372736 89820024 90252768 
704.855 90675128 91084944 91473832 91832000 92153552 92440856 92702968 
708.229 92951808 93195832 93436048 93668048 93886936 94095096 94305392 
711.604 94539832 94821592 95165992 95570400 96012216 96450152 96837416 
714.979 97129744 97295656 97323224 97218640 97004456 96713904 96392440 
718.354 96094440 95877168 95802552 95925432 96281464 96880816 97695464 
721.729 98660816 99671216 100600336 101321400 101719528 101726640 101332032 
725.104 100590056 99606368 98519448 97473208 96575240 95888824 95424840 
728.478 95153288 95021920 94977680 94984968 95025464 95095912 95198208 
731.853 95330120 95482216 95641752 95797184 95944192 96086792 96232904 
735.228 96387928 96550744 96713248 96864792 96999072 97118600 97234272 
738.603 97361408 97512232 97689696 97887192 98091776 98291328 98479208 
741.978 98656744 98829272 99001952 99174696 99342600 99498320 99637952 
745.352 99763552 99883848 100009600 100147608 100297768 100453240 100604888 
748.727 100746680 100880088 101012808 101154912 101311896 101480472 
751.620 101649296 101804968 101936680 102042912 102130176 102210080 
754.513 102292808 102382136 102475680 102568104 102657152 102745680 
757.405 102842032 102955488 103090832 103245504 103410864 103575872 
760.298 103734800 103889568 104049784 104226448 104427712 104654112 
763.191 104900528 105160816 105435120 105733760 106078968 106499608 
766.083 107022512 107668008 108441736 109331688 110303728 111302352 
768.976 112256296 113081368 113704896 114086144 114237720 114234920 
771.869 114206984 114309920 114664216 115315472 116194056 117127656 
774.762 117861632 118127800 117736120 116607968 114808952 112507888 
777.654 109936368 107312280 104783944 102425800 100234656 98161048 96137600 
781.029 94110240 92050488 89954880 87840136 85734224 83671744 81686176 
784.404 79810504 78074744 76500656 75101904 73882512 72838288 71961208 
787.779 71243640 70681776 70276856 70033808 69958136 70054912 70328352 
791.154 70782496 71425448 72269592 73330408 74623632 76157632 77926680 
794.528 79903576 82039568 84261656 86472328 88565536 90426848 91947496 
797.903 93048520 93689264 93887184 93714584 93299576 92799944 92363056 
801.278 92111392 92102672 92318304 92657392 92955880 93022656 92662528 
804.653 91736664 90190944 88071968 85517840 82727272 79921696 77274792 
808.028 74889416 72777952 70875560 69068904 67237688 65300480 63227356 
811.402 61046452 58823060 56640104 54571444 52664728 50944364 49412900 
814.777 48061252 46876284 45844604 44953520 44188560 43533460 42971916 
818.152 42488888 42074436 41724424 41438988 41219024 41064104 40970916 
821.527 40934648 40950960 41019744 41145108 41335592 41601228 41949864 
824.902 42385788 42907324 43506904 44170000 44874412 45591372 46282760 
828.277 46907880 47429372 47819412 48070656 48200880 48255012 48295488 
831.651 48397816 48639272 49081300 49764076 50692652 51831264 53095216 
835.026 54353360 55450840 56212644 56484260 56167128 55231604 53734092 
838.401 51797852 49599540 47321468 45121416 43123608 41396272 39962596 
841.776 38811448 37912068 37224768 36709000 36329744 36055892 35861200 
845.151 35726740 35638720 35589768 35577504 35601316 35660084 35750812 
848.525 35868328 36007616 36165428 36341304 36536792 36753928 36992316 
851.900 37249860 37523048 37809756 38111696 38434988 38789096 39183452 
855.275 39624556 40114840 40653592 41239864 41875640 42568224 43330224 
858.650 44177668 45126820 46194528 47397812 48754396 50284284 52005352 
862.025 53925896 56033660 58286392 60607704 62880708 64971500 66741912 
865.400 68067520 68868888 69117768 68846760 68139960 67127696 65969840 
868.774 64821564 63832648 63124536 62776328 62832840 63300604 64154624 
872.149 65341652 66785776 68395104 70053320 71633048 73003952 74034472 
875.524 74620680 74697328 74247688 73306800 71953864 70301280 68466200 
878.899 66563948 64693064 62920920 61289780 59815684 58494856 57312076 
882.274 56249000 55291284 54431816 53672484 53021200 52488916 52084204 
885.648 51810208 51665088 51643176 51738800 51949484 52277300 52727608 
889.023 53305924 54013880 54846508 55792164 56835688 57961728 59159644 
892.398 60425260 61761648 63176112 64677448 66272140 67961536 69737872 
895.773 71578536 73441480 75263592 76951136 78393288 79473496 80079208 
899.148 80132120 79599480 78501616 76907744 74926976 72695952 70349240 
902.523 68017840 65814972 63821444 62094324 60663556 59535856 58702200 
905.897 58143556 57838724 57766164 57909064 58256760 58802120 59541252 
909.272 60471684 61591624 62899320 64392016 66064188 67904312 69890256 
912.647 71984128 74136992 76287752 78372016 80338264 82151880 83805304 
916.022 85317288 86730936 88104352 89496296 90960728 92530848 94209144 
919.397 95958824 97701024 99323440 100681968 101636072 102076064 101946984 
922.771 101276544 100180488 98863760 97575400 96590928 96174560 96517720 
926.146 97727664 99795944 102601296 105905440 109379984 112671408 115404280 
929.521 117253680 117992736 117488952 115725040 112778960 108809160 
932.414 104025280 98663440 92987808 87249392 81677224 76475008 71789216 
935.789 67717848 64313396 61585704 59519784 58085564 57249244 56971784 
939.163 57204144 57883432 58914240 60167836 61496596 62729852 63707544 
942.538 64307632 64451508 64125164 63371828 62286108 60988184 59602480 
945.913 58246604 57006164 55935244 55058212 54374128 53866628 53511748 
949.288 53286480 53169252 53141204 53186440 53288692 53431696 53601740 
952.663 53787080 53980936 54181932 54392904 54618144 54862072 55127236 
956.037 55414552 55723484 56053752 56405664 56780328 57178372 57599136 
959.412 58040988 58501184 58977580 59469320 59977172 60502532 61045992 
962.787 61606440 62180992 62765532 63357568 63956364 64564556 65186196 
966.162 65825036 66482732 67158712 67850584 68556592 69276856 70014464 
969.537 70774464 71562328 72381840 73234976 74122536 75045624 76007336 
972.912 77013048 78069040 79180952 80351576 81580576 82865872 84206024 
976.286 85601688 87056864 88577112 90167736 91832448 93572112 95387112 
979.661 97279616 99255432 101325040 103500424 105792088 108205616 110739560 
983.036 113384760 116123744 118932184 121773936 124595208 127327096 
985.929 129875344 132128240 133975568 135312256 136061968 136190512 
988.821 135707904 134670144 133167848 131326808 129287792 127192736 
991.714 125184488 123381008 121870608 120712680 119930816 119522800 
994.607 119468136 119739096 120307088 121146040 122235264 123554528 
997.500 125082344 126797112 128674704 130691096 132824496 135049008 
1000.392 137332048 139631200 141886256 144026144 145977568 147669472 
1003.285 149050560 150095120 150805808 151212816 151370448 151356224 
1006.178 151258288 151174992 151208352 151445632 151959616 152798832 
1009.070 153984416 155515424 157374960 159540608 161987024 164691008 
1011.963 167631008 170780960 174110896 177589168 181181504 184858064 
1014.856 188591696 192348784 196082448 199720800 203155392 206257664 
1017.748 208886624 210912416 212251312 212878384 212843264 212259872 
1020.641 211307248 210209312 209194288 208497712 208323552 208815776 
1023.534 210062128 212077536 214815136 218172704 222017536 226207600 
1026.427 230590320 235024160 239374176 243500384 247273408 250572944 
1029.320 253296944 255380512 256794848 257547088 257667536 257200304 
1032.213 256194624 254697328 252759456 250433600 247768480 244806080 
1035.106 241571632 238071088 234294848 230229952 225873968 221245664 
1037.999 216388992 211368000 206262864 201154080 196118352 191230000 
1040.892 186549744 182127632 177995776 174159472 170593792 167242512 
1043.785 164032704 160882704 157724576 154523216 151280592 148038432 
1046.678 144864960 141848448 139077952 136629664 134567872 132933736 
1049.571 131745576 131001128 130678296 130739320 131132768 131804960 
1052.464 132702096 133772896 134974208 136263200 137591648 138905728 
1055.357 140137792 141210304 142048752 142581552 142753248 142531584 
1058.250 141906832 140895408 139537840 137902784 136081680 134179904 
1061.144 132319304 130615664 129170136 128067984 127364280 127089408 
1064.037 127249672 127830208 128795968 130090368 131640760 133352400 
1066.930 135113664 136814096 138342848 139606016 140538432 141097728 
1069.823 141266208 141044400 140444896 139488992 138203488 136622400 
1072.716 134783376 132726160 130495592 128137320 125702288 123252400 
1075.609 120855336 118587400 116530304 114755992 113326256 112284960 
1078.502 111651936 111425336 111579576 112070112 112828280 113764616 
1081.395 114777832 115750168 116567448 117137816 117399408 117340064 
1084.288 116998152 116462160 115852048 115302552 114955808 114932888 
1087.181 115330552 116213720 117604960 119483184 121778760 124385176 
1090.074 127155032 129916192 132503720 134759648 136558880 137822816 
1092.967 138511952 138627888 138202976 137296512 135983504 134344064 
1095.860 132465184 130425888 128294496 126131608 123983888 121887496 
1098.753 119869552 117943568 116108248 114344024 112615656 110874816 
1101.646 109069968 107162344 105133592 102995272 100786840 98573704 96434672 
1105.022 94445920 92680776 91197136 90034288 89217720 88756656 88647376 
1108.397 88874264 89412592 90229280 91282896 92529080 93918856 95397016 
1111.772 96906576 98382584 99752592 100946592 101895240 102540328 102844168 
1115.147 102788376 102376176 101627320 100576320 99266216 97743928 96061864 
1118.523 94270472 92414416 90533400 88655952 86800576 84979800 83201912 
1121.898 81475120 79810664 78220760 76717928 75312968 74011800 72816976 
1125.273 71729616 70751656 69889624 69155888 68566376 68140080 67894160 
1128.648 67839928 67981184 68311096 68813176 69458232 70207248 71012888 
1132.024 71817720 72564752 73202544 73691032 74013016 74175600 74211440 
1135.399 74169848 74111840 74100136 74184320 74398904 74755136 75240576 
1138.774 75818352 76431584 77014152 77490632 77791240 77860280 77656264 
1142.149 77158264 76363008 75282152 73938256 72362544 70595648 68682400 
1145.525 66672368 64618692 62569440 60568848 58654260 56852536 55183292 
1148.900 53659328 52287016 51069052 50004472 49089500 48318004 47681976 
1152.275 47173440 46784424 46508776 46342444 46283128 46329172 46479124 
1155.650 46729884 47077568 47517596 48044932 48655244 49344220 50107464 
1159.026 50939820 51835300 52787100 53788656 54833232 55913576 57020596 
1162.401 58140448 59253592 60335400 61355068 62279304 63076868 63716756 
1165.776 64173020 64424144 64453504 64251652 63817596 63160748 62299380 
1169.151 61259944 60075404 58777876 57399648 55970672 54516480 53060960 
1172.527 51626724 50233024 48898476 47638936 46466292 45390300 44417412 
1175.902 43552212 42798268 42158588 41635468 41230864 40945500 40779500 
1179.277 40732264 40803632 40994768 41308148 41747660 42317588 43021672 
1182.652 43862204 44839948 45953432 47199704 48571680 50056116 51633104 
1186.028 53270484 54925232 56548344 58082044 59469776 60661344 61612552 
1189.403 62291888 62682152 62781304 62603652 62178620 61550884 60771240 
1192.778 59895240 58979288 58070868 57211744 56434528 55760784 55203196 
1196.153 54765044 54441392 54218948 54077144 53991404 53931112 53863852 
1199.529 53757228 53577600 53294084 52880724 52317328 51595380 50719240 
1202.904 49708344 48593876 47415772 46218812 45043012 43922436 42882524 
1206.279 41937640 41094440 40353296 39710448 39159992 38694508 38306676 
1209.654 37988796 37734032 37537792 37397936 37315100 37291740 37331708 
1213.030 37437952 37612252 37854508 38163244 38535888 38968796 39457032 
1216.405 39993804 40569364 41172648 41791180 42412968 43028840 43631960 
1219.780 44218164 44785320 45331924 45857680 46363936 46854800 47338576 
1223.155 47826736 48334148 48876228 49466924 50117396 50834804 51620828 
1226.531 52471796 53377856 54322872 55282556 56228860 57129996 57954004 
1229.906 58675920 59277480 59750092 60095800 60326264 60463612 60537572 
1233.281 60589380 60668284 60826432 61121008 61605332 62324168 63315324 
1236.656 64605044 66209844 68138144 70390304 72957776 75819536 78942776 
1240.031 82278728 85761792 89320024 92872200 96333120 99623784 102663576 
1243.407 105376280 107696832 109569568 110957328 111843888 112233032 
1246.300 112145608 111613288 110678800 109389400 107796456 105956440 
1249.193 103921600 101735272 99426160 97002960 94456544 91766872 88915664 
1252.568 85896488 82725464 79440632 76103656 72791544 69580416 66544748 
1255.943 63744724 61217712 58981568 57030988 55342316 53875108 52578964 
1259.319 51400868 50284920 49183924 48061768 46894184 45672492 44400564 
1262.694 43092796 41769144 40453152 39169236 37937848 36776792 35699400 
1266.069 34713212 33821660 33023592 32314640 31687814 31135678 30651370 
1269.444 30228768 29863430 29551244 29288582 29071638 28896942 28761542 
1272.820 28664372 28605762 28587820 28612558 28681574 28794326 28948048 
1276.195 29137326 29353418 29585044 29817010 30030136 30205074 30321916 
1279.570 30365124 30327068 30208236 30017922 29769632 29480030 29163016 
1282.945 28828954 28484888 28136144 27787892 27448180 27127072 26836336 
1286.321 26588062 26392180 26256608 26187376 26188890 26265442 26420982 
1289.696 26658168 26978470 27380100 27858582 28406066 29010528 29656984 
1293.071 30323658 30983886 31607698 32161932 32618356 32957632 33173166 
1296.446 33273030 33277538 33217158 33124138 33030276 32964352 32947876 
1299.822 32997600 33123706 33329088 33608028 33945216 34318304 34696668 
1303.197 35047776 35342912 35557404 35675912 35692388 35609120 35436160 
1306.572 35188924 34888364 34557188 34218308 33893768 33600148 33348232 
1309.947 33143878 32987948 32879214 32816600 32800018 32830146 32906984 
1313.323 33029168 33192516 33391416 33620448 33875352 34154068 34456564 
1316.698 34783532 35135748 35513248 35916444 36346636 36806544 37299972 
1320.073 37829312 38393540 38985360 39591196 40191232 40760356 41274480 
1323.448 41710308 42049940 42284900 42418188 42467076 42460828 42441536 
1326.823 42456152 42547356 42749200 43077684 43528768 44079552 44694892 
1330.199 45337076 45970372 46570400 47124764 47632576 48102408 48548520 
1333.574 48989788 49444828 49931648 50464524 51050864 51690688 52374592 
1336.949 53086980 53806240 54508816 55172608 55776716 56303432 56739736 
1340.324 57076896 57312796 57450404 57498360 57467684 57369248 57212612 
1343.700 57004124 56746908 56442904 56093604 55701260 55269948 54803800 
1347.075 54306276 53778492 53218872 52623804 51989364 51314680 50604524 
1350.450 49870880 49133128 48419188 47761196 47192908 46749776 46462272 
1353.825 46354312 46439740 46718520 47173740 47769512 48457568 49179064 
1357.201 49871064 50479224 50957108 51272096 51407952 51363984 51156452 
1360.576 50815848 50390100 49939900 49529604 49225080 49076924 49110904 
1363.951 49324992 49690400 50160124 50673028 51166440 51579148 51852844 
1367.326 51944400 51827716 51499228 50978012 50301696 49518204 48673260 
1370.702 47807872 46954724 46136712 45374372 44688580 44101704 43638740 
1374.077 43320668 43158296 43148236 43273480 43510492 43834348 44227736 
1377.452 44683068 45201932 45793388 46472192 47257516 48170820 49234988 
1380.827 50468768 51876852 53438144 55093232 56749252 58275856 59525404 
1384.203 60360836 60657992 60333460 59359980 57786148 55744808 53431776 
1387.578 51085148 48911904 47049356 45557700 44425228 43598880 43006928 
1390.953 42580976 42260432 41993004 41737520 41458712 41129300 40734700 
1394.328 40275384 39766616 39231684 38693064 38164004 37646000 37133016 
1397.704 36619876 36108536 35613832 35160256 34774340 34476580 34274344 
1401.079 34162168 34126540 34152420 34227660 34345092 34503304 34704024 
1404.454 34950088 35242108 35577652 35951932 36359176 36794608 37255960 
1407.829 37743140 38256848 38797716 39364768 39954788 40563472 41186564 
1411.205 41820400 42462616 43110616 43760240 44405776 45040436 45657696 
1414.580 46255188 46835316 47405460 47975800 48557228 49159508 49789976 
1417.955 50453772 51153804 51886712 52642732 53402884 54141472 54829100 
1421.330 55439432 55954652 56367292 56686500 56937216 57159548 57396472 
1424.706 57683396 58040116 58467636 58955452 59489420 60059348 60659708 
1428.081 61287224 61937812 62603800 63275760 63947148 64619228 65302908 
1431.456 66014156 66770436 67582960 68454912 69382968 70362992 71396504 
1434.831 72493056 73671016 74951272 76350320 77866424 79480416 81162616 
1438.207 82878264 84590488 86253512 87812392 89191680 90300336 91052296 
1441.582 91367376 91189368 90492384 89276848 87570240 85421504 82906016 
1444.957 80115224 77144536 74097344 71068576 68146088 65417260 62956272 
1448.332 60815720 59015116 57537888 56341716 55376456 54606648 54019360 
1451.708 53625324 53444104 53488360 53747176 54184900 54738848 55330388 
1455.083 55880184 56309388 56565816 56643348 56596880 56519700 56500676 
1458.458 56598844 56832556 57196624 57678100 58263012 58937088 59679264 
1461.833 60461896 61243464 61968004 62576860 63014308 63248276 63283660 
1465.208 63164576 62957808 62724532 62509628 62332156 62191008 62073220 
1468.584 61958868 61822920 61630188 61335988 60887760 60234368 59349724 
1471.959 58254864 57030988 55793972 54656924 53692656 52921032 52328016 
1475.334 51889472 51590076 51429212 51415412 51554632 51841680 52256372 
1478.709 52770448 53353240 53981760 54646888 55352440 56112908 56946740 
1482.085 57873132 58907752 60065744 61366288 62833340 64494288 66371456 
1485.460 68470776 70766160 73184744 75613752 77891000 79820184 81203400 
1488.835 81848568 81615120 80453288 78425040 75701936 72513496 69100912 
1492.210 65650752 62272840 59021460 55904264 52914444 50061320 47378560 
1495.586 44928676 42791468 41035368 39695308 38764424 38207492 37975056 
1498.961 38019752 38304104 38795724 39464468 40280508 41208896 42211752 
1502.336 43251664 44281964 45247712 46080888 46681624 46922204 46655540 
1505.711 45751048 44169888 42021324 39546920 37006708 34578608 32327954 
1509.087 30243226 28288360 26436970 24681984 23038904 21533190 20184650 
1512.462 19002982 17982698 17108052 16358698 15714958 15159246 14674221 
1515.837 14244243 13857995 13509723 13202443 12944192 12741365 12593137 
1519.212 12487584 12402783 12315205 12208185 12084088 11964318 11879893 
1522.588 11852481 11883026 11955394 12044298 12128925 12197893 12254329 
1525.963 12311797 12387748 12493005 12627486 12782278 12946820 13114941 
1529.338 13287809 13472091 13674506 13897679 14137192 14383206 14624357 
1532.713 14855493 15080784 15313912 15568597 15852125 16159602 16478034 
1536.089 16789948 17079686 17336582 17553364 17726766 17854764 17935662 
1539.464 17966880 17947886 17885008 17792348 17686800 17580932 17477056 
1542.839 17366376 17233006 17062766 16849742 16602807 16341290 16088970 
1546.214 15862228 15663395 15482163 15301007 15105208 14888684 14658833 
1549.590 14432597 14229794 14062062 13928607 13817905 13715541 13611048 
1552.965 13502716 13397931 13308786 13246131 13212382 13200700 13196943 
1556.340 13183383 13139940 13045179 12880157 12636902 12331669 12007951 
1559.715 11720112 11504996 11370318 11302263 11276690 11269549 11258667 
1563.091 11229153 11174787 11099863 11017202 10942712 10889436 10860524 
1566.466 10849891 10844761 10832531 10804166 10758379 10701356 10644747 
1569.841 10600878 10578028 10579862 10606073 10654560 10722412 10804914 
1573.216 10895008 10982029 11053058 11097245 11110366 11100644 11086912 
1576.592 11093608 11135929 11216369 11325933 11452126 11584686 11718308 
1579.967 11853775 11994326 12144189 12305491 12477661 12658597 12845480 
1583.342 13035892 13227002 13414232 13589304 13741463 13859808 13936101 
1586.717 13968639 13963712 13935382 13901614 13881668 13893232 13949445 
1590.093 14059667 14230000 14462433 14753398 15091109 15454901 15813671 
1593.468 16130269 16370293 16504604 16517855 16410723 16199015 15909590 
1596.843 15572993 15221662 14882924 14578268 14325602 14136883 14019660 
1600.218 13976373 14004842 14099813 14254857 14465619 14728992 15042466 
1603.594 15401274 15795976 16210640 16626045 17018830 17366170 17648390 
1606.969 17848342 17953896 17958212 17859804 17663056 17377136 17017796 
1610.344 16605286 16164005 15721316 15300939 14920472 14588103 14302521 
1613.719 14054944 13832032 13620415 13408593 13191205 12971672 12762555 
1617.094 12582223 12446767 12365930 12339510 12359282 12412193 12483151 
1620.470 12558245 12626429 12682614 12728776 12774225 12830942 12909272 
1623.845 13013870 13142535 13288868 13446117 13610021 13778195 13949478 
1627.220 14122541 14294064 14460173 14618086 14767693 14912516 15057388 
1630.595 15206460 15360629 15517188 15668925 15806215 15919385 15998755 
1633.971 16037157 16031828 15986310 15911892 15826043 15747700 15689330 
1637.346 15654910 15640175 15635882 15630351 15613246 15577973 15523747 
1640.721 15456206 15384933 15320194 15268471 15229726 15197366 15159863 
1644.096 15104283 15018833 14896742 14738796 14555037 14363959 14187513 
1647.472 14047209 13956527 13920054 13933774 13987596 14065793 14146639 
1650.847 14204049 14205109 14117852 13927957 13660316 13381530 13162515 
1654.222 13040092 13004583 13023839 13063719 13100804 13123479 13128841 
1657.597 13119791 13100906 13076183 13045793 13007383 12956549 12889270 
1660.973 12803265 12699229 12580415 12453688 12328022 12212376 12114649 
1664.348 12039323 11986253 11951069 11925220 11898077 11857691 11793544 
1667.723 11699757 11576655 11431886 11278390 11131408 11002793 10898779 
1671.098 10819962 10762047 10717623 10676735 10628041 10558880 10459182 
1674.474 10325880 10167314 10003414 9856999 9745432 9672312 9629658 9602220 
1678.331 9575290 9540233 9496170 9450385 9412731 9390756 9383138 9378737 
1682.188 9357205 9296336 9180311 9011980 8817541 8637995 8507412 8435548 
1686.046 8411224 8413758 8424096 8428656 8420785 8399063 8365351 8323332 
1689.903 8277468 8233668 8198112 8176435 8171877 8183154 8203312 8219486 
1693.761 8216210 8179845 8105368 8002620 7896421 7817573 7783771 7794364 
1697.618 7830697 7866325 7872161 7825703 7720290 7573057 7421661 7304517 
1701.476 7242252 7230898 7252561 7285783 7313346 7324197 7313346 7282447 
1705.333 7238512 7191347 7149543 7118117 7097673 7085784 7078442 7071909 
1709.190 7064230 7055474 7047661 7043250 7044630 7052713 7066790 7084909 
1713.048 7104780 7124618 7143851 7162007 7177839 7187844 7186597 7168070 
1716.905 7129165 7073559 7012336 6961324 6932807 6932504 6957621 7000012 
1720.763 7049076 7095551 7134049 7162512 7183296 7200409 7218534 7240567 
1724.620 7267521 7298385 7331542 7365141 7397225 7425537 7447480 7460761 
1728.478 7464334 7459379 7450008 7441210 7436997 7437300 7436255 7421829 
1732.335 7378655 7293398 7162108 6998497 6831447 6694542 6608545 6574870 
1736.192 6580151 6605382 6633373 6650666 6649994 6630480 6596736 6557008 
1740.050 6519974 6492091 6475578 6469726 6471912 6479647 6490813 6504166 
1743.907 6519503 6537263 6558454 6583717 6613120 6645754 6679232 6709819 
1747.765 6733678 6747239 6747744 6734182 6706757 6668162 6622439 6575812 
1751.622 6535312 6507328 6495320 6499289 6515265 6536624 6554754 6562020 
1755.479 6553644 6529695 6495522 6460578 6434179 6421333 6421400 6428126 
1759.337 6433035 6427487 6405898 6367398 6315856 6259110 6206035 6164293 
1763.194 6137777 6126922 6129375 6141306 6157672 6173165 6183147 6184559 
1767.052 6177669 6166208 6156059 6153336 6160428 6174980 6189835 6195381 
1770.909 6182878 6148968 6097922 6041474 5993800 5965246 5958730 5970083 
1774.767 5991987 6017485 6042784 6067278 6092008 6117883 6143860 6166376 
1778.624 6181299 6185298 6178341 6164091 6148800 6138886 6137878 6145271 
1782.481 6157370 6169502 6177702 6180458 6178878 6176056 6174745 6176896 
1786.339 6183147 6193398 6207783 6226505 6250236 6277801 6306174 6330683 
1790.196 6344669 6342652 6321908 6284692 6237698 6190205 6150715 6123663 
1794.054 6109247 6104677 6105920 6109785 6113850 6116539 6116438 6112405 
1797.911 6102963 6087708 6067211 6043490 6019703 5999041 5983689 5974014 
1801.769 5969042 5967027 5966926 5968370 5971595 5977676 5987115 5999780 
1805.626 6015066 6031797 6049638 6067782 6085926 6102963 6117345 6127259 
1809.483 6130988 6128367 6120538 6110154 6100577 6094360 6092546 6094394 
1813.341 6098292 6102392 6105954 6109549 6115060 6124872 6141171 6164662 
1817.198 6195112 6230740 6269867 6310141 6349981 6387774 6422544 6453617 
1821.056 6480555 6503459 6522127 6536085 6544461 6546446 6542073 6533126 
1824.913 6523203 6517552 6520916 6535682 6560338 6590546 6619310 6639362 
1828.771 6646562 6640876 6627519 6614499 6609857 6618435 6639900 6670652 
1832.628 6705546 6740307 6773153 6804419 6835991 6869551 6905504 6943244 
1836.485 6980785 7017488 7053891 7092722 7137889 7193031 7260546 7340877 
1840.343 7431705 7529126 7628761 7725180 7813457 7890145 7953955 8006602 
1844.200 8053552 8102060 8158304 8224990 8300636 8379707 8455008 8518934 
1848.058 8566480 8595848 8608185 8606731 8594902 8574591 8545901 8507818 
1851.915 8458894 8399569 8331911 8259232 8184234 8109048 8033706 7957296 
1855.772 7879078 7799322 7719952 7643531 7572146 7506336 7445019 7385968 
1859.630 7327600 7270014 7214693 7164668 7122529 7089118 7063220 7043048 
1863.487 7025941 7011292 6999372 6991123 6986947 6985062 6981594 6972301 
1867.345 6953816 6925602 6891870 6859352 6834981 6823806 6826297 6839323 
1871.202 6857534 6876317 6892476 6904427 6912271 6916277 6916344 6912136 
1875.060 6903349 6890287 6874567 6857702 6841309 6826095 6811387 6795803 
1878.917 6778134 6758312 6737447 6717693 6700902 6688149 6678896 6671426 
1882.774 6664024 6655411 6645687 6635695 6626476 6618469 6611000 6602724 
1886.632 6591892 6577797 6560338 6540290 6519369 6499289 6481766 6468919 
1890.489 6462563 6464345 6475174 6494614 6520210 6548329 6574130 6593843 
1894.347 6605618 6610597 6611606 6612481 6616282 6624121 6635526 6648883 
1898.204 6663284 6678795 6696157 6716280 6738557 6761609 6781869 6796947 
1902.062 6805665 6809064 6810006 6811958 6817277 6826196 6837102 6847065 
1905.919 6853663 6855884 6854235 6850768 6847065 6844103 6842454 6842016 
1909.776 6842958 6846964 6854975 6867834 6885036 6904292 6923010 6938901 
1913.634 6950988 6959742 6966509 6971728 6974859 6973142 6963849 6945298 
1917.491 6919206 6890220 6864468 6846830 6838650 6836799 6835688 6829293 
1921.349 6814449 6791899 6766287 6744042 6730447 6727452 6733105 6743336 
1925.206 6753667 6761845 6767600 6772413 6778033 6784898 6792707 6800044 
1929.063 6806473 6812800 6820811 6832255 6847065 6863795 6879280 6890489 
1932.921 6896751 6899848 6903450 6911261 6924963 6942705 6959977 6971526 
1936.778 6973445 6965600 6951358 6935433 6923077 6917051 6916849 6920754 
1940.636 6925973 6931090 6936073 6942234 6950079 6959876 6970516 6981156 
1944.493 6992537 7006477 7026075 7053756 7090129 7132432 7176559 7217287 
1948.351 7251786 7279246 7300845 7319142 7335654 7350481 7361872 7368511 
1952.208 7369185 7364905 7357322 7347785 7335620 7319749 7297610 7268464 
1956.065 7234637 7200982 7174538 7161299 7163927 7180534 7206170 7235311 
1959.923 7263815 7291713 7320995 7354694 7393417 7434132 7471615 7501886 
1963.780 7522080 7533812 7542443 7553535 7571776 7597738 7628930 7661640 
1967.638 7692364 7720256 7745553 7769468 7791361 7809679 7820710 7822498 
1971.495 7815515 7803134 7791328 7786537 7793284 7813829 7848307 7897062 
1975.353 7960603 8040895 8138047 8249033 8365925 8476361 8566650 8627314 
1979.210 8654118 8649386 8620420 8576145 8524274 8471090 8420683 8375754 
1983.067 8339274 8313571 8299521 8295806 8296921 8296414 8287430 8266154 
1986.925 8233161 8193553 8154084 8119615 8092507 8070498 8049400 8025503 
1990.782 7998334 7970727 7948084 7935901 7935529 7945822 7961413 7978523 
1994.640 7994790 8010383 8028338 8051358 8078970 8107664 8131262 8144428 
1998.497 8144158 8131532 8112019 8091561 8076337 8067392 8063543 8060775 
2002.354 8055308 8044708 8029554 8012138 7996511 7987331 7988007 8002013 
2006.212 8031241 8075730 8133388 8199159 8265546 8324277 8370383 8402340 
2010.069 8423555 8440278 8459502 8484605 8514880 8545090 8568812 8581756 
2013.927 8583783 8578917 8574659 8577633 8591658 8616296 8647357 8679874 
2017.784 8710163 8737410 8763206 8789511 8817338 8845879 8872289 8894745 
2021.642 8911993 8925082 8937191 8950856 8968208 8988503 9010153 9030857 
2025.499 9048685 9063335 9075041 9084616 9093007 9101094 9109756 9120347 
2029.356 9134864 9154558 9180107 9209957 9241366 9272337 9302023 9331339 
2033.214 9364551 9405181 9455837 9515746 9579693 9642261 9697181 9741399 
2037.071 9774236 9797924 9814836 9825851 9830968 9828359 9817005 9797382 
2040.929 9771761 9743975 9717849 9695656 9677496 9662352 9648258 9634876 
2044.786 9622375 9613026 9608216 9610620 9620478 9638636 9664384 9696131 
2048.644 9730252 9760376 9778438 9775219 9744686 9685762 9604556 9514154 
2052.501 9429831 9367395 9336689 9338720 9365838 9404842 9441988 9466776 
2056.358 9476088 9472770 9463490 9454788 9450352 9450791 9454178 9457462 
2060.216 9458648 9457835 9456108 9454788 9453704 9452383 9449945 9445645 
2064.073 9439922 9434402 9429865 9426784 9424278 9420824 9415304 9407991 
2067.931 9400575 9395632 9394921 9398612 9404165 9408127 9406738 9397901 
2071.788 9381615 9359743 9334623 9308455 9282356 9256733 9232024 9210126 
2075.646 9193374 9184440 9185014 9193813 9208096 9222886 9233953 9239335 
2079.503 9239436 9237203 9235341 9236289 9239877 9244581 9247763 9247865 
2083.360 9244818 9239945 9234799 9230738 9227353 9223258 9216388 9205692 
2087.218 9191005 9173576 9154592 9134728 9112768 9087290 9056129 9019354 
2091.075 8978727 8938815 8905602 8884430 8879120 8891499 8920178 8961510 
2094.933 9010322 9060865 9107185 9144338 9168940 9179972 9179397 9170700 
2098.790 9159870 9151749 9149719 9155066 9166706 9182882 9201361 9222209 
2102.647 9245867 9273826 9306288 9342308 9379008 9413476 9442901 9466776 
2106.505 9486281 9503723 9520961 9538573 9555475 9569938 9580100 9585926 
2110.362 9589178 9592463 9598527 9608622 9621833 9636129 9648765 9657913 
2114.220 9663063 9665028 9665197 9664452 9663266 9661471 9659268 9657269 
2118.077 9657168 9660929 9670042 9684882 9704364 9726558 9749600 9772033 
2121.935 9793925 9815412 9836256 9855846 9872523 9884353 9891132 9894115 
2125.792 9895945 9900182 9908894 9922082 9936624 9947778 9951101 9944253 
2129.649 9928116 9906285 9885471 9871947 9870727 9884454 9913233 9955338 
2133.507 10007856 10066688 10127223 10184443 10233528 10271084 10295682 
2136.882 10308711 10313461 10314886 10316514 10320281 10326762 10334057 
2140.257 10340742 10346442 10351634 10358048 10367515 10379868 10393646 
2143.633 10406746 10416078 10421101 10422187 10421135 10419438 10418657 
2147.008 10417198 10413057 10403623 10386349 10359642 10322656 10274815 
2150.383 10216397 10147980 10071401 9989445 9906250 9825003 9748752 9677225 
2154.240 9608926 9542875 9480795 9430407 9406568 9426885 9508498 9659675 
2158.098 9874930 10131836 10398125 10639823 10829202 10952193 11009283 
2161.473 11010406 10971460 10909346 10838714 10769961 10709777 10660571 
2164.848 10622574 10592763 10565908 10536984 10501985 10459250 10410241 
2168.224 10358523 10307930 10260126 10213853 10165041 10108332 10039696 
2171.599 9958660 9869608 9780709 9702059 9641889 9604556 9589550 9590601 
2175.456 9598697 9603337 9596156 9570750 9525940 9464506 9393127 9320405 
2179.314 9256495 9209619 9184575 9181732 9197266 9223698 9253179 9279039 
2183.171 9296912 9305814 9305984 9298909 9286113 9269053 9249116 9229215 
2187.029 9211887 9200379 9196893 9201902 9213579 9229181 9245461 9260726 
2190.886 9274875 9288279 9302124 9316579 9330087 9340649 9346777 9348402 
2194.743 9347184 9346201 9348233 9354801 9365364 9377857 9389098 9397224 
2198.601 9401422 9402405 9401252 9398646 9394650 9387845 9377146 9362757 
2202.458 9345592 9327819 9311738 9298502 9288482 9280190 9272777 9265702 
2206.316 9260084 9257714 9260422 9268681 9281679 9296945 9311434 9322876 
2210.173 9329274 9330899 9328056 9321217 9310893 9297284 9281002 9263841 
2214.031 9247492 9233818 9224105 9217538 9211277 9203358 9191953 9176554 
2217.888 9160141 9145794 9136927 9134830 9138755 9145522 9151613 9153915 
2221.745 9150734 9142917 9131750 9118959 9105628 9092398 9079305 9066922 
2225.603 9056365 9048753 9044862 9044659 9047062 9050073 9052610 9053456 
2229.460 9053456 9053118 9053118 9053050 9051290 9046284 9036777 9023245 
2233.318 9008259 8995776 8989281 8991074 9001764 9019760 9042630 9068207 
2237.175 9095037 9122106 9149753 9176791 9201733 9222310 9236797 9243938 
2241.032 9244514 9239910 9232870 9225492 9219400 9215034 9212699 9212258 
2244.890 9214221 9218791 9226304 9236594 9248507 9260355 9271253 9280393 
2248.747 9288347 9295862 9303953 9312517 9320675 9327108 9330357 9329883 
2252.605 9326092 9320269 9314819 9311366 9311502 9315361 9322876 9332490 
2256.462 9342613 9351280 9355512 9353412 9343358 9324636 9298705 9268546 
2260.320 9237203 9208163 9183526 9163559 9147587 9134389 9123088 9113986 
2264.177 9108335 9107624 9112903 9123527 9137706 9152628 9165556 9174557 
2268.034 9179126 9179600 9176892 9171613 9164033 9154457 9142883 9130566 
2271.892 9118655 9108335 9100621 9094868 9090267 9085462 9079676 9073621 
2275.749 9068240 9065602 9067530 9074533 9086004 9100418 9115914 9131243 
2279.607 9145794 9159667 9173238 9186503 9199128 9210566 9220246 9227759 
2283.464 9233513 9237880 9240892 9242517 9242110 9238997 9232972 9224138 
2287.322 9213274 9201191 9188433 9175065 9160581 9144677 9127318 9109350 
2291.179 9092432 9078289 9068646 9063843 9063470 9066549 9071692 9077985 
2295.036 9085090 9093007 9101804 9110974 9119806 9126979 9131446 9132597 
2298.894 9130668 9126539 9121227 9115948 9111144 9107117 9103429 9100215 
2302.751 9097136 9094327 9091890 9089928 9088541 9087932 9088270 9089590 
2306.609 9092263 9095883 9099605 9102143 9102380 9099334 9093075 9084481 
2310.466 9075142 9066955 9061271 9058632 9058835 9061068 9064079 9067631 
2314.323 9071218 9074771 9078323 9081199 9082722 9082248 9079508 9074974 
2318.181 9070136 9067428 9068782 9076294 9090639 9111380 9136556 9162104 
2322.038 9183357 9194186 9188703 9162578 9113817 9043679 8957080 8862211 
2325.896 8767839 8682444 8612713 8561344 8527788 8508528 8499066 8494640 
2329.753 8492309 8490754 8490045 8491059 8494708 8501297 8510690 8522686 
2333.611 8537148 8553808 8572867 8593753 8615789 8637859 8658951 8678184 
2337.468 8695154 8709893 8722265 8732407 8740656 8747417 8753740 8760874 
2341.325 8770442 8783189 8798810 8815716 8831507 8843951 8852439 8858661 
2345.183 8867014 8882740 8911384 8956504 9018475 9094902 9181461 9272642 
2349.040 9362757 9447202 9522147 9584741 9633589 9668043 9689083 9698400 
2352.898 9698942 9694369 9687694 9682138 9679664 9680917 9685695 9693115 
2356.755 9702162 9711751 9721848 9732827 9745703 9761359 9780403 9802974 
2360.613 9827985 9854152 9879708 9902996 9923471 9941167 9957271 9973341 
2364.470 9990801 10010874 10033829 10059329 10086696 10115251 10144215 
2367.845 10173419 10202455 10230950 10258429 10284316 10308100 10329714 
2371.220 10349632 10368397 10386892 10405863 10426124 10448219 10473302 
2374.596 10502358 10536678 10577349 10624713 10678501 10737661 10800872 
2377.971 10867047 10935679 11007177 11082221 11161834 11246086 11334674 
2381.346 11426034 11518436 11610073 11699722 11786394 11869540 11948344 
2384.721 12021780 12088483 12147018 12196462 12236710 12268337 12292640 
2388.097 12311557 12326078 12337566 12346668 12353895 12359418 12363612 
2391.472 12366747 12368452 12368316 12365657 12359759 12350452 12338555 
2394.847 12325738 12313910 12304774 12299764 12299457 12303786 12312444 
2398.222 12325466 12343021 12365282 12392555 12424434 12460100 12498667 
2401.598 12538942 12580586 12624144 12670708 12721986 12779617 12844661 
2404.973 12917532 12997755 13084276 13175767 13270795 13367725 13465495 
2408.348 13563527 13661718 13760787 13862032 13966860 14076163 14190320 
2411.723 14308308 14428144 14546848 14661369 14768995 14867528 14955623 
2415.099 15032793 15098793 15154065 15199151 15235148 15263357 15284945 
2418.474 15301385 15313706 15322631 15329050 15333408 15336121 15338249 
2421.849 15339931 15341509 15342711 15343191 15342574 15341201 15340171 
2425.224 15341475 15347894 15362105 15386375 15421975 15469013 15527112 
2428.600 15595282 15672361 15757596 15850166 15949324 16054209 16163694 
2431.975 16277060 16393587 16513310 16636511 16764155 16897140 17036404 
2435.350 17182986 17337512 17500204 17671028 17849378 18034088 18223886 
2438.725 18417258 18613276 18812116 19014612 19222190 19436418 19658030 
2442.101 19886624 20120820 20359034 20599044 20840022 21081726 21324504 
2445.476 21569158 21816214 22065818 22318076 22572680 22829248 23087330 
2448.851 23346022 23603258 23856726 24103126 24339820 24565386 24779984 
2452.226 24985250 25184184 25379346 25571856 25761534 25945912 26121428 
2455.602 26284344 26431122 26559036 26666622 26752350 26815574 26855510 
2458.977 26871160 26861818 26826888 26765496 26677652 26563720 26424468 
2462.352 26261746 26078570 25878664 25666156 25446096 25222460 24999394 
2465.727 24780442 24568858 24367856 24180644 24010040 23858196 23726212 
2469.103 23614488 23522242 23448478 23392492 23354098 23333576 23331408 
2472.478 23347524 23380916 23429700 23490938 23561978 23640030 23723656 
2475.853 23810978 23900378 23989904 24076788 24157734 24229550 24290270 
2479.228 24338802 24375706 24401992 24419236 24428770 24430872 24425370 
2482.604 24411912 24390250 24360882 24324260 24281616 24233966 24182326 
2485.979 24127154 24069152 24008674 23946314 23883190 23819936 23757568 
2489.354 23696222 23635584 23574640 23511714 23444700 23372000 23291762 
2492.729 23203498 23107250 23003756 22894314 22780114 22661932 22539908 
2496.104 22413802 22282218 22144716 22000250 21848828 21690666 21526540 
2499.480 21357566 21184936 21009908 20833940 20658738 20485830 20316740 
2502.855 20152958 19995102 19843406 19697450 19556812 19420756 19289524 
2506.230 19163110 19042446 18928078 18820282 18718564 18622268 18529830 
2509.605 18439834 18351132 18263072 18175892 18090492 18008322 17930828 
2512.981 17859564 17795040 17737222 17685350 17638384 17595286 17555262 
2516.356 17518416 17485576 17457842 17436458 17421798 17413764 17411002 
2519.731 17412176 17415764 17421040 17428456 17438838 17453012 17472020 
2523.106 17495718 17523488 17553916 17585556 17617748 17649736 17681518 
2526.482 17712856 17743090 17770910 17794662 17812334 17822450 17824694 
2529.857 17819480 17808262 17792624 17774916 17756102 17737016 17717688 
2533.232 17697810 17676930 17654946 17632414 17610226 17589764 17572548 
2536.607 17559300 17550224 17544498 17540772 17537184 17532424 17525868 
2539.983 17517760 17509206 17501444 17495752 17492992 17492888 17495098 
2543.358 17498926 17503860 17509516 17515622 17521832 17527628 17532078 
2546.733 17533974 17532424 17527110 17517934 17505824 17491888 17477228 
2550.108 17463156 17450048 17438560 17429282 17422556 17418522 17417246 
2553.484 17418108 17420212 17422386 17423662 17423248 17421110 17417660 
2556.859 17413452 17409244 17405142 17400726 17395208 17387484 17376688 
2560.234 17361652 17342306 17318546 17290962 17260344 17227696 17194016 
2563.609 17159648 17124870 17089784 17054012 17017728 16981512 16946300 
2566.985 16913848 16885842 16863486 16847468 16837720 16833140 16832658 
2570.360 16834998 16839476 16845710 16853392 16862384 16872166 16882602 
2573.735 16893214 16904270 16916742 16931626 16950056 16972554 16998500 
2577.110 17026858 17055978 17084270 17110982 17136244 17160648 17185810 
2580.486 17212736 17242176 17274758 17310788 17350238 17393482 17440528 
2583.861 17490786 17543738 17597630 17651186 17703054 17752928 17801150 
2587.236 17848722 17897162 17946920 17998342 18050838 18103136 18154574 
2590.611 18204606 18253430 18301812 18350578 18400424 18451310 18502930 
2593.987 18554556 18605632 18655402 18703588 18749944 18794504 18837098 
2597.362 18878450 18918700 18958848 18999762 19042308 19087176 19134784 
2600.737 19185378 19238782 19295170 19354268 19416322 19481292 19549394 
2604.112 19620070 19693220 19768046 19844446 19922006 20000758 20080806 
2607.488 20162296 20245464 20330422 20417444 20506532 20597378 20689804 
2610.863 20782738 20875168 20965918 21053692 21137730 21217328 21292138 
2614.238 21362056 21427040 21487196 21542590 21593918 21641800 21687324 
2617.613 21731560 21775070 21818132 21860396 21900852 21938524 21973026 
2620.989 22004502 22033782 22061808 22089700 22118252 22147852 22178330 
2624.364 22209678 22241726 22274616 22308448 22343818 22380482 22418614 
2627.739 22458112 22498660 22540328 22583184 22627234 22672546 22718942 
2631.114 22765974 22813324 22860608 22908074 22955998 23004908 23055150 
2634.490 23106934 23160018 23213598 23267290 23320150 23372070 23422984 
2637.865 23473344 23523570 23574290 23626068 23679076 23733700 23789800 
2641.240 23846960 23904792 23963014 24021142 24079100 24137278 24195882 
2644.615 24255652 24317006 24380156 24445280 24512024 24580358 24650104 
2647.990 24721056 24793422 24867026 24941592 25017118 25093394 25170560 
2651.366 25248760 25328766 25410788 25495320 25582154 25670902 25761146 
2654.741 25852464 25944610 26037936 26132900 26229856 26329018 26430066 
2658.116 26532304 26635162 26737974 26840034 26941204 27041198 27139838 
2661.491 27236950 27332318 27425732 27517894 27609088 27700158 27791884 
2664.867 27884620 27978398 28073118 28168280 28263642 28359060 28454746 
2668.242 28551160 28648658 28747630 28848252 28950350 29054172 29159296 
2671.617 29265578 29372704 29480208 29587422 29694094 29799938 29905136 
2674.992 30010004 30115110 30220846 30327068 30433496 30539592 30644934 
2678.368 30749306 30853310 30957518 31062960 31170742 31281508 31395718 
2681.743 31513914 31636242 31763274 31895478 32033574 32177846 32328952 
2685.118 32486968 32652218 32824964 33005144 33193052 33388198 33589768 
2688.493 33796660 34007628 34221424 34437624 34656044 34877376 35102304 
2691.869 35331628 35565928 35804996 36048804 36296820 36548616 36804308 
2695.244 37063832 37327304 37595088 37867452 38144252 38425468 38710880 
2698.619 38999892 39291708 39585280 39879636 40173640 40466680 40758684 
2701.994 41049828 41340324 41630436 41919864 42207624 42492504 42772528 
2705.370 43045488 43309648 43562908 43804000 44031808 44245568 44445124 
2708.745 44630556 44802368 44960760 45105936 45237780 45355760 45459536 
2712.120 45549128 45624644 45686736 45736176 45773508 45798872 45811800 
2715.495 45811392 45796664 45767212 45722920 45664248 45592000 45507328 
2718.871 45411160 45304896 45189872 45067928 44941468 44813280 44686484 
2722.246 44564060 44448756 44342912 44248176 44166072 44097556 44043284 
2725.621 44003204 43977244 43965036 43966136 43980324 44007784 44048932 
2728.996 44104088 44173704 44257348 44353848 44461748 44578896 44703636 
2732.372 44834108 44969100 45107960 45249844 45393940 45539780 45686624 
2735.747 45833520 45979988 46125064 46267720 46407144 46542260 46672624 
2739.122 46798152 46919436 47037648 47154344 47270592 47387204 47504624 
2742.497 47622924 47742148 47862620 47985460 48111368 48241608 48376556 
2745.873 48515992 48659140 48804964 48952436 49100628 49248792 49396044 
2749.248 49541340 49682600 49817920 49944844 50061804 50167640 50262260 
2752.623 50346044 50420388 50486152 50544660 50596852 50643388 50684868 
2755.998 50721396 50753016 50778528 50796440 50805008 50802024 50785600 
2759.374 50754392 50707472 50644544 50565916 50471520 50361896 50237116 
2762.749 50098132 49945624 49780796 49604740 49419252 49225860 49026732 
2766.124 48824136 48620484 48418596 48221244 48030420 47848080 47675320 
2769.499 47512904 47361780 47222644 47096620 46984704 46887612 46805492 
2772.875 46737744 46682916 46638976 46603748 46575272 46551668 46531196 
2776.250 46512500 46493652 46472968 46448332 46417508 46378276 46328728 
2779.625 46267020 46191652 46101892 45997484 45878960 45747916 45606828 
2783.000 45458652 45306328 45153292 45001884 44854312 44711788 44574892 
2786.375 44443432 44316492 44192632 44070236 43947216 43821848 43693000 
2789.751 43559832 43422384 43281060 43136632 42989696 42841564 42693120 
2793.126 42545820 42401384 42261488 42128140 42002564 41885748 41778268 
2796.501 41679744 41589960 41508796 41436436 41373272 41320064 41277324 
2799.876 41245256 41223540 41211300 41207220 41209880 41217748 41229224 
2803.252 41242852 41257608 41272508 41287088 41301260 41314964 41328772 
2806.627 41343024 41358000 41373744 41389780 41405528 41419708 41431188 
2810.002 41438404 41439684 41433816 41419304 41395432 41362008 41319484 
2813.377 41268576 41210392 41146168 41076852 41003324 40926240 40846984 
2816.753 40767016 40688960 40615532 40550596 40497672 40460320 40441624 
2820.128 40443480 40467048 40512692 40579916 40667672 40774516 40898424 
2823.503 41037700 41189772 41352392 41522032 41695536 41868744 42038080 
2826.878 42199264 42349148 42485272 42605648 42709060 42794980 42862852 
2830.254 42912444 42943936 42957908 42955568 42938812 42909736 42871044 
2833.629 42825292 42774576 42720832 42665632 42610144 42555432 42502192 
2837.004 42450780 42401056 42352836 42305608 42259520 42215184 42174140 
2840.379 42138832 42112220 42097108 42096560 42113316 42149060 42206460 
2843.755 42287712 42395396 42533032 42704048 42911196 43156248 43438124 
2847.130 43752692 44091288 44441084 44785800 45105828 45381472 45595128 
2850.505 45732164 45784440 45749832 45633144 45443972 45196268 44906596 
2853.880 44591448 44267104 43947656 43644712 43366576 43118592 42902900 
2857.256 42718712 42563548 42433684 42324492 42231472 42150520 42077356 
2860.631 42008296 41940044 41869768 41795304 41715632 41630404 41540556 
2864.006 41447664 41353956 41261944 41174544 41094736 41025608 40970516 
2867.381 40932392 40914008 40917648 40945096 40997168 41073716 41173304 
2870.757 41293024 41428564 41574172 41723548 41869984 42007892 42133140 
2874.132 42243668 42339540 42422392 42494700 42559124 42618476 42674588 
2877.507 42729276 42783940 42840212 42898836 42961164 43027412 43097956 
2880.882 43172604 43251260 43333740 43420184 43510568 43604448 43700808 
2884.258 43797368 43891640 43980176 44059748 44128076 44183752 44227040 
2887.633 44259580 44284604 44305812 44328160 44356892 44396528 44452280 
2891.008 44529292 44632576 44768648 44945804 45173104 45462548 45826524 
2894.383 46277156 46824908 47476088 48230612 49079408 50003728 50973092 
2897.759 51944140 52867476 53687336 54348252 54805868 55028612 55004692 
2901.134 54742644 54270380 53629784 52867252 52032280 51169088 50312224 
2904.509 49489872 48721632 48020280 47394152 46847604 46381780 45995568 
2907.884 45686224 45450112 45283748 45184208 45149388 45177296 45265952 
2911.260 45412188 45610992 45856352 46140140 46452388 46782724 47118928 
2914.635 47447740 47756792 48033344 48267192 48451784 48583980 48664440 
2918.010 48697388 48688676 48644092 48569124 48467900 48342924 48196068 
2921.385 48028608 47842016 47638272 47420464 47192648 46960484 46730736 
2924.760 46510544 46307828 46129268 45979472 45861360 45774976 45718432 
2928.136 45687988 45679264 45687324 45707092 45733488 45761652 45786316 
2931.511 45802852 45806900 45794824 45764080 45713168 45641908 45550636 
2934.886 45440952 45315120 45175900 45026544 44870332 44710284 44549484 
2938.261 44390656 44236616 44090592 43956456 43837832 43738692 43662004 
2941.637 43609392 43580236 43572064 43579576 43595180 43610124 43614084 
2945.012 43595876 43545292 43453620 43314956 43127484 42894008 42622204 
2948.387 42322664 42008660 41693456 41388212 41101912 40839924 40604000 
2951.762 40393840 40207152 40041436 39893728 39761896 39644192 39539188 
2955.138 39445892 39363028 39289428 39223924 39165468 39113144 39066848 
2958.513 39026500 38992428 38964916 38943788 38928532 38918128 38911352 
2961.888 38907184 38905592 38907184 38913344 38925668 38945816 38975100 
2965.263 39013708 39061664 39118400 39183416 39256276 39336400 39423868 
2968.639 39518212 39619728 39728528 39845604 39972116 40109748 40259716 
2972.014 40422788 40598288 40783940 40976632 41171372 41362664 41544564 
2975.389 41710272 41852872 41965120 42040088 42071772 42056220 41992092 
2978.764 41881004 41728072 41541212 41329832 41104568 40875964 40652572 
2982.140 40441444 40247136 40071048 39912288 39767924 39633524 39504348 
2985.515 39376228 39246412 39113328 38977060 38838516 38698964 38558988 
2988.890 38418444 38275084 38125516 37964784 37787092 37587324 37361824 
2992.265 37109592 36833124 36538340 36234216 35930336 35635628 35357040 
2995.641 35097528 34856660 34631068 34416316 34207336 34000536 33793936 
2999.016 33586904 33380468 33175670 32974184 32777332 32586138 32401204 
3002.391 32223094 32051482 31886138 31726346 31571350 31420938 31275134 
3005.766 31134576 30999864 30872164 30751974 30639744 30535256 30438186 
3009.142 30347926 30264006 30185646 30111808 30041392 29972974 29905136 
3012.517 29837308 29768924 29700478 29632790 29566778 29503330 29442904 
3015.892 29385714 29331686 29281352 29235170 29193776 29158056 29128150 
3019.267 29103772 29084002 29067458 29052790 29038444 29023672 29007624 
3022.643 28990410 28971956 28953112 28934766 28918582 28906468 28900696 
3026.018 28903140 28915288 28937742 28969900 29010104 29055872 29104056 
3029.393 29150968 29192890 29226308 29248424 29257108 29251862 29232936 
3032.768 29202246 29162060 29115216 29064518 29012230 28960268 28910118 
3036.144 28862664 28818792 28778784 28742638 28710104 28680902 28654284 
3039.519 28629934 28607780 28587996 28570940 28557070 28546700 28540262 
3042.894 28537820 28539340 28544684 28553460 28564924 28578444 28593270 
3046.269 28608558 28624130 28640128 28656692 28674780 28694706 28716654 
3049.645 28740904 28766958 28794574 28823606 28853952 28885222 28916986 
3053.020 28948048 28976772 29001850 29022466 29038656 29052048 29064730 
3056.395 29079254 29097642 29121134 29149410 29181868 29217554 29255300 
3059.770 29294962 29336294 29379510 29424536 29471132 29518792 29567558 
3063.146 29618032 29670714 29726770 29786880 29851044 29918696 29988488 
3066.521 30059146 30129494 30199072 30267844 30335596 30402222 30466904 
3069.896 30528788 30586804 30640916 30691304 30738958 30785050 30830686 
3073.271 30876256 30921368 30965418 31007762 31048048 31086488 31123648 
3076.646 31160240 31197300 31234968 31273604 31313558 31354938 31398286 
3080.022 31443700 31491720 31541992 31594228 31647862 31702142 31756752 
3083.397 31811118 31864814 31917732 31969298 32019376 32068282 32116584 
3086.772 32165468 32216102 32269846 32327384 32389068 32454222 32522208 
3090.147 32591958 32663040 32734920 32808062 32882538 32958526 33036284 
3093.523 33115410 33195734 33276860 33358358 33440084 33521898 33603980 
3096.898 33686792 33770624 33856044 33943492 34032924 34123708 34214864 
3100.273 34305324 34393648 34479732 34563536 34645924 34728180 34811352 
3103.648 34895904 34982124 35069832 35158244 35247460 35337380 35428288 
3107.024 35520368 35613436 35706992 35800320 35892800 35984220 36074940 
3110.399 36165788 36257624 36351140 36446264 36542380 36638372 36733048 
3113.774 36825656 36915832 37003860 37090244 37176040 37261952 37348644 
3117.149 37436652 37526304 37617672 37710684 37804948 37899920 37995272 
3120.525 38090212 38184916 38279100 38372944 38466556 38560148 38653436 
3123.900 38746128 38838008 38928892 39018672 39107816 39196508 39285724 
3127.275 39375724 39467296 39560456 39655448 39751692 39848360 39944836 
3130.650 40039984 40133408 40225252 40316140 40407404 40500580 40596540 
3134.026 40696164 40798972 40904140 41010640 41117388 41223836 41330088 
3137.401 41436620 41543580 41651116 41758568 41864988 41969460 42071148 
3140.776 42169944 42266384 42361456 42456408 42552436 42650316 42750040 
3144.151 42851804 42954872 43058624 43162652 43266892 43371412 43476872 
3147.527 43583604 43692048 43802024 43912976 44023920 44133904 44242156 
3150.902 44348416 44453344 44558040 44663752 44771804 44882860 44996628 
3154.277 45112520 45229284 45345352 45459384 45570212 45677168 45779840 
3157.652 45878924 45975308 46070796 46167440 46267060 46370904 46479420 
3161.028 46591612 46706232 46821256 46935384 47047656 47157892 47266676 
3164.403 47374604 47482188 47589504 47696472 47802840 47908236 48012472 
3167.778 48115364 48216800 48316188 48413412 48508132 48600952 48692568 
3171.153 48783984 48876044 48969164 49062752 49155948 49247532 49336612 
3174.529 49422888 49506544 49588212 49668592 49747652 49825016 49900204 
3177.904 49972872 50043324 50112596 50182404 50254264 50329412 50408112 
3181.279 50490240 50574776 50660704 50747056 50832904 50917800 51001260 
3184.654 51082688 51161820 51238620 51313376 51386844 51459504 51531652 
3188.030 51603360 51674376 51744360 51813272 51881784 51950712 52021260 
3191.405 52094140 52169608 52246992 52325476 52403940 52481328 52557536 
3194.780 52632300 52705648 52777744 52848428 52917512 52985412 53052272 
3198.155 53119408 53187640 53257788 53329824 53403560 53477980 53552152 
3201.531 53625324 53697044 53767164 53835724 53903088 53969416 54035380 
3204.906 54101316 54168200 54236332 54305448 54374652 54442180 54506300 
3208.281 54565768 54620512 54672176 54723104 54776172 54833424 54895532 
3211.656 54961448 55029140 55096652 55162108 55224908 55285528 55345064 
3215.031 55404308 55463676 55522864 55581564 55639376 55696852 55754792 
3218.407 55814432 55876868 55942972 56012664 56085684 56161320 56238516 
3221.782 56316708 56395288 56473656 56551924 56629872 56707680 56785688 
3225.157 56863716 56941260 57017612 57091372 57161740 57228300 57291696 
3228.532 57353404 57415308 57479332 57546288 57616084 57687560 57759464 
3231.908 57830852 57902020 57973808 58047424 58123936 58203524 58285520 
3235.283 58368552 58451596 58533864 58615544 58697084 58779208 58861988 
3238.658 58945208 59028328 59111008 59193096 59274972 59356792 59438732 
3242.033 59520084 59599288 59675464 59748188 59818076 59887332 59958612 
3245.409 60034164 60115168 60201560 60291468 60383224 60475184 60566676 
3248.784 60658412 60751544 60846976 60945252 61045384 61145956 61244796 
3252.159 61339808 61429608 61513584 61591508 61664180 61732848 61799196 
3255.534 61865020 61932500 62002740 62076584 62154152 62234216 62315560 
3258.910 62396648 62476376 62554128 62629596 62702900 62773608 62841960 
3262.285 62907748 62971100 63032812 63093072 63152888 63212180 63270816 
3265.660 63328236 63384140 63438544 63491964 63546040 63601352 63658780 
3269.035 63718060 63777612 63835868 63891372 63942848 63990376 64034648 
3272.411 64076468 64116948 64156504 64195416 64234136 64273208 64313664 
3275.786 64356580 64402580 64451472 64502708 64554908 64606308 64656064 
3279.161 64703672 64749284 64794020 64838676 64884536 64932556 64983540 
3282.536 65038264 65097080 65160328 65227436 65297976 65370768 65444684 
3285.912 65519312 65594332 65669948 65746768 65824920 65903968 65983764 
3289.287 66063648 66143164 66223084 66304132 66387364 66474116 66564872 
3292.662 66659660 66757908 66859120 66962592 67068220 67176384 67287448 
3296.037 67402440 67521944 67646528 67776720 67912448 68053688 68199704 
3299.413 68349296 68501344 68654960 68809760 68965744 69123944 69285360 
3302.788 69450840 69621008 69795920 69975760 70160288 70349744 70544472 
3306.163 70744824 70950464 71160488 71374088 71590344 71808648 72029576 
3309.538 72254248 72483536 72718168 72957664 73201088 73447248 73695272 
3312.914 73945520 74199256 74458176 74723576 74995920 75274264 75556888 
3316.289 75841864 76127744 76414000 76700848 76988328 77276256 77563752 
3319.664 77849064 78130824 78408176 78681408 78951432 79219888 79487936 
3323.039 79756272 80025304 80294848 80565040 80835848 81106616 81376080 
3326.415 81642192 81901624 82151848 82390424 82617048 82832272 83038296 
3329.790 83236472 83427984 83612000 83786968 83950760 84101776 84238688 
3333.165 84361072 84468440 84559728 84634248 84690944 84729840 84751632 
3336.540 84758720 84753328 84736888 84709464 84669400 84613720 84539600 
3339.916 84445256 84330408 84196000 84043664 83874504 83688728 83485808 
3343.291 83264688 83024848 82766232 82489696 82196120 81885976 81559392 
3346.666 81216104 80856120 80480528 80091200 79690712 79282120 78867280 
3350.041 78447072 78021648 77590336 77152368 76707608 76256360 75799064 
3353.417 75336488 74869648 74399736 73928984 73460320 72997128 72542784 
3356.792 72099472 71667792 71246840 70834256 70427904 70025944 69628168 
3360.167 69235000 68848040 68468488 68097368 67735352 67382384 67038724 
3363.542 66704632 66380216 66065348 65759228 65460788 65168796 64882540 
3366.917 64602160 64328572 64063064 63806280 63558200 63317700 63082656 
3370.293 62850648 62619956 62389264 62157900 61925812 61691904 61455564 
3373.668 61215496 60970760 60721360 60467876 60211416 59953020 59693024 
3377.043 59430604 59164316 58892156 58612244 58324248 58028152 57724344 
3380.418 57413716 57096320 56771828 56439848 56099672 55751400 55395504 
3383.794 55032940 54664436 54290580 53911456 53526736 53136260 52740296 
3387.169 52339756 51936560 51532656 51130400 50731452 50337000 49947076 
3390.544 49561804 49180512 48803224 48430076 48061880 47699616 47344156 
3393.919 46995408 46652220 46312324 45973024 45631380 45285700 44935292 
3397.295 44581756 44227592 43875840 43528988 43188308 42854076 42525320 
3400.670 42200612 41879068 41559880 41243036 40928712 40616768 40306540 
3404.045 39997436 39688228 39378480 39067720 38756420 38445592 38136260 
3407.420 37829456 37526268 37227368 36933436 36645112 36362308 36085060 
3410.796 35812588 35543848 35277608 35012832 34748856 34485368 34222860 
3414.171 33961728 33702908 33447168 33195234 32948304 32707088 32472220 
3417.546 32244116 32022230 31805520 31592660 31382076 31172844 30964456 
3420.921 30757558 30553032 30351764 30154568 29961296 29771408 29584052 
3424.297 29398336 29213764 29030510 28848818 28669610 28493802 28321462 
3427.672 28153256 27988824 27827386 27668092 27509916 27351796 27193348 
3431.047 27034744 26876728 26721024 26568970 26421968 26280050 26142682 
3434.422 26008242 25874936 25741070 25605878 25469530 25332524 25196404 
3437.798 25061694 24929134 24798474 24669218 24540354 24411386 24281966 
3441.173 24152514 24023382 23895724 23770062 23646886 23526264 23407354 
3444.548 23288196 23167464 23043236 22914816 22782664 22648912 22516456 
3447.923 22389030 22269174 22158174 22055046 21957518 21861998 21765176 
3451.299 21664438 21558398 21447336 21332056 21214056 21095014 20975620 
3454.674 20857056 20739916 20624546 20511360 20400254 20290806 20181976 
3458.049 20072896 19962454 19850170 19736214 19620936 19505898 19392102 
3461.424 19280726 19172910 19069068 18969058 18872290 18778036 18685116 
3464.800 18592630 18499956 18406886 18313838 18221534 18130530 18041098 
3468.175 17952790 17864500 17775020 17683486 17589142 17493130 17396070 
3471.550 17299376 17204324 17111084 17019448 16929076 16839304 16750310 
3474.925 16662678 16577506 16495585 16417811 16344763 16276373 16212670 
3478.301 16153550 16098151 16045751 15994560 15942758 15888210 15829548 
3481.676 15766460 15700461 15633786 15569387 15509839 15456103 15407899 
3485.051 15363307 15319713 15275232 15228490 15179112 15128195 15077044 
3488.426 15027134 14979595 14935595 14895611 14859848 14828544 14800775 
3491.802 14775886 14752405 14729027 14704794 14679739 14654789 14631486 
3495.177 14611746 14597218 14588582 14585978 14588685 14596395 14608663 
3498.552 14625831 14648175 14675455 14706919 14740784 14774858 14806740 
3501.927 14835161 14860088 14883130 14907407 14936555 14973869 15021783 
3505.302 15081195 15151217 15229829 15314599 15402579 15492121 15581751 
3508.678 15671846 15763609 15858483 15957814 16062427 16171502 16283562 
3512.053 16396442 16508767 16619435 16728822 16837204 16945542 17053530 
3515.428 17160234 17263586 17361584 17453048 17537528 17615954 17689802 
3518.803 17759694 17825212 17884594 17934282 17971162 17992572 17997372 
3522.179 17986220 17960664 17922922 17874788 17816788 17748580 17668820 
3525.554 17575686 17468018 17344478 17205462 17051394 16884394 16706612 
3528.929 16520677 16329212 16134256 15937326 15739111 15540059 15340102 
3532.304 15138728 14935252 14728992 14519096 14305090 14087150 13866650 
3535.680 13645716 13426432 13211323 13002057 12799204 12602381 12410932 
3539.055 12224304 12042798 11867396 11699177 11539293 11388005 11244148 
3542.430 11105573 10969659 10833278 10694223 10551173 10404030 10253476 
3545.805 10101685 9950863 9804295 9664588 9533832 9413205 9301753 9197367 
3549.663 9096730 8996723 8894373 8788937 8680888 8572699 8467475 8367917 
3553.520 8275543 8190211 8110803 8034988 7961076 7887446 7813289 7738301 
3557.378 7662450 7585532 7507584 7428200 7347617 7266712 7186530 7109091 
3561.235 7036312 6969472 6909577 6856086 6807011 6759321 6709113 6651676 
3565.093 6583415 6501576 6406201 6300291 6189970 6082566 5985066 5902836 
3568.950 5837648 5788452 5752290 5724826 5702063 5679906 5655904 5627875 
3572.807 5594546 5555345 5510913 5462090 5410555 5357886 5305826 5255316 
3576.665 5206925 5160416 5114884 5069559 5023634 4977145 4930997 4886293 
3580.522 4845381 4810201 4782562 4763031 4751742 4747186 4747052 4747287 
3584.380 4743702 4731744 4706957 4666630 4609832 4539145 4459632 4378762 
3588.237 4304867 4243899 4199099 4170261 4153970 4145306 4138849 4129717 
3592.094 4114297 4091117 4060146 4023224 3983462 3943571 3906793 3875099 
3595.952 3849559 3829903 3815429 3803997 3793635 3782037 3766963 3747077 
3599.809 3722213 3693206 3662095 3631455 3603925 3581707 3566173 3557520 
3603.667 3555315 3557988 3563200 3568110 3569346 3563366 3547298 3520608 
3607.524 3484433 3442717 3401172 3365208 3339130 3323403 3315156 3310182 
3611.382 3302903 3289315 3267815 3240073 3209764 3181759 3160231 3146914 
3615.239 3141240 3139939 3138570 3132429 3116944 3089746 3050804 3002691 
3619.096 2951314 2903545 2866254 2843808 2837638 2845275 2862719 2884932 
3622.954 2907381 2927929 2945876 2962356 2978770 2995418 3009931 3017538 
3626.811 3011132 2983574 2930531 2854480 2765872 2680749 2615342 2578676 
3630.669 2570376 2583676 2608308 2634510 2654845 2665480 2666246 2660145 
3634.526 2651278 2643544 2639443 2639176 2640877 2642543 2641743 2637610 
3638.384 2630209 2620442 2609609 2598742 2588542 2579609 2572843 2569443 
3642.241 2571510 2580909 2598675 2624376 2655478 2687850 2716256 2735261 
3646.098 2740830 2730727 2704987 2665680 2616175 2560244 2501554 2444271 
3649.956 2393127 2353681 2331061 2328429 2345419 2377768 2418415 2458200 
3653.813 2488457 2502054 2495122 2468763 2428944 2385297 2348151 2324232 
3657.671 2315971 2321434 2335658 2353581 2371338 2386796 2399723 2411318 
3661.528 2423379 2437241 2454134 2474028 2496755 2521616 2548179 2576476 
3665.385 2606675 2639443 2674481 2710355 2744131 2772041 2790248 2797752 
3669.243 2797685 2799952 2819629 2871057 2964958 3103428 3281102 3486737 
3673.100 3704334 3916522 4101252 4234999 4297337 4277126 4178157 4017204 
3676.958 3817201 3597543 3371519 3149651 2939805 2751000 2592409 2470229 
3680.815 2386030 2336058 2312673 2306611 2310208 2319235 2332327 2350183 
3684.673 2372770 2398790 2424179 2443172 2449636 2438773 2409019 2363442 
3688.530 2309009 2253583 2204759 2166496 2139790 2124274 2118414 2121177 
3692.387 2131766 2148714 2170225 2193436 2215516 2233900 2247055 2255948 
3696.245 2261877 2267972 2276332 2287857 2301148 2313306 2319935 2317137 
3700.102 2302713 2276999 2243825 2209255 2180316 2162700 2159703 2170659 
3703.960 2193470 2223709 2257147 2290455 2321267 2348417 2371704 2391261 
3707.817 2406420 2416749 2420381 2415516 2400057 2373503 2336225 2291754 
3711.675 2245690 2204692 2175087 2161068 2163133 2179450 2205259 2235498 
3715.532 2265441 2291288 2311207 2324898 2333526 2338357 2340822 2341455 
3719.389 2339956 2335758 2328563 2318536 2307410 2296851 2288890 2284726 
3723.247 2284227 2286192 2288690 2289723 2288224 2285159 2282561 2283993 
3727.104 2293187 2312840 2343087 2381732 2424246 2464764 2497088 2516617 
3730.962 2521350 2512851 2495556 2475727 2458200 2444471 2431543 2414950 
3734.819 2390461 2357246 2319469 2284926 2262543 2257580 2270903 2299316 
3738.677 2338490 2383964 2433709 2486891 2542746 2598575 2648077 2680782 
3742.534 2683882 2646444 2565677 2453401 2336058 2246423 2206957 2220112 
3746.391 2272136 2341588 2407720 2453768 2470929 2457966 2421847 2373137 
3750.249 2323433 2280563 2247189 2223376 2208955 2205259 2214217 2237097 
3754.106 2272002 2314705 2358511 2397258 2425645 2441206 2444171 2436807 
3757.964 2422347 2403455 2382499 2361476 2343553 2332194 2330995 2341954 
3761.821 2364075 2392993 2422480 2445471 2457700 2457833 2449303 2438207 
3765.678 2431943 2434542 2446437 2463132 2477860 2484392 2478593 2460832 
3769.536 2434642 2407020 2384731 2372337 2371804 2381599 2398591 2419415 
3773.393 2440739 2460166 2476694 2489524 2499188 2506186 2510685 2512551 
3777.251 2511019 2504853 2493423 2476861 2456900 2437007 2420880 2411318 
3781.108 2409386 2413350 2420381 2426245 2428344 2425145 2417582 2408386 
3784.966 2400589 2397125 2399190 2406187 2416516 2428178 2439340 2448470 
3788.823 2454768 2457667 2456767 2452602 2446437 2440473 2437574 2440206 
3792.680 2449536 2464531 2481926 2497255 2506320 2506453 2498921 2488257 
3796.538 2481426 2484458 2500421 2527115 2558278 2583842 2593075 2578443 
3800.395 2537214 2475794 2408153 2353114 2326164 2333626 2371571 2427911 
3804.253 2488491 2537580 2563710 2560777 2530181 2480659 2426678 2383131 
3808.110 2359378 2357112 2371937 2396858 2425479 2454268 2482859 2513485 
3811.968 2548412 2588009 2629609 2666980 2692517 2699019 2683082 2647877 
3815.825 2604142 2566443 2547412 2552945 2580176 2619242 2656178 2677048 
3819.682 2670714 2632543 2566777 2487158 2413450 2362076 2342088 2352215 
3823.540 2383731 2424979 2464698 2495056 2512118 2517017 2513918 2509186 
3827.397 2508019 2512851 2523183 2535947 2547212 2553545 2553712 2548312 
3831.255 2540280 2533548 2531814 2537780 2552212 2573910 2599808 2625642 
3835.112 2646444 2657245 2653811 2634743 2601575 2559177 2515118 2477260 
3838.969 2451302 2439273 2440406 2450702 2465497 2481159 2494622 2504487 
3842.827 2511052 2515251 2518717 2523716 2531814 2544246 2562011 2584842 
3846.684 2612108 2642944 2676715 2712955 2751800 2793183 2835503 2875226 
3850.542 2904946 2914453 2892437 2829100 2721991 2582209 2434408 2309109 
3854.399 2229504 2202894 2221644 2269871 2331594 2395492 2454368 2505820 
3858.257 2549912 2587576 2619475 2645177 2663913 2674347 2676315 2670180 
3862.114 2657278 2638877 2616542 2591875 2567577 2548345 2539613 2546179 
3865.971 2570143 2608875 2655245 2698685 2728526 2735828 2717323 2677081 
3869.829 2627342 2583576 2557444 2552878 2565710 2586475 2604508 2612175 
3873.686 2606942 2591875 2574243 2562077 2561811 2575576 2601042 2632943 
3877.544 2664846 2690217 2703887 2703453 2689750 2667280 2643277 2625776 
3881.401 2621042 2631276 2653445 2680282 2702820 2711155 2698919 2664979 
3885.259 2616109 2565277 2527182 2513785 2528915 2568477 2622442 2678681 
3889.116 2725959 2755335 2763171 2750967 2725525 2696151 2672214 2660445 
3892.973 2663179 2679081 2704587 2735628 2768373 2799719 2827633 2850278 
3896.831 2866521 2875660 2877061 2871124 2858816 2842641 2824798 2807956 
3900.688 2793350 2780611 2768139 2753101 2733194 2707754 2678481 2648811 
3904.546 2623675 2607342 2602475 2609075 2624842 2646877 2671380 2695451 
3908.403 2717690 2737262 2754034 2768073 2779710 2789181 2796584 2802654 
3912.260 2808056 2813959 2820862 2828733 2836671 2843241 2846876 2846943 
3916.118 2843141 2836704 2828966 2821563 2815393 2810657 2807123 2804888 
3919.975 2804221 2806122 2811224 2819695 2830634 2841940 2850978 2855381 
3923.833 2853480 2845809 2834636 2823130 2814893 2812025 2815527 2824431 
3927.690 2836937 2850545 2863119 2873192 2879529 2882031 2880396 2874793 
3931.548 2865887 2854747 2842707 2831468 2822763 2817527 2816093 2818028 
3935.405 2822230 2827599 2833235 2838938 2845042 2852379 2861318 2871691 
3939.262 2882931 2893271 2901043 2904812 2903845 2898775 2891036 2882998 
3943.120 2876994 2874159 2874993 2878395 2882464 2885566 2886133 2883732 
3946.977 2878728 2872791 2867555 2864653 2865254 2869356 2876727 2885966 
3950.835 2896240 2906647 2916454 2925694 2934200 2941673 2948145 2952915 
3954.692 2955584 2955751 2953549 2949679 2945576 2942974 2943507 2948612 
3958.550 2958720 2973298 2990547 3008363 3024111 3036056 3043130 3045265 
3962.407 3043397 3038892 3033220 3027348 3021909 3016804 3012166 3008029 
3966.264 3004526 3002124 3001290 3002257 3004993 3009297 3014802 3020875 
3970.122 3027448 3034054 3040627 3046934 3052640 3057745 3062150 3066054 
3973.979 3070192 3075097 3081537 3089947 3100158 3111872 3123752 3135066 
3977.837 3144811 3152421 3157694 3160831 3162300 3162834 3162901 3162934 
3981.694 3163535 3164503 3165738 3167040 3168174 3168808 3169209 3169276 
3985.552 3169376 3169743 3169910 3168909 3166172 3160331 3150919 3138503 
3989.409 3124320 3110837 3100258 3094652 3094785 3100225 3108868 3118413 
3993.266 3126522 3131361 3132496 3130527 3126789 3122885 3120015 3119013 
3997.124 3119681 3121817 3124820 3128124 3131161 3133264 3134232 3133531 
##END=
