
##TITLE=Z404_3_a
##JCAMP-DX=5.01  $$ Nicolet v. 1
##DATATYPE=INFRARED SPECTRUM
##ORIGIN=UniL
##OWNER=Nicolet
##LONGDATE=2011/09/21
##TIME=13:37:36
##SPECTROMETER/DATA SYSTEM=Nicolet iS5
##DATA PROCESSING=
Ratio against background
%Transmittance->Absorbance
Truncated
ElementMultiply or ElementDivide
##COMMENTS=
Number of sample scans: 32
Collection length: 51.20 sec
Sample gain: 2.0
Background collected on: Mer Sep 21 13:36:06 2011 (GMT+02:00);
Number of background scans: 32
Background gain: 2.0
Sample spacing:  1.000
Number of scan points: 12415
Resolution points: 8192
Number of FFT points: 65536
Apodization: N-B fort;
Phase correction: Mertz;
Laser frequency: 15798.0 cm-1
Number of rejected sample scans: 0
Number of rejected background scans: 0
Bench serial number: ASB1000141;
##RESOLUTION=4.000
##XUNITS=1/CM
##YUNITS=ABSORBANCE
##FIRSTX=649.893372
##LASTX=4000.122314
##FIRSTY=0.108792
##MAXX=4000.122314
##MINX=649.893372
##MAXY=0.289027
##MINY=-0.002709
##XFACTOR=1.000000
##YFACTOR=1.000000E-009
##NPOINTS=6950
##DELTAX=0.482117
##ZPD=6100
##XYDATA=(X++(Y..Y))
649.893 108792216 108545904 108352768 108211440 108103480 108005496 
652.786 107903616 107803160 107725920 107701248 107748080 107866016 
655.679 108033616 108220416 108399880 108560880 108707648 108854496 
658.571 109011272 109175264 109330248 109452872 109524584 109538960 
661.464 109503096 109432800 109345976 109256520 109171000 109090744 
664.357 109012208 108925128 108808216 108625256 108323688 107844696 
667.250 107155176 106282064 105324296 104406592 103618144 102975360 
670.142 102431376 101904712 101310904 100588680 99708144 98679248 97539768 
673.517 96342344 95130680 93928632 92742512 91569960 90411552 89277296 
676.892 88183792 87147656 86177984 85273576 84425896 83626224 82871560 
680.267 82166616 81519968 80938640 80422312 79962480 79546312 79160960 
683.642 78800016 78464576 78160576 77893216 77662008 77458752 77269608 
687.016 77080584 76881600 76671040 76454464 76241864 76042544 75861992 
690.391 75702056 75561384 75439520 75335464 75249320 75179544 75120616 
693.766 75064168 75000328 74921224 74824776 74714992 74600616 74490032 
697.141 74388328 74294592 74202320 74102920 73989648 73859968 73716872 
700.516 73566592 73415032 73266704 73122632 72982320 72844520 72708536 
703.890 72574776 72442784 72310328 72173056 72025392 71863576 71688032 
707.265 71504744 71323368 71156040 71013592 70903640 70832536 70808048 
710.640 70841504 70951672 71160448 71486648 71937904 72500688 73134896 
714.015 73772152 74331936 74729360 74893072 74782144 74387584 73735088 
717.390 72876032 71885472 70854960 69880056 69066960 68516784 68309120 
720.765 68491184 69051144 69908384 70902560 71822488 72443808 72559424 
724.139 72046080 70885392 69174224 67091384 64860260 62699608 60762400 
727.514 59132228 57819456 56784632 55964376 55296252 54736184 54255212 
730.889 53836020 53466812 53133452 52822084 52522012 52228384 51943468 
734.264 51672696 51421084 51188100 50968172 50752608 50534164 50311664 
737.639 50088652 49872252 49668112 49477728 49297528 49121624 48944316 
741.013 48764856 48586616 48415632 48256308 48109924 47973508 47841976 
744.388 47710860 47578596 47447816 47323060 47207904 47103564 47007708 
747.763 46916224 46824944 46731028 46632668 46528948 46417728 46295480 
751.138 46159224 46007688 45843464 45673856 45508652 45356272 45222228 
754.513 45107004 45007980 44921624 44846708 44785508 44742784 44723796 
757.888 44731364 44765376 44822608 44899136 44992180 45101160 45226680 
761.262 45369956 45531356 45710552 45908720 46130112 46384580 46689816 
764.637 47069184 47555636 48189960 49017528 50087460 51437456 53076572 
768.012 54963740 56993736 59002632 60771512 62087444 62792756 62831120 
771.387 62280832 61340148 60288040 59381592 58799084 58580012 58619108 
774.762 58694652 58537580 57933748 56766844 55064304 52970816 50713168 
778.136 48527772 46597072 45038744 43885516 43107180 42634668 42391084 
781.511 42310540 42341624 42452532 42624104 42843652 43104760 43405244 
784.886 43747380 44136584 44580068 45083220 45649268 46279552 46975620 
788.261 47741776 48587132 49525336 50571800 51743724 53057252 54527564 
791.636 56172256 58011068 60065744 62359392 64908660 67718936 70777352 
795.010 74050896 77485408 81005624 84528856 87966952 91238624 94290032 
798.385 97105336 99725112 102242496 104806088 107590144 110745240 114367520 
801.760 118439440 122807888 127153800 131036296 133970560 135479024 
804.653 135240864 133161408 129411368 124385752 118616792 112671664 
807.546 106983376 101809160 97198296 93029024 89080456 85122672 81008064 
810.920 76695352 72258984 67840544 63612208 59720512 56253980 53248500 
814.295 50689708 48535848 46731916 45225572 43971928 42931024 42070204 
817.670 41361720 40782704 40317664 39957220 39695744 39529460 39452712 
821.045 39458884 39541292 39695888 39923184 40228488 40620516 41107592 
824.420 41694736 42382900 43167336 44039508 44985528 45986360 47017452 
827.794 48046852 49041456 49972800 50824972 51604708 52346332 53114728 
831.169 53993652 55082736 56484148 58279344 60517808 63190980 66218296 
834.544 69424680 72540160 75245104 77175248 78010304 77550488 75747976 
837.919 72738776 68799936 64315008 59671468 55198076 51147172 47653060 
841.294 44755384 42423380 40587412 39163148 38067600 37233468 36603836 
844.669 36131652 35781392 35524248 35340036 35216376 35145380 35121524 
848.043 35138408 35188960 35266292 35366496 35490164 35641920 35827700 
851.418 36052440 36317168 36619228 36954396 37320336 37718204 38153624 
854.793 38634132 39166664 39755976 40404236 41113020 41887720 42738308 
858.168 43681568 44740176 45938956 47307540 48879120 50689336 52778268 
861.543 55179868 57910120 60948152 64219884 67589840 70849304 73754168 
864.917 76049616 77500928 77955944 77358256 75765600 73331392 70287448 
868.292 66906392 63438660 60106988 57074252 54430724 52214256 50416852 
871.667 49004068 47927624 47137876 46591832 46250988 46084388 46067808 
875.042 46180780 46409100 46745456 47189584 47747620 48429964 49246900 
878.417 50201932 51287052 52476464 53728088 54980928 56161320 57198252 
881.792 58026368 58602800 58916288 58989688 58876712 58647736 58382084 
885.166 58147308 57990696 57939504 58000732 58170340 58440948 58806444 
888.541 59264416 59812068 60443960 61148360 61905904 62694596 63490620 
891.916 64272284 65022676 65726608 66369684 66938160 67417488 67795584 
895.291 68064856 68223432 68275072 68227728 68092872 67884752 67620352 
898.666 67322104 67015172 66725300 66476204 66282132 66146060 66059908 
902.040 66008376 65973736 65942800 65911292 65884688 65876356 65902808 
905.415 65982916 66134444 66373272 66715256 67174960 67764048 68491960 
908.790 69363176 70377600 71532864 72826464 74258344 75832040 77553768 
912.165 79430888 81470568 83679368 86066760 88648184 91447328 94498352 
915.540 97843120 101521400 105567088 109996296 114801488 119940560 125329448 
918.914 130841224 136282288 141403904 145921360 149514864 151906016 
921.807 152909072 152480144 150757504 148059248 144873552 141749008 
924.700 139257488 137918080 138082560 139920480 143361712 148115088 
927.593 153659792 159312416 164372032 168147728 170115904 170001760 
930.485 167766528 163590992 157783424 150729152 142804976 134349888 
933.378 125682504 117074672 108766456 100978528 93881336 87603968 82232152 
936.753 77800384 74309840 71737432 70046968 69191512 69108488 69714760 
940.128 70883128 72438128 74172728 75840168 77199032 78053808 78264240 
943.502 77781400 76644520 74973672 72937320 70719792 68503752 66429176 
946.877 64590968 63039364 61782276 60801580 60064256 59535740 59183756 
950.252 58980692 58904676 58935456 59053572 59242612 59488012 59779900 
953.627 60113308 60485968 60896756 61342900 61819100 62319420 62838012 
957.002 63371672 63920700 64486944 65071708 65673992 66289312 66910684 
960.377 67532048 68149776 68764416 69379040 69997912 70623368 71255120 
963.751 71890872 72528376 73167176 73809456 74459160 75119320 75790736 
967.126 76471496 77158312 77849024 78544896 79250936 79975032 80724544 
970.501 81504264 82316368 83160456 84036792 84948424 85901728 86905064 
973.876 87965768 89088176 90272800 91517400 92819672 94179256 95598064 
977.251 97078288 98619192 100214376 101851760 103513752 105181624 106838136 
980.625 108467088 110053072 111579448 113024976 114368128 115588912 
983.518 116674576 117623248 118445144 119159376 119787640 120351888 
986.411 120871752 121363576 121844856 122333920 122848992 123406760 
989.304 124018320 124686016 125405904 126169664 126969608 127801072 
992.196 128663064 129555432 130475816 131416888 132366584 133310424 
995.089 134236592 135137408 136009440 136850880 137657968 138422768 
997.982 139135424 139787008 140374800 140905088 141392928 141858496 
1000.874 142320704 142795824 143295200 143827776 144402944 145032608 
1003.767 145728816 146502256 147357456 148292160 149298608 150369392 
1006.660 151501456 152699936 153975664 155343152 156812544 158387312 
1009.552 160062752 161828432 163672512 165582128 167542592 169535040 
1012.445 171530592 173492752 175383568 177169936 178835312 180385488 
1015.338 181848208 183264912 184682224 186146240 187694192 189357200 
1018.231 191163216 193135120 195292048 197645296 200195200 202931568 
1021.123 205837680 208900560 212115712 215492144 219048416 222805504 
1024.016 226776176 230959760 235340960 239894800 244594448 249409744 
1026.909 254308160 259245808 264154048 268942560 273497952 277688864 
1029.802 281390208 284481312 286848800 288394976 289027200 288668384 
1032.695 287274336 284844800 281438336 277163520 272176480 266653776 
1035.588 260765456 254681648 248554720 242519840 236710720 231245392 
1038.481 226224816 221736960 217843888 214587712 211994448 210069632 
1041.374 208794720 208111696 207915360 208032176 208218288 208202592 
1044.267 207692816 206439008 204291664 201212608 197291408 192708864 
1047.160 187717056 182580976 177534256 172778000 168448560 164619696 
1050.053 161315072 158512288 156158464 154179152 152498128 151044304 
1052.947 149757824 148598112 147536912 146553840 145631952 144751344 
1055.840 143889600 143024800 142136224 141206912 140223952 139173936 
1058.733 138043088 136817744 135486208 134044768 132500928 130874856 
1061.626 129195648 127496112 125809848 124164400 122582592 121083544 
1064.519 119682176 118388832 117206544 116126640 115125600 114165056 
1067.412 113200464 112184816 111081544 109872784 108561304 107169760 
1070.305 105733296 104296256 102902112 101587376 100381936 99303032 98356856 
1073.680 97537776 96830872 96215248 95666040 95161696 94684648 94222888 
1077.055 93769064 93317608 92861696 92393392 91904256 91389008 90848592 
1080.431 90291608 89734592 89196680 88699184 88260960 87896928 87620432 
1083.806 87443584 87377736 87434872 87625216 87955792 88430384 89049576 
1087.181 89812088 90716120 91758808 92934040 94227912 95617888 97070408 
1090.556 98544104 100000712 101408064 102749080 104022248 105238416 
1093.449 106413272 107559112 108680064 109770816 110820592 111819120 
1096.343 112764528 113669384 114563784 115490032 116495384 117620688 
1099.236 118882072 120258128 121677280 123026480 124152360 124885192 
1102.129 125081416 124638288 123523920 121781128 119521456 116902256 
1105.022 114089208 111250128 108522560 106001944 103749056 101785152 
1107.915 100101168 98665312 97433224 96354672 95377744 94457408 93555752 
1111.290 92641488 91692224 90690400 89623432 88484856 87275072 86003544 
1114.665 84687608 83352432 82026352 80735240 79502024 78342368 77265016 
1118.041 76274448 75371528 74555608 73824312 73173088 72595024 72079792 
1121.416 71615224 71188048 70784136 70388896 69985736 69553152 69066416 
1124.791 68496648 67815216 67000864 66043244 64947448 63733600 62435708 
1128.166 61095724 59754388 58450460 57212312 56056164 54987844 54002700 
1131.542 53089792 52233540 51418436 50631028 49862032 49107900 48370516 
1134.917 47656612 46974624 46333816 45742212 45205496 44727584 44311428 
1138.292 43959460 43674424 43458632 43313384 43238160 43230652 43287320 
1141.667 43404328 43578620 43808068 44090956 44424968 44806116 45228148 
1145.042 45683644 46164788 46664100 47175544 47693700 48213764 48731156 
1148.418 49241964 49744048 50237712 50726612 51216808 51714424 52224648 
1151.793 52749792 53289292 53840748 54401056 54967988 55539844 56114980 
1155.168 56690312 57260736 57819044 58356840 58865140 59335820 59760660 
1158.543 60130696 60435772 60663940 60802536 60840724 60769908 60585416 
1161.919 60286328 59874020 59351544 58722380 57991832 57166956 56257524 
1165.294 55276944 54240796 53164716 52065412 50957444 49853816 48767672 
1168.669 47710860 46695240 45732752 44833188 44004416 43251408 42576152 
1172.044 41979244 41460496 41020256 40659992 40381368 40185708 40074104 
1175.420 40046380 40102916 40245612 40478540 40808000 41242488 41790632 
1178.795 42460352 43259384 44194832 45275288 46511356 47915412 49500752 
1182.170 51280860 53266028 55464016 57877904 60505428 63334180 66336556 
1185.545 69467832 72655176 75800240 78789808 81492264 83779856 85544584 
1188.921 86699584 87196456 87027232 86224864 84856720 83016432 80818048 
1192.296 78373168 75787896 73157368 70553944 68034080 65637840 63388736 
1195.671 61298824 59370124 57597056 55968940 54472452 53094884 51824544 
1199.046 50653368 49576884 48592840 47700320 46897876 46182700 45549792 
1202.422 44992880 44504808 44078524 43707620 43384632 43101724 42848368 
1205.797 42612008 42380088 42140552 41884728 41608664 41313248 41003104 
1209.172 40684592 40365912 40055280 39760916 39492700 39261024 39076852 
1212.547 38951796 38895552 38915480 39016676 39201728 39471688 39826572 
1215.923 40265132 40784744 41380816 42046988 42776332 43561956 44399976 
1219.298 45288712 46229168 47223640 48274452 49383644 50552588 51783628 
1222.673 53080576 54447704 55889340 57407400 58999484 60657116 62367460 
1226.048 64113104 65872460 67621936 69334408 70978120 72521680 73933816 
1229.424 75188880 76272864 77184624 77937304 78555368 79074128 79537592 
1232.799 79992952 80497008 81111728 81899544 82926784 84254008 85930928 
1236.174 87997664 90479368 93388472 96725376 100479800 104629064 109132240 
1239.549 113933512 118957360 124109936 129296584 134419696 139388240 
1242.442 144126656 148564160 152634512 156276256 159425904 162022096 
1245.335 164010560 165339392 165963904 165848352 164967008 163312816 
1248.229 160901904 157776832 153998768 149638736 144768448 139446928 
1251.122 133723792 127645416 121262280 114641824 107874352 101062488 
1254.015 94325024 87783840 81543912 75698976 70316592 65432280 61055868 
1257.390 57170320 53740052 50715960 48044744 45675952 43561040 41661000 
1260.765 39944980 38388832 36975896 35694292 34534120 33486966 32543924 
1264.140 31695406 30932148 30245998 29630308 29079752 28589448 28153784 
1267.516 27766206 27419096 27105734 26822554 26569428 26350422 26171892 
1270.891 26041102 25963568 25942710 25980032 26076602 26234326 26457252 
1274.266 26749990 27117054 27560116 28075804 28653896 29274758 29911384 
1277.641 30526406 31075310 31514450 31801884 31908564 31823848 31558062 
1281.017 31140272 30610446 30014868 29394472 28779068 28188328 27630980 
1284.392 27109720 26625334 26179702 25775422 25416374 25104944 24842186 
1287.767 24627696 24461160 24341676 24268652 24240202 24251588 24295000 
1291.142 24361196 24440968 24528362 24622648 24727720 24850886 24999322 
1294.518 25178884 25393364 25644506 25935042 26268856 26651720 27090816 
1297.893 27592388 28161492 28802364 29518436 30313746 31190752 32147948 
1301.268 33174918 34247952 35331700 36377408 37331636 38146788 38784096 
1304.643 39223052 39462292 39519264 39425860 39222292 38955564 38669588 
1308.019 38402408 38184336 38032628 37952636 37939400 37981132 38062684 
1311.394 38169900 38291804 38420396 38549248 38671944 38780292 38865040 
1314.769 38917152 38928492 38893232 38807900 38670096 38478212 38231588 
1318.144 37931880 37584108 37198020 36788112 36370416 35960284 35570028 
1321.520 35206640 34873208 34570680 34300484 34065824 33872204 33725572 
1324.895 33631472 33594352 33617084 33703156 33857264 34083888 34386332 
1328.270 34763104 35205596 35697816 36219268 36749672 37271632 37774840 
1331.645 38254604 38709944 39140228 39542200 39909708 40235396 40512180 
1335.021 40735900 40906180 41026120 41101912 41141284 41154908 41156072 
1338.396 41160920 41188788 41259064 41386688 41581356 41844700 42171876 
1341.771 42555032 42985856 43457572 43964048 44499964 45059400 45636200 
1345.146 46226592 46830260 47450624 48092156 48754920 49427452 50084412 
1348.521 50681888 51163424 51471960 51554372 51375208 50923468 50213348 
1351.897 49283088 48187404 46995668 45777632 44597876 43514336 42568188 
1355.272 41784904 41174760 40734304 40451588 40310612 40297160 40398676 
1358.647 40604256 40903340 41282492 41726540 42221720 42758304 43334212 
1362.022 43955500 44632576 45373600 46177872 47031852 47910088 48778272 
1365.398 49594116 50314492 50895448 51292828 51471588 51408328 51097596 
1368.773 50553444 49806956 48901036 47877416 46775420 45626408 44452900 
1372.148 43275972 42119120 41010896 39987664 39085880 38333096 37740176 
1375.523 37298812 36986868 36776716 36647528 36591940 36619192 36753208 
1378.899 37030596 37498960 38209916 39219244 40579332 42321060 44436752 
1382.274 46853952 49435884 51969348 54193312 55851808 56700356 56561816 
1385.649 55359892 53147564 50121596 46586228 42914528 39435588 36372256 
1389.024 33831832 31811938 30247062 29044042 28114192 27382604 26790764 
1392.400 26300044 25884502 25530530 25235206 25002692 24839486 24750134 
1395.775 24732980 24779952 24879482 25018066 25183834 25367720 25563950 
1399.150 25770464 25988368 26220952 26471480 26741322 27028716 27328684 
1402.525 27634156 27936736 28229836 28510220 28777544 29033166 29278658 
1405.901 29513826 29737698 29950574 30156592 30364520 30587052 30837658 
1409.276 31126388 31458340 31832650 32245044 32690938 33168196 33677052 
1412.651 34217660 34786976 35377564 35978028 36578820 37176472 37778596 
1416.026 38403636 39079244 39836924 40703440 41693712 42801412 43994988 
1419.402 45220428 46413416 47516488 48485056 49294036 49938932 50435388 
1422.777 50822884 51163088 51537096 52021676 52672020 53509532 54521288 
1426.152 55674140 56930228 58262668 59653792 61091032 62562084 64048892 
1429.527 65532444 67001024 68459296 69930104 71446184 73042336 74741840 
1432.903 76553616 78476880 80512552 82675440 84996848 87520184 90282064 
1436.278 93291528 96509152 99860368 103265424 106661424 110007008 113262648 
1439.653 116377504 119261536 121785560 123808616 125179488 125770096 
1442.546 125498176 124325304 122268576 119397776 115842264 111776080 
1445.439 107392208 102903960 98505656 94362160 90610872 87335920 84563072 
1448.814 82252976 80320048 78655520 77159888 75776216 74499944 73377768 
1452.190 72478848 71870616 71584944 71606120 71872848 72292400 72767216 
1455.565 73199216 73522832 73725232 73858392 74017184 74296040 74766752 
1458.940 75462144 76390184 77546720 78916672 80472592 82166096 83933152 
1462.315 85681432 87290024 88630424 89573456 90029968 89984920 89509768 
1465.691 88741336 87829264 86911176 86084496 85404720 84899584 84568544 
1469.066 84385488 84292072 84199984 83997352 83558824 82790688 81668904 
1472.441 80270928 78753896 77304208 76074800 75145552 74541168 74255584 
1475.816 74274336 74587112 75182144 76037928 77114536 78353488 79690512 
1479.192 81057776 82400728 83687280 84907680 86078192 87232832 88419664 
1482.567 89690032 91098144 92706736 94583616 96801184 99423944 102487216 
1485.942 105970224 109769232 113702960 117494904 120797528 123251472 
1488.835 124498984 124266720 122440608 119099920 114520784 109089384 
1491.728 103221584 97249816 91379768 85726312 80322912 75176240 70317136 
1495.104 65810384 61763176 58304392 55538940 53516244 52218068 51582392 
1498.479 51525044 51964720 52834956 54075944 55628644 57433608 59419964 
1501.854 61510492 63628048 65677040 67546528 69102152 70153784 70466176 
1505.229 69781336 67893152 64780056 60690572 56092736 51458268 47095736 
1508.604 43111128 39476444 36123332 33000174 30087092 27399756 24968614 
1511.980 22814860 20943906 19339406 17972094 16808444 15817417 14972291 
1515.355 14246366 13614739 13057608 12563054 12132434 11775295 11501287 
1518.730 11309778 11185496 11098945 11017168 10916991 10799479 10691847 
1522.105 10633983 10654220 10754371 10913390 11099420 11286654 11462537 
1525.481 11632535 11814686 12029309 12286334 12580620 12896677 13218496 
1528.856 13538812 13861280 14197920 14561136 14956995 15382084 15824944 
1532.231 16271867 16715392 17158890 17615472 18097230 18608608 19140846 
1535.606 19677514 20198984 20688832 21138356 21543218 21903432 22218186 
1538.982 22482642 22687102 22822334 22889912 22904442 22889178 22864380 
1542.357 22836860 22797958 22728300 22609678 22434070 22211352 21966406 
1545.732 21730236 21525424 21357322 21215170 21079708 20934346 20773978 
1549.107 20609050 20460648 20351500 20293862 20284348 20308200 20348756 
1552.483 20395358 20448666 20519072 20619892 20759554 20935004 21131606 
1555.858 21327322 21499382 21624492 21679486 21645040 21512646 21297778 
1559.233 21043052 20804462 20622394 20508164 20448874 20417964 20385598 
1562.608 20321706 20203148 20018800 19772866 19485104 19183230 18893332 
1565.984 18627040 18379752 18133500 17866570 17562474 17217250 16842508 
1569.359 16463201 16107745 15797624 15542531 15341475 15187450 15071143 
1572.734 14982134 14907681 14830636 14731289 14592386 14407387 14188814 
1576.109 13967955 13784317 13664830 13614056 13616312 13648007 13687364 
1579.485 13720945 13745738 13765951 13788729 13820197 13862374 13913896 
1582.860 13972403 14036497 14106214 14180940 14256706 14324095 14370945 
1586.235 14384679 14358444 14294474 14205281 14109945 14029892 13985303 
1589.610 13990676 14055696 14186794 14387145 14655611 14982888 15349885 
1592.986 15724717 16066965 16337195 16501987 16543394 16462203 16276784 
1596.361 16017320 15717158 15410132 15124661 14883473 14707056 14612192 
1599.736 14611713 14713842 14920472 15228731 15632618 16126933 16706578 
1603.111 17364030 18087314 18854158 19631406 20380042 21055120 21613488 
1606.487 22020884 22251632 22294462 22151794 21838966 21380190 20804150 
1609.862 20144700 19436070 18713204 18010946 17356342 16766874 16247408 
1613.237 15790753 15381466 15000346 14629703 14256672 13877735 13500733 
1616.612 13144277 12832546 12585770 12415330 12320557 12292027 12313262 
1619.988 12365895 12432616 12499553 12561111 12621380 12693429 12793437 
1623.363 12933746 13117502 13338203 13584517 13846193 14118639 14401427 
1626.738 14695711 15000689 15309965 15612868 15898556 16160324 16398026 
1630.113 16617369 16825906 17028444 17224042 17404900 17558506 17670822 
1633.489 17728248 17721174 17647044 17512898 17335410 17138072 16944338 
1636.864 16768459 16614169 16474834 16338192 16189041 16013090 15801473 
1640.239 15552937 15275919 14984878 14696808 14424239 14170533 13929770 
1643.614 13688697 13430772 13140726 12809817 12440016 12045115 11649177 
1646.990 11280227 10963474 10714023 10535761 10422628 10361950 10334804 
1650.365 10315734 10273458 10169485 9966357 9647851 9243228 8829478 8489031 
1654.222 8264871 8147332 8099291 8080792 8063173 8031714 7982033 7917409 
1658.080 7844057 7767917 7691284 7613148 7529969 7437839 7333969 7217658 
1661.937 7090937 6958732 6828485 6708372 6606694 6528988 6476822 6446689 
1665.794 6430850 6418374 6396483 6353982 6283751 6185231 6065161 5935652 
1669.652 5810951 5701929 5614416 5548734 5501718 5467593 5438234 5404382 
1673.509 5355437 5282114 5181439 5060105 4934683 4824574 4744406 4697176 
1677.367 4674769 4663114 4648378 4622926 4587195 4549290 4519894 4507171 
1681.224 4510184 4518119 4511456 4469441 4377624 4240052 4080815 3937252 
1685.082 3838494 3791730 3785647 3800989 3821279 3835586 3839263 3832276 
1688.939 3816499 3794538 3768835 3743334 3723182 3713958 3720107 3741529 
1692.796 3772545 3800889 3811585 3790661 3732339 3645589 3554046 3486704 
1696.654 3461019 3476183 3514361 3550572 3557453 3515063 3419172 3287312 
1700.511 3155191 3057078 3009698 3007629 3033153 3066087 3090380 3096254 
1704.369 3079401 3041795 2990513 2935768 2886533 2848844 2824531 2811691 
1708.226 2806689 2805488 2805155 2804821 2805455 2809190 2818094 2832835 
1712.083 2852079 2872925 2892170 2907314 2917388 2922892 2924126 2920090 
1715.941 2907281 2882097 2842641 2793216 2743931 2708488 2697419 2714789 
1719.798 2756635 2814559 2878495 2940238 2995952 3045199 3091415 3138971 
1723.656 3191438 3250088 3314255 3381637 3450332 3518837 3585249 3647059 
1727.513 3700457 3740861 3764958 3772144 3765793 3751723 3735246 3717868 
1731.371 3694208 3651837 3573923 3446291 3265946 3050304 2832868 2651878 
1735.228 2530482 2468730 2450469 2453501 2458866 2452069 2426745 2383631 
1739.085 2329462 2273834 2225640 2190572 2170359 2163699 2168228 2181448 
1742.943 2200829 2223875 2248088 2271636 2293286 2313040 2331061 2347518 
1746.800 2361576 2371338 2374003 2366807 2346951 2313173 2265008 2203460 
1750.658 2131666 2054590 1979758 1914190 1863940 1831397 1814693 1808039 
1754.515 1802948 1790738 1764820 1723303 1670513 1615335 1567613 1533097 
1758.373 1512050 1498817 1484952 1461879 1423947 1370629 1305951 1237129 
1762.230 1171741 1115696 1071317 1038069 1013824 995758 980116 962981 941064 
1766.570 912076 876616 838503 804410 780709 770287 770751 774635 771448 
1770.909 751799 711340 654127 591812 538861 505488 494276 500546 516601 
1775.249 535544 554122 572867 594267 620115 649382 678186 701417 714958 
1779.588 718243 714526 710046 710477 718111 731121 744563 753093 753558 
1783.928 745824 733245 720732 712701 710643 714460 722691 733876 747550 
1788.268 763515 780908 796709 806236 803746 784560 748214 698563 644172 
1792.607 594566 556444 531695 517795 509801 503166 495636 486812 477558 
1796.947 468768 460376 451321 440607 427407 412184 396895 383762 374178 
1801.286 368573 366418 366948 369535 374410 382004 392318 404755 418054 
1805.626 430989 442896 454306 466313 479780 494707 508938 520051 525326 
1809.966 523734 516833 508009 501508 499915 503697 510531 517497 521378 
1814.305 521080 518094 515639 517696 527051 545131 571540 604354 641783 
1818.645 681405 721861 761922 800427 836511 870109 901285 930771 958996 
1822.984 985529 1009275 1028637 1042753 1052219 1060190 1070221 1085434 
1826.842 1106727 1131509 1154996 1172106 1179748 1178983 1175528 1177621 
1830.699 1192772 1224669 1271356 1327255 1385986 1441999 1493298 1540546 
1834.557 1586702 1634925 1687477 1744959 1807240 1874156 1946440 2025994 
1838.414 2115018 2214983 2325764 2446071 2573076 2703586 2835170 2965358 
1842.271 3092283 3214904 3333720 3450365 3568311 3691702 3822482 3960055 
1846.129 4099580 4233327 4352556 4449021 4517650 4557125 4569749 4559235 
1849.986 4529201 4481091 4414174 4326753 4218304 4090482 3948620 3799351 
1853.844 3648930 3502136 3360934 3225319 3094452 2968828 2849411 2737662 
1857.701 2633843 2536047 2440340 2342754 2240961 2135428 2029622 1928767 
1861.559 1837319 1757302 1688242 1627741 1574098 1526480 1485817 1453435 
1865.416 1429167 1410252 1392002 1369067 1338023 1300069 1260656 1227693 
1869.273 1208521 1206361 1219087 1241449 1266637 1289601 1307746 1320076 
1873.131 1326258 1325526 1316420 1297477 1268831 1232311 1191841 1151608 
1876.988 1114799 1081747 1050525 1018009 981876 941928 900322 859950 823100 
1881.328 789970 757673 722657 682334 636507 588063 541416 500877 468337 
1885.667 443128 422498 403063 383032 362074 341248 322613 307029 295125 
1890.007 287201 283852 286737 297910 318468 346554 378655 409000 432548 
1894.347 446710 452448 453808 455566 461636 472018 484955 496996 505886 
1898.686 512023 517596 525425 537368 552928 568952 582422 591281 595959 
1903.026 599344 604122 611786 621210 629339 633089 630501 622968 613910 
1907.365 607407 605880 609431 615469 621210 624860 627116 629937 635312 
1911.705 643376 651738 657080 656715 650643 641982 635146 633852 638133 
1916.045 644139 645433 636573 616465 589290 563876 548084 546392 556378 
1920.384 570611 579835 576616 558435 528046 491921 456263 425284 400145 
1924.724 379384 362173 349671 344631 350003 366517 391456 419248 444389 
1929.063 463129 475833 486116 498423 515407 536207 556544 571573 578408 
1933.403 578010 574294 572602 576749 586371 599742 612749 623201 632259 
1937.743 643110 658275 678120 698563 712933 714758 700919 673142 638232 
1942.082 605781 582621 572967 576583 590385 612948 643807 684458 735070 
1946.422 793091 852115 903610 940998 961187 967231 966301 965139 968427 
1950.761 976231 984931 990112 990776 989149 990112 998083 1013293 1030696 
1955.101 1042553 1041158 1022626 990112 951491 915762 889200 872964 862606 
1959.441 852480 838868 821871 806468 797240 797041 803813 812643 818452 
1963.780 819714 819182 821373 831465 849127 869379 885182 890030 883190 
1968.120 870175 861411 864897 884053 915862 951192 981478 1002566 1016050 
1972.459 1027674 1044579 1068494 1097592 1127024 1153235 1178718 1211378 
1976.317 1261088 1334334 1429432 1533563 1628938 1700550 1740402 1749650 
1980.174 1737740 1715585 1690005 1663861 1633960 1596279 1550688 1501011 
1984.032 1453368 1414473 1387116 1369200 1355473 1341214 1325892 1313529 
1987.889 1311601 1325526 1357068 1401775 1450543 1494893 1529273 1553614 
1991.747 1572336 1591856 1615003 1641776 1668517 1691535 1708666 1720708 
1995.604 1730155 1738406 1744726 1745358 1736210 1716018 1687244 1657009 
1999.461 1633760 1622685 1623284 1629237 1629803 1615635 1582877 1534328 
2003.319 1478037 1423848 1380833 1352946 1341579 1346399 1367073 1405431 
2007.176 1461281 1530570 1603363 1666455 1706038 1714887 1694396 1652851 
2011.034 1605159 1564754 1538916 1529506 1532033 1542740 1559832 1586037 
2014.891 1625645 1681257 1750748 1825308 1893723 1947306 1982221 2001860 
2018.749 2014443 2026626 2042938 2063013 2082722 2098670 2111622 2125073 
2022.606 2145085 2175587 2215050 2257147 2293886 2318436 2328962 2329928 
2026.463 2328863 2332227 2344386 2363309 2384064 2402489 2417215 2430077 
2030.321 2445471 2467297 2496322 2531781 2571510 2615942 2667746 2732261 
2034.178 2811691 2905113 3005093 3100625 3181859 3242878 3284942 3314923 
2038.036 3341801 3370951 3403410 3435036 3459750 3473344 3476283 3472442 
2041.893 3468935 3470572 3478120 3488742 3498027 3502570 3502704 3502136 
2045.750 3507213 3522645 3551273 3591028 3637603 3686255 3731436 3768668 
2049.608 3793970 3803429 3794103 3766395 3724318 3676898 3636167 3613981 
2053.465 3617823 3648630 3698853 3756268 3809011 3848388 3872191 3884961 
2057.323 3893085 3902279 3915385 3931200 3947851 3962931 3976774 3990652 
2061.180 4005934 4022120 4035531 4040915 4034126 4014529 3985904 3955508 
2065.038 3930097 3914683 3908966 3908966 3908866 3904452 3894423 3881016 
2068.895 3867878 3857147 3848422 3839597 3827162 3809145 3786817 3763922 
2072.752 3744805 3733107 3729264 3730734 3735146 3740259 3745506 3752391 
2076.610 3762451 3775352 3788989 3799819 3804064 3800955 3792532 3782839 
2080.467 3776556 3776990 3783842 3795507 3809145 3823117 3837992 3856345 
2084.325 3879245 3906793 3935714 3960791 3976307 3979517 3970689 3953469 
2088.182 3933039 3913847 3897465 3883390 3869549 3853804 3836054 3817969 
2092.040 3802159 3791162 3785914 3785881 3790259 3798582 3811184 3829134 
2095.897 3853102 3881685 3912443 3940863 3963533 3979283 3988813 3995133 
2099.754 4001085 4008911 4018742 4029745 4041383 4054226 4070815 4094696 
2103.612 4127811 4170864 4221348 4275754 4330401 4383716 4435966 4489427 
2107.469 4546645 4607387 4669779 4730471 4786147 4835429 4878888 4918966 
2111.327 4958243 4998361 5038718 5077604 5113845 5146534 5177282 5208802 
2115.184 5242606 5279632 5318572 5357215 5393512 5427129 5459507 5492524 
2119.042 5528363 5566722 5605118 5640597 5670070 5692361 5709382 5724624 
2122.899 5742217 5765150 5794799 5830595 5871500 5916876 5966053 6019434 
2126.756 6076653 6135694 6194204 6249463 6299921 6345913 6389724 6433002 
2130.614 6477697 6523136 6567436 6609217 6649321 6690370 6737447 6795601 
2134.471 6865815 6944389 7024526 7096797 7153956 7193503 7217321 7230258 
2138.329 7237670 7241375 7241173 7234604 7220387 7200072 7178075 7160727 
2142.186 7152373 7154057 7160861 7165982 7163219 7148297 7121755 7086828 
2146.043 7046583 7001796 6950921 6889985 6815560 6728832 6634315 6538844 
2149.901 6449447 6368743 6294777 6221194 6140398 6046211 5935854 5810111 
2153.758 5670070 5518531 5357919 5192472 5031746 4891822 4791842 4752948 
2157.616 4788358 4896513 5058965 5245960 5423841 5565749 5659396 5704178 
2161.473 5710826 5692428 5661074 5624586 5588303 5554842 5524202 5497591 
2165.331 5471754 5442093 5403711 5351613 5283589 5203336 5116494 5030473 
2169.188 4950735 4878854 4812211 4745880 4676243 4601560 4525318 4453172 
2173.045 4389439 4337630 4297070 4264243 4235501 4208936 4183175 4158553 
2176.903 4134233 4106503 4071083 4024562 3966007 3900240 3836220 3783006 
2180.760 3748080 3733709 3735380 3745172 3755366 3760680 3760479 3758207 
2184.618 3756736 3758273 3761950 3764858 3764122 3759243 3751890 3744571 
2188.475 3740593 3739791 3740360 3740493 3738187 3733776 3729999 3729765 
2192.333 3734010 3741763 3748481 3749116 3741095 3724619 3702897 3681877 
2196.190 3665771 3656114 3651470 3648596 3644921 3640109 3636668 3637570 
2200.047 3645622 3660525 3679070 3696247 3708110 3712321 3710416 3705370 
2203.905 3700290 3696714 3694676 3692437 3688494 3683749 3678970 3676664 
2207.762 3678101 3682579 3687391 3690265 3689764 3686689 3684584 3687157 
2211.620 3697282 3714660 3737218 3760680 3782639 3802058 3820309 3839864 
2215.477 3862228 3886332 3909568 3928023 3938088 3939358 3934242 3926017 
2219.334 3919665 3918260 3921838 3929862 3939960 3949490 3957347 3962095 
2223.192 3962496 3957615 3946313 3928191 3904118 3877205 3850261 3826794 
2227.049 3809345 3798482 3794103 3795775 3803228 3816532 3836120 3859955 
2230.907 3884961 3907060 3921437 3925616 3920701 3910470 3901076 3898167 
2234.764 3904653 3920401 3943337 3969953 3997942 4027170 4058607 4093057 
2238.622 4130554 4168388 4201977 4227973 4243498 4248751 4246643 4240989 
2242.479 4235602 4232624 4233427 4238178 4247279 4262336 4284187 4313769 
2246.336 4350213 4390610 4431614 4469909 4503354 4532315 4558130 4582172 
2250.194 4604742 4625103 4641211 4652196 4658994 4663851 4670884 4683478 
2254.051 4702770 4726719 4751374 4771741 4783098 4784572 4776230 4760820 
2257.909 4741257 4720255 4699420 4680162 4663147 4649349 4639202 4632068 
2261.766 4626375 4620079 4610903 4597877 4582708 4568611 4559737 4559704 
2265.624 4569481 4587095 4608660 4629221 4644526 4653067 4655042 4651827 
2269.481 4645230 4636522 4625739 4612946 4598446 4583043 4568611 4557092 
2273.338 4549860 4547348 4549224 4554481 4562316 4572395 4584114 4597140 
2277.196 4611037 4624634 4637695 4649918 4662109 4675406 4691215 4709134 
2281.053 4728260 4746684 4762026 4772679 4778240 4779714 4778374 4775728 
2284.911 4772110 4767286 4761390 4754321 4746952 4741023 4737640 4737338 
2288.768 4738812 4739817 4738108 4731643 4720723 4706254 4690578 4676277 
2292.625 4664453 4655913 4650688 4648344 4649550 4655277 4665894 4681367 
2296.483 4700224 4719853 4737271 4750536 4758509 4762194 4763199 4763199 
2300.340 4762596 4761390 4758140 4751574 4741760 4729566 4717139 4706454 
2304.198 4699353 4696071 4696406 4699052 4702904 4707560 4712684 4718345 
2308.055 4724408 4731241 4738611 4747387 4758978 4774187 4794354 4819247 
2311.913 4847291 4875704 4901406 4921412 4934716 4941821 4943999 4943396 
2315.770 4942056 4940414 4938972 4937632 4936492 4936090 4937766 4942324 
2319.627 4950836 4963706 4980430 4999836 5020215 5038618 5051390 5054608 
2323.485 5044216 5017635 4974766 4918027 4852920 4786113 4724408 4672693 
2327.342 4633877 4607321 4590711 4581168 4576178 4574336 4575977 4581670 
2331.200 4591280 4604775 4620548 4637092 4653636 4669745 4685587 4701933 
2335.057 4718881 4735998 4752982 4769630 4786012 4803065 4822095 4843806 
2338.915 4868601 4896279 4925936 4957271 4989982 5024070 5059133 5094132 
2342.772 5126853 5154716 5175940 5190024 5199346 5208199 5222149 5246328 
2346.629 5284260 5336753 5402000 5477055 5557392 5638315 5715526 5784927 
2350.487 5842349 5885774 5913450 5926113 5926449 5918354 5905960 5892794 
2354.344 5881005 5871097 5863205 5857025 5852861 5851988 5855682 5864783 
2358.202 5879326 5899175 5922620 5948988 5977810 6008616 6041138 6074872 
2362.059 6108575 6141138 6171686 6200557 6228992 6259077 6292189 6329102 
2365.917 6369045 6410707 6452204 6492999 6532789 6572414 6612615 6652820 
2369.774 6691952 6728192 6759657 6786009 6808256 6828485 6849691 6874466 
2373.631 6904292 6939776 6980752 7026681 7076927 7131624 7190539 7253336 
2377.489 7320119 7390383 7464030 7541735 7624107 7711689 7804450 7901313 
2381.346 8000359 8099258 8195680 8287836 8375180 8457508 8534918 8607339 
2385.204 8674635 8736228 8792249 8843376 8890585 8935026 8977713 9018204 
2389.061 9055757 9088846 9116185 9137571 9153475 9165116 9173880 9180581 
2392.918 9185421 9187993 9188805 9188264 9188297 9190734 9197299 9208299 
2396.776 9223123 9240080 9257578 9275079 9293561 9315259 9342884 9379008 
2400.633 9424414 9478932 9541181 9609265 9682002 9758681 9839171 9923912 
2404.491 10012976 10106468 10204286 10306335 10412718 10523302 10638363 
2407.866 10757089 10878904 11003269 11129776 11258599 11390556 11526261 
2411.241 11665719 11807843 11950796 12091652 12227985 12357475 12478718 
2414.616 12590921 12693190 12784667 12864695 12932108 12986966 13030360 
2417.992 13063856 13089637 13110024 13126177 13138847 13148546 13156095 
2421.367 13162890 13171361 13183760 13201794 13226387 13256926 13291840 
2424.742 13330379 13372201 13418504 13471647 13534300 13608552 13695639 
2428.117 13795570 13907737 14031124 14165295 14309302 14463118 14626208 
2431.493 14797347 14975823 15160823 15351773 15548713 15751857 15961079 
2434.868 16176144 16396442 16621020 16849810 17083202 17322168 17568096 
2438.243 17821864 18083618 18352792 18628804 18910462 19197290 19489124 
2441.618 19785558 20085944 20389210 20693698 20997978 21301188 21603250 
2444.994 21904616 22206400 22508988 22811996 23114902 23416620 23716344 
2448.369 24014138 24310594 24605814 24899728 25191208 25478208 25758720 
2451.744 26030548 26292794 26545018 26788014 27021980 27247746 27465158 
2455.119 27673990 27873984 28065234 28247092 28419368 28580600 28729008 
2458.495 28861708 28975782 29068130 29136690 29179990 29197212 29188602 
2461.870 29155080 29098352 29021228 28927542 28821872 28709786 28596668 
2465.245 28487718 28387320 28299040 28226088 28170896 28136072 28124126 
2468.620 28137312 28177826 28247022 28345936 28475334 28634960 28823960 
2471.996 29040994 29283408 29547590 29829572 30124806 30428770 30737746 
2475.371 31047728 31355008 31655844 31946510 32222704 32481394 32720022 
2478.746 32936830 33131252 33302724 33450246 33572476 33667924 33734808 
2482.121 33772736 33782440 33765824 33726288 33667672 33593740 33508298 
2485.497 33415214 33317104 33216442 33115018 33012688 32907806 32797984 
2488.872 32679364 32548674 32403488 32243080 32068212 31880644 31682398 
2492.247 31474120 31256084 31026482 30783236 30524522 30248802 29955578 
2495.622 29645312 29318818 28976878 28621016 28252114 27871334 27480334 
2498.998 27080872 26674514 26263472 25849826 25435100 25021258 24610444 
2502.373 24203800 23803556 23410850 23026744 22652088 22287834 21934656 
2505.748 21594266 21268616 20959170 20667078 20392440 20133974 19889364 
2509.123 19656330 19432432 19216442 19009144 18810766 18623410 18448648 
2512.499 18287262 18139514 18005454 17884352 17775296 17677654 17590592 
2515.874 17513070 17444874 17385414 17335340 17295410 17266344 17248796 
2519.249 17243072 17248416 17263242 17286584 17316858 17353066 17394896 
2522.624 17441770 17492992 17548086 17605878 17665472 17726040 17786928 
2526.000 17847616 17907002 17963738 18015506 18060130 18095330 18119234 
2529.375 18130876 18129736 18115812 18088800 18049354 17997340 17933694 
2532.750 17860046 17778436 17691494 17601978 17512208 17423694 17337788 
2536.125 17255036 17176126 17101640 17031958 16967454 16908094 16853048 
2539.500 16801522 16752722 16706165 16661506 16618541 16577126 16536338 
2542.876 16495483 16453635 16410241 16365854 16321300 16277818 16236609 
2546.251 16198121 16162010 16127551 16093990 16061086 16029110 15998686 
2549.626 15970429 15944166 15919590 15895326 15870545 15845150 15819410 
2553.001 15794842 15773194 15755054 15740657 15729045 15718497 15707470 
2556.377 15694862 15680330 15664184 15646633 15627706 15606376 15582026 
2559.752 15553005 15518424 15478077 15432172 15381809 15328603 15273653 
2563.127 15218539 15163912 15110664 15059000 15009195 14961488 14916151 
2566.502 14873735 14835538 14802488 14776092 14756827 14744897 14739482 
2569.878 14739482 14743252 14750142 14759809 14772664 14789255 14809997 
2573.253 14834304 14861116 14888925 14916357 14942591 14967970 14993315 
2576.628 15019725 15048743 15080303 15114506 15150805 15189063 15228936 
2580.003 15270907 15315080 15361934 15411127 15462592 15515643 15570383 
2583.379 15627019 15686238 15749143 15816215 15887696 15963690 16043242 
2586.754 16125385 16209299 16293848 16378241 16461583 16543221 16622499 
2590.129 16699381 16774487 16848122 16921496 16995640 17070866 17147344 
2593.504 17224146 17300342 17374584 17445562 17512276 17574100 17631342 
2596.880 17684246 17734290 17783132 17832426 17883974 17939288 17998928 
2600.255 18063342 18132258 18205018 18281008 18360084 18441526 18525646 
2603.630 18612620 18702342 18795196 18891600 18991766 19095902 19204148 
2607.005 19316058 19430942 19548596 19668120 19789546 19913160 20039132 
2610.381 20168024 20299834 20433976 20569340 20704748 20839016 20971064 
2613.756 21100508 21226792 21349214 21467318 21580092 21686800 21787020 
2617.131 21881164 21969926 22054558 22136382 22215990 22293902 22369808 
2620.506 22443316 22513666 22580184 22642558 22700264 22753542 22802114 
2623.882 22846814 22888654 22928788 22968506 23008962 23050502 23093026 
2627.257 23135764 23178262 23219890 23261104 23302494 23344834 23388784 
2630.632 23434280 23480618 23527068 23572472 23616062 23658082 23698670 
2634.007 23737830 23775696 23811642 23844580 23873600 23897930 23917848 
2637.383 23934130 23948554 23962944 23979190 23999010 24023102 24052414 
2640.758 24086666 24125824 24169258 24216412 24266444 24318968 24373358 
2644.133 24429892 24488676 24550066 24614618 24682790 24755010 24831064 
2647.508 24910888 24993988 25079388 25166244 25253678 25340954 25427686 
2650.884 25514366 25601590 25690518 25782172 25877292 25975914 26077726 
2654.259 26182026 26287972 26395488 26504338 26615152 26728426 26844652 
2657.634 26963980 27086514 27212008 27340154 27470982 27603826 27738336 
2661.009 27873738 28008968 28143038 28275488 28406032 28535272 28663912 
2664.385 28792874 28922370 29052790 29183924 29315558 29447480 29580150 
2667.760 29713924 29849268 29986500 30125088 30264646 30404888 30545672 
2671.135 30687924 30832748 30981608 31135428 31294968 31459410 31627476 
2674.510 31797786 31968872 32139704 32310106 32480252 32650288 32820962 
2677.885 32992202 33164262 33336998 33510518 33684964 33861136 34039736 
2681.261 34222108 34409608 34603620 34805140 35014948 35233012 35458704 
2684.636 35691308 35930192 36174572 36424752 36680840 36943720 37213540 
2688.011 37490760 37774656 38064996 38361000 38662236 38968540 39279776 
2691.386 39596064 39917120 40243212 40574020 40909892 41251304 41598748 
2694.762 41953112 42314556 42683104 43058000 43438456 43823460 44212184 
2698.137 44604412 44999752 45398136 45800088 46205140 46613744 47025796 
2701.512 47441344 47859920 48280748 48702320 49122112 49538036 49947744 
2704.887 50349244 50741696 51124548 51497664 51860464 52212392 52552224 
2708.263 52878628 53190708 53487948 53770804 54039844 54296024 54540524 
2711.638 54773804 54996496 55209024 55411312 55603296 55784516 55953600 
2715.013 56109096 56248888 56371220 56474148 56556796 56618964 56661016 
2718.388 56684044 56689896 56680872 56659768 56630096 56595672 56560420 
2721.764 56527772 56501280 56483620 56477544 56485392 56509204 56551248 
2725.139 56612844 56694956 56797808 56920940 57063600 57225240 57405324 
2728.514 57603600 57819760 58052996 58301924 58564424 58838200 59120344 
2731.889 59409176 59702644 59999352 60298016 60597340 60895388 61190856 
2735.265 61481712 61766612 62044436 62313800 62573760 62823004 63060628 
2738.640 63286112 63499824 63703208 63898472 64088292 64275400 64461888 
2742.015 64649648 64840220 65035492 65237864 65450080 65674996 65914728 
2745.390 66170796 66442536 66728196 67025148 67329536 67637504 67944680 
2748.766 68246808 68539288 68817832 69078256 69316888 69531608 69720944 
2752.141 69884184 70021352 70132984 70219792 70282576 70322472 70340200 
2755.516 70336376 70310472 70260848 70184928 70079168 69940272 69765616 
2758.891 69553808 69304600 69018792 68698200 68344176 67958904 67544632 
2762.267 67103832 66640420 66158756 65663704 65160668 64654916 64151780 
2765.642 63656248 63173548 62708064 62264544 61846680 61457584 61099308 
2769.017 60773188 60480216 60220820 59995472 59804080 59646420 59521036 
2772.392 59425664 59357056 59311280 59284164 59271708 59270568 59277404 
2775.768 59289028 59302204 59313296 59318160 59312764 59292976 59254768 
2779.143 59194956 59110968 59001188 58865632 58706260 58525752 58329060 
2782.518 58121436 57907512 57691988 57478200 57268184 57063556 56864736 
2785.893 56671248 56482336 56295808 56108684 55916964 55716328 55503284 
2789.269 55275476 55032148 54774180 54503744 54223716 53936776 53645752 
2792.644 53353428 53062680 52777108 52500544 52236976 51990712 51764928 
2796.019 51562468 51385240 51234668 51111760 51016912 50950812 50913440 
2799.394 50904316 50922648 50967356 51037224 51130696 51246556 51383004 
2802.770 51538180 51709388 51894140 52089620 52293336 52503424 52718108 
2806.145 52936228 53156180 53376092 53593456 53805152 54007800 54197776 
2809.520 54371536 54524968 54654368 54755912 54826240 54863120 54865528 
2812.895 54833836 54770044 54676572 54556976 54414648 54252812 54075756 
2816.271 53887932 53694568 53502192 53317276 53146068 52995032 52869344 
2819.646 52773444 52711336 52685936 52699780 52753948 52848540 52981932 
2823.021 53150712 53350280 53574752 53817792 54072604 54331920 54588384 
2826.396 54835416 55065700 55273860 55455432 55607704 55729400 55821176 
2829.771 55884404 55920996 55933660 55925444 55899212 55858704 55807536 
2833.147 55749024 55686532 55622844 55560444 55501512 55448656 55403784 
2836.522 55368928 55345664 55334940 55337272 55353644 55385640 55436608 
2839.897 55511716 55618060 55764096 55958388 56209364 56524944 56912588 
2843.272 57379908 57935000 58586608 59343340 60211796 61193636 62282172 
2846.648 63459172 64693524 65937632 67132720 68213544 69110240 69763512 
2850.023 70129248 70184616 69932328 69398936 68632224 67688224 66629684 
2853.398 65517380 64400816 63321420 62309208 61382016 60549536 59813440 
2856.773 59169172 58607880 58117872 57686464 57300392 56947872 56618396 
2860.149 56303012 55994232 55685928 55372656 55050576 54716672 54369472 
2863.524 54008964 53636380 53254232 52866468 52477816 52094888 51725064 
2866.899 51376552 51058240 50777336 50540568 50352072 50213944 50125724 
2870.274 50084448 50085564 50122080 50184744 50264048 50348536 50427908 
2873.650 50493856 50540268 50565136 50569156 50555868 50528988 50492960 
2877.025 50450944 50404536 50355120 50303220 50249504 50194824 50140340 
2880.400 50087088 50036372 49989600 49948116 49913804 49888568 49874556 
2883.775 49873180 49885780 49912392 49952576 50005404 50069796 50144432 
2887.151 50228636 50320932 50420500 50525976 50636352 50750372 50867284 
2890.526 50986172 51106132 51226648 51346604 51465508 51583400 51700988 
2893.901 51819468 51940968 52067428 52200916 52342704 52494264 52656424 
2897.276 52830652 53018432 53220708 53438220 53670464 53915732 54171764 
2900.652 54435984 54706376 54982240 55264080 55553212 55851620 56161360 
2904.027 56484448 56823412 57181960 57564556 57978088 58430560 58931016 
2907.402 59490292 60119396 60829820 61633896 62542000 63561036 64690912 
2910.777 65921904 67230504 68577504 69914192 71179456 72308568 73244032 
2914.153 73936096 74352072 74480352 74329424 73926192 73310008 72530640 
2917.528 71638320 70678576 69692360 68709144 67749176 66823528 65935552 
2920.903 65083416 64261524 63463436 62683260 61917024 61163352 60424040 
2924.278 59703480 59007528 58342400 57714012 57125912 56579556 56073584 
2927.654 55604012 55165084 54750236 54352952 53967576 53590496 53220108 
2931.029 52857260 52504548 52166168 51847208 51552956 51288056 51056936 
2934.404 50863000 50708476 50594544 50521284 50487116 50488568 50521208 
2937.779 50579576 50657760 50750928 50855400 50969104 51091820 51223704 
2941.155 51365436 51516728 51675500 51838172 51999488 52152232 52288248 
2944.530 52398740 52474148 52506268 52488060 52415824 52289484 52114200 
2947.905 51899744 51658780 51407356 51161488 50934756 50738492 50579504 
2951.280 50460284 50379344 50332836 50314716 50318104 50336816 50364908 
2954.656 50397316 50430212 50460320 50484848 50501856 50509860 50508556 
2958.031 50499212 50483880 50466388 50450644 50440296 50438064 50445396 
2961.406 50461884 50486596 50517824 50554116 50594244 50637768 50684200 
2964.781 50733240 50784372 50836816 50889524 50942092 50993476 51043260 
2968.156 51090964 51136176 51178708 51219232 51258488 51297940 51339368 
2971.532 51384160 51433092 51486252 51542616 51601012 51660156 51719688 
2974.907 51779596 51840488 51902692 51965612 52027236 52083792 52130004 
2978.282 52159816 52167252 52147076 52095520 52011476 51895856 51752756 
2981.657 51587652 51408028 51221320 51033908 50850340 50672468 50499324 
2985.033 50327444 50151608 49966888 49768460 49553004 49319500 49068276 
2988.408 48800888 48518988 48223800 47914564 47589280 47244104 46875136 
2991.783 46479676 46057236 45610768 45146856 44674400 44202424 43738952 
2995.158 43288600 42851692 42425132 42003292 41580228 41150864 40712904 
2998.534 40266296 39813572 39358312 38904068 38454100 38011252 37576952 
3001.909 37152540 36738636 36335504 35942828 35560280 35186876 34822052 
3005.284 34465780 34118404 33780972 33455152 33142232 32842976 32557708 
3008.659 32285586 32025226 31774860 31532514 31296070 31063850 30834030 
3012.035 30605646 30378414 30152898 29929842 29710874 29497442 29290248 
3015.410 29089992 28896342 28709042 28527488 28351596 28181114 28016072 
3018.785 27856390 27701182 27549772 27401274 27255260 27111872 26971982 
3022.160 26836688 26707424 26585314 26471304 26366300 26271708 26189170 
3025.536 26121040 26069916 26037548 26024602 26029774 26049510 26078078 
3028.911 26108514 26132620 26142260 26130296 26091274 26021400 25920338 
3032.286 25789802 25634452 25459658 25272220 25078088 24881904 24687000 
3035.661 24495022 24306528 24121690 23940466 23763098 23590280 23422494 
3039.037 23260264 23103720 22952822 22807352 22667098 22531742 22401136 
3042.412 22274966 22152806 22034060 21918624 21805936 21696136 21589564 
3045.787 21486500 21387674 21293810 21205048 21121900 21044372 20972210 
3049.162 20904756 20841240 20780548 20721394 20662594 20603180 20542382 
3052.538 20480412 20417374 20354312 20292436 20233210 20178194 20128594 
3055.913 20084834 20046870 20013456 19982924 19952984 19922352 19890406 
3059.288 19857766 19826238 19798598 19776786 19762324 19755668 19756118 
3062.663 19762428 19773664 19789546 19810494 19837164 19870010 19908892 
3066.039 19952220 19997600 20041838 20081814 20114886 20139250 20153930 
3069.414 20158964 20154590 20141714 20121028 20093682 20060680 20023034 
3072.789 19981710 19937616 19891548 19844482 19797662 19752198 19709066 
3076.164 19669090 19632238 19597678 19564228 19530018 19493700 19454540 
3079.540 19412510 19368506 19323818 19279824 19237500 19197428 19159786 
3082.915 19124154 19090154 19057610 19026418 18996924 18969648 18945350 
3086.290 18924480 18907900 18895444 18886860 18881532 18878486 18876756 
3089.665 18875890 18875890 18877204 18880806 18887102 18896446 18908420 
3093.041 18921988 18936214 18950196 18963522 18976536 18990106 19005162 
3096.416 19022644 19043000 19066194 19091954 19119688 19148706 19178452 
3099.791 19208684 19239196 19270300 19302272 19335250 19369582 19404990 
3103.166 19440992 19476890 19511894 19545546 19577886 19609532 19641354 
3106.542 19674428 19709238 19745438 19782542 19819302 19854956 19889018 
3109.917 19922214 19955412 19989968 20026954 20066892 20109610 20154556 
3113.292 20200754 20247304 20293444 20338582 20382022 20423242 20462106 
3116.667 20498440 20532272 20564234 20594806 20624546 20653388 20681152 
3120.042 20707354 20731750 20754236 20775648 20796676 20818402 20841484 
3123.418 20866096 20891892 20918246 20944464 20970264 20995858 21021592 
3126.793 21048266 21076334 21105970 21137346 21170150 21204072 21238762 
3130.168 21273906 21309192 21344482 21379598 21414616 21449738 21485108 
3133.543 21521108 21557598 21594544 21631528 21668342 21704912 21741382 
3136.919 21778240 21815726 21854158 21893534 21933610 21974002 22014820 
3140.294 22056266 22099042 22144018 22191614 22241588 22293310 22345284 
3143.669 22396216 22445306 22491960 22537012 22581404 22626432 22673416 
3147.044 22723026 22775400 22830296 22887362 22945906 23005188 23064724 
3150.420 23124094 23182842 23240690 23297494 23352666 23406374 23458342 
3153.795 23508216 23556382 23602908 23648566 23694332 23741294 23790082 
3157.170 23841570 23895932 23953106 24012842 24074898 24138784 24204396 
3160.545 24270998 24337962 24404656 24470308 24534814 24598240 24661748 
3163.921 24726142 24792580 24861590 24933204 25006518 25080440 25153778 
3167.296 25225480 25295048 25362486 25428038 25492474 25556500 25621132 
3170.671 25687144 25755168 25825280 25896810 25968774 26039342 26107494 
3174.046 26172314 26233904 26293040 26350986 26408798 26467218 26526034 
3177.422 26584610 26642348 26698968 26754784 26810924 26868728 26929148 
3180.797 26992784 27059534 27128554 27199168 27270750 27343010 27416132 
3184.172 27490748 27567248 27646128 27727564 27811596 27897974 27986456 
3187.547 28076370 28167256 28258372 28349404 28440134 28531062 28622750 
3190.923 28715982 28811568 28910012 29011450 29116316 29224146 29334876 
3194.298 29447974 29562558 29676886 29789896 29900026 30006560 30109926 
3197.673 30211576 30313816 30418570 30527082 30639388 30754144 30869318 
3201.048 30983138 31094958 31204956 31314306 31424750 31537504 31652886 
3204.424 31770762 31890556 32011456 32133676 32257140 32382104 32508750 
3207.799 32636252 32763754 32890148 33014938 33137870 33259868 33381614 
3211.174 33503968 33627036 33750816 33874924 33999172 34123924 34249820 
3214.549 34377724 34508288 34641544 34777068 34914180 35052088 35190184 
3217.925 35328180 35465928 35603328 35739980 35875848 36010680 36144940 
3221.300 36279416 36414876 36552216 36691876 36833412 36975972 37118396 
3224.675 37259464 37398620 37535584 37670608 37804008 37936328 38068252 
3228.050 38200220 38332588 38465648 38599112 38732328 38864460 38994128 
3231.426 39120940 39244596 39365816 39486024 39606552 39728600 39852576 
3234.801 39978076 40104336 40231144 40357912 40485160 40613424 40743180 
3238.176 40874216 41006236 41138408 41270544 41403052 41536872 41672996 
3241.551 41812156 41954020 42097176 42240092 42380968 42519180 42655612 
3244.927 42792164 42931024 43074280 43222748 43376172 43533748 43693988 
3248.302 43855864 44019156 44183972 44350288 44518352 44687588 44857328 
3251.677 45026984 45196452 45365984 45536908 45710588 45888204 46070648 
3255.052 46258396 46450620 46646500 46844616 47043408 47241596 47438204 
3258.427 47632944 47826144 48018360 48210396 48402592 48594504 48785244 
3261.803 48973392 49158580 49340880 49521696 49703108 49887452 50076568 
3265.178 50270484 50468100 50666736 50863784 51056936 51245180 51429100 
3268.553 51610376 51791280 51974168 52160936 52352312 52548484 52748784 
3271.928 52951796 53155768 53358972 53559912 53757600 53951932 54143312 
3275.304 54332896 54522036 54711716 54902752 55095528 55290008 55486228 
3278.679 55684764 55885800 56090172 56298224 56510188 56725576 56944096 
3282.054 57164724 57387056 57610600 57835016 58060456 58287072 58515096 
3285.429 58745252 58978072 59214132 59453552 59696520 59942520 60191168 
3288.805 60441904 60695104 60951200 61211604 61477432 61749348 62027392 
3292.180 62310972 62598640 62889820 63183852 63480920 63781836 64087564 
3295.555 64398700 64715252 65036648 65361792 65689644 66018708 66348292 
3298.930 66677740 67006552 67335264 67664256 67995440 68330368 68671336 
3302.306 69019992 69377480 69744368 70120640 70506152 70901344 71307000 
3305.681 71723752 72152360 72592280 73042408 73501208 73967048 74439368 
3309.056 74918392 75405152 75900864 76406184 76920960 77444304 77975216 
3312.431 78513368 79059456 79614920 80181376 80760136 81351232 81953760 
3315.807 82566432 83188072 83818432 84457848 85106920 85765792 86433792 
3319.182 87109184 87790088 88474816 89162176 89852504 90546216 91243776 
3322.557 91944792 92648992 93355272 94063256 94772872 95484232 96196680 
3325.932 96908192 97615216 98313104 98997040 99663672 100311296 100940024 
3329.308 101551040 102145016 102721624 103279000 103814576 104325912 
3332.201 104811360 105269656 105700616 106103040 106475256 106814624 
3335.094 107119008 107386696 107618288 107815440 107980504 108114960 
3337.987 108218920 108290640 108327808 108327600 108288392 108209656 
3340.880 108091416 107933696 107735680 107496600 107215064 106890984 
3343.773 106525008 106118728 105674168 105192264 104672664 104113832 
3346.666 103514136 102873016 102191384 101472096 100719528 99937976 99131272 
3350.041 98302008 97452264 96583512 95697552 94796408 93882080 92956536 
3353.417 92020880 91076160 90123616 89165560 88205216 87247208 86296032 
3356.792 85355600 84428472 83515568 82616840 81731808 80860912 80004904 
3360.167 79165216 78343560 77540536 76756240 75989696 75239040 74503016 
3363.542 73780640 73071456 72376008 71695064 71029744 70381344 69751024 
3366.917 69139648 68547944 67975528 67421160 66883124 66359296 65847748 
3370.293 65347196 64857184 64377680 63908412 63448972 62997832 62553936 
3373.668 62115808 61683080 61256240 60836532 60424916 60022064 59626920 
3377.043 59238476 58855124 58475824 58100868 57731536 57369056 57013836 
3380.418 56665432 56321308 55978472 55634288 55287256 54937796 54587712 
3383.794 54239896 53896336 53558672 53226512 52898952 52574324 52251700 
3387.169 51930508 51611424 51295032 50982112 50673140 50367700 50065632 
3390.544 49766416 49469672 49175576 48884576 48597656 48315632 48039044 
3393.919 47768184 47502700 47241116 46981716 46722652 46462716 46201932 
3397.295 45941424 45683424 45430252 45183396 44943156 44707932 44475256 
3400.670 44242156 44006208 43766912 43524668 43281024 43037840 42796368 
3404.045 42557332 42320512 42085680 41852584 41621432 41392768 41166676 
3407.420 40942916 40720584 40498652 40276036 40052264 39827588 39602956 
3410.796 39379312 39157488 38937768 38720048 38503808 38288764 38075020 
3414.171 37862680 37652072 37443188 37236212 37030956 36827208 36625212 
3417.546 36425000 36226508 36029576 35833240 35636456 35438464 35239160 
3420.921 35039372 34840788 34645780 34455880 34272300 34095144 33923180 
3424.297 33755152 33589768 33425842 33262942 33100534 32938472 32776366 
3427.672 32614284 32452080 32290832 32131604 31975862 31824488 31677834 
3431.047 31534794 31394116 31254590 31115424 30977230 30841322 30709510 
3434.422 30583212 30462780 30347250 30234736 30123066 30010324 29895836 
3437.798 29779214 29661240 29541810 29420886 29296912 29168332 29032988 
3441.173 28889646 28738000 28578726 28413532 28243840 28070748 27894228 
3444.548 27713332 27527074 27334612 27136664 26935070 26733182 26534628 
3447.923 26342642 26158520 25981860 25810512 25641376 25471638 25299298 
3451.299 25123866 24946120 24767462 24589194 24412822 24238798 24067928 
3454.674 23900484 23736884 23577544 23422494 23270786 23121194 22971754 
3458.049 22820972 22667622 22511816 22354354 22196602 22040440 21887122 
3461.424 21737830 21592802 21452522 21317196 21186362 21059500 20935248 
3464.800 20812422 20689214 20564962 20439880 20314694 20191210 20070918 
3468.175 19953850 19839176 19724702 19608352 19488432 19364974 19239300 
3471.550 19113870 18991108 18872258 18757832 18646858 18537784 18429842 
3474.925 18322272 18215488 18110044 18006562 17904586 17803946 17703674 
3478.301 17603256 17502686 17402656 17303926 17207322 17113498 17022378 
3481.676 16934104 16848880 16767116 16688775 16613513 16539712 16465129 
3485.051 16386500 16301107 16207406 16105235 15995763 15881373 15764741 
3488.426 15647834 15531920 15417547 15304509 15192597 15081675 14971056 
3491.802 14859985 14747160 14631108 14510257 14384370 14253625 14119871 
3495.177 13985166 13851769 13721184 13593611 13468742 13345754 13223723 
3498.552 13102511 12982289 12863262 12745699 12629260 12512819 12395487 
3501.927 12276484 12156218 12035917 11918136 11805187 11699245 11601089 
3505.302 11509998 11423551 11338516 11251799 11160440 11063390 10960825 
3508.678 10855089 10748971 10645595 10547269 10455686 10370060 10289744 
3512.053 10212971 10138653 10065773 9994023 9923200 9852864 9782165 9709989 
3515.910 9635215 9557609 9477545 9396580 9316714 9240181 9168297 9101433 
3519.768 9038739 8978423 8918013 8855381 8789072 8718682 8644619 8568474 
3523.625 8491734 8416528 8343834 8273720 8205777 8138756 8071375 8002924 
3527.483 7933573 7864435 7797096 7733343 7674354 7620836 7572248 7528081 
3531.340 7486919 7447716 7409190 7369724 7327937 7281976 7230696 7173662 
3535.198 7111651 7046651 6981358 6918263 6859082 6803915 6751749 6701104 
3539.055 6650666 6600437 6551054 6503493 6458661 6416491 6375300 6333070 
3542.912 6287549 6237429 6182643 6123965 6063246 6001729 5940825 5880971 
3546.770 5822704 5766560 5713646 5664229 5618142 5573904 5528799 5480411 
3550.627 5426223 5366138 5301198 5234725 5170006 5109553 5054608 5004428 
3554.485 4957874 4913436 4870812 4830035 4792009 4756465 4722365 4687597 
3558.342 4649550 4606014 4555920 4499939 4439681 4377289 4314438 4252332 
3562.199 4191673 4132360 4074360 4017639 3961293 3903951 3843408 3777391 
3566.057 3704467 3625040 3542287 3460819 3385377 3318996 3262273 3212868 
3569.914 3167507 3122951 3077232 3029950 2981839 2934067 2886967 2840406 
3573.772 2793450 2745231 2695651 2645810 2597575 2552345 2510985 2472795 
3577.629 2436174 2399090 2359910 2317903 2273601 2227638 2180782 2133431 
3581.487 2085685 2037878 1991042 1946640 1905771 1869397 1836155 1802982 
3585.344 1765652 1719644 1662497 1594483 1519897 1445290 1378374 1323998 
3589.201 1284516 1258330 1241881 1229852 1217425 1200746 1176857 1144232 
3593.059 1102907 1054411 1001570 947672 896504 850886 812078 780012 753027 
3597.398 728266 703176 675133 643011 606378 566364 524795 484059 446545 
3601.738 414572 389433 371259 359023 350567 343238 333854 319463 297446 
3606.078 266280 225502 175347 118039 56994 -3876 -59902 -108069 -147222 
3610.417 -178622 -205018 -230518 -258169 -289528 -323665 -357600 -387660 
3614.275 -410734 -426126 -435196 -441750 -450389 -465184 -488849 -522011 
3618.132 -562979 -608510 -653970 -694861 -727709 -750499 -763697 -768790 
3621.990 -768923 -766376 -764160 -762903 -762539 -761514 -758504 -753609 
3625.847 -749639 -752484 -770940 -813969 -886821 -986472 -1100477 -1209727 
3629.704 -1294966 -1345838 -1362981 -1355714 -1336358 -1316274 -1303721 
3633.080 -1301871 -1309964 -1323706 -1339100 -1352411 -1362353 -1369521 
3636.455 -1375433 -1381345 -1387918 -1394755 -1401261 -1407669 -1413877 
3639.830 -1420615 -1428772 -1438482 -1449478 -1460574 -1470250 -1477217 
3643.205 -1480784 -1480685 -1477383 -1472231 -1467212 -1464834 -1468136 
3646.581 -1480784 -1505450 -1544213 -1596607 -1660910 -1732036 -1803183 
3649.956 -1867225 -1916611 -1946035 -1953523 -1940361 -1911695 -1874714 
3653.331 -1838653 -1812488 -1803414 -1815919 -1849178 -1897081 -1948938 
3656.706 -1993499 -2022820 -2034165 -2030438 -2017609 -2002372 -1989343 
3660.082 -1981296 -1978492 -1979910 -1983868 -1989014 -1994324 -1999271 
3663.457 -2003031 -2004482 -2002734 -1997589 -1988981 -1978756 -1969125 
3666.832 -1963517 -1965364 -1978558 -2005571 -2047653 -2102987 -2165072 
3670.207 -2223820 -2268320 -2289942 -2286316 -2261662 -2226325 -2193886 
3673.583 -2178161 -2190326 -2234500 -2304708 -2384164 -2452370 -2495068 
3676.958 -2508378 -2499483 -2480144 -2462024 -2451448 -2449965 -2454380 
3680.333 -2459652 -2461299 -2457444 -2448845 -2437873 -2426341 -2414710 
3683.708 -2401266 -2384625 -2364029 -2341851 -2322637 -2312222 -2316144 
3687.083 -2337270 -2373718 -2419554 -2466801 -2508279 -2540265 -2563323 
3690.459 -2579727 -2591716 -2599653 -2602025 -2596623 -2582395 -2560392 
3693.834 -2533513 -2506038 -2481792 -2463144 -2450262 -2441432 -2434018 
3697.209 -2425880 -2416193 -2406044 -2397707 -2394050 -2397707 -2409668 
3700.584 -2429175 -2454150 -2481067 -2505709 -2524454 -2535258 -2537202 
3703.960 -2531404 -2519710 -2504622 -2488018 -2471479 -2455632 -2440147 
3707.335 -2424430 -2408251 -2391644 -2376222 -2364754 -2360009 -2365216 
3710.710 -2381659 -2408153 -2441168 -2474214 -2501196 -2516251 -2517107 
3714.085 -2504424 -2481627 -2453622 -2425979 -2403474 -2388711 -2381956 
3717.461 -2381297 -2383175 -2384230 -2382121 -2376815 -2370225 -2365216 
3720.836 -2364952 -2370785 -2382220 -2397246 -2412799 -2426275 -2436885 
3724.211 -2445188 -2452140 -2459388 -2466966 -2473324 -2475598 -2470821 
3727.586 -2456390 -2432206 -2400739 -2365677 -2332722 -2307443 -2293502 
3730.962 -2292777 -2303851 -2322835 -2344454 -2364392 -2380967 -2396257 
3734.337 -2413557 -2436259 -2464692 -2496024 -2524256 -2542275 -2546392 
3737.712 -2535818 -2513813 -2484823 -2452733 -2420212 -2387822 -2356252 
3741.087 -2327514 -2305894 -2299368 -2316803 -2365677 -2445682 -2543955 
3744.463 -2636969 -2697562 -2709252 -2672931 -2602947 -2519084 -2439784 
3747.838 -2379880 -2347453 -2344520 -2366468 -2405583 -2452733 -2500669 
3751.213 -2544581 -2580847 -2605549 -2614606 -2604857 -2576532 -2533249 
3754.588 -2482154 -2431316 -2387360 -2355033 -2335556 -2327152 -2326855 
3757.964 -2331865 -2340961 -2353780 -2370159 -2388283 -2404561 -2414281 
3761.339 -2413919 -2402584 -2383142 -2360174 -2339675 -2325306 -2318089 
3764.714 -2315683 -2313771 -2308366 -2297984 -2284932 -2273824 -2269836 
3768.089 -2276395 -2293271 -2317133 -2341620 -2360174 -2367654 -2362546 
3771.465 -2346168 -2322076 -2294358 -2266870 -2242280 -2222501 -2208095 
3774.840 -2198865 -2193788 -2191513 -2191084 -2192238 -2195799 -2202952 
3778.215 -2214853 -2231632 -2250949 -2268814 -2280812 -2283811 -2276955 
3781.590 -2263211 -2246565 -2232259 -2223853 -2222468 -2226852 -2234401 
3784.966 -2241719 -2246565 -2248740 -2249004 -2248411 -2247290 -2245015 
3788.341 -2240401 -2232522 -2221578 -2209216 -2197579 -2188941 -2183765 
3791.716 -2181656 -2180699 -2179447 -2177666 -2176611 -2178952 -2187326 
3795.091 -2202392 -2221677 -2240499 -2252069 -2251311 -2237203 -2213073 
3798.467 -2186238 -2166688 -2164215 -2185315 -2231269 -2294721 -2362250 
3801.842 -2415830 -2441168 -2432601 -2393588 -2334897 -2270297 -2213798 
3805.217 -2177139 -2166457 -2181755 -2215710 -2255893 -2288294 -2304246 
3808.592 -2301148 -2283020 -2255827 -2225962 -2197282 -2170479 -2144565 
3811.968 -2117594 -2089698 -2063218 -2043399 -2036341 -2047059 -2077134 
3815.343 -2121485 -2169556 -2207535 -2225237 -2218974 -2192337 -2154819 
3818.718 -2118913 -2095534 -2092897 -2113571 -2152808 -2199491 -2238785 
3822.093 -2259288 -2256421 -2233017 -2197579 -2159863 -2128805 -2108757 
3825.469 -2100514 -2100316 -2101866 -2098568 -2086367 -2065065 -2038320 
3828.844 -2012002 -1991388 -1980867 -1981559 -1991454 -2006230 -2021335 
3832.219 -2032318 -2036638 -2033967 -2025392 -2013585 -2001646 -1993004 
3835.594 -1990630 -1996863 -2012530 -2035879 -2063482 -2090028 -2110307 
3838.969 -2121353 -2122738 -2116407 -2105921 -2095172 -2086664 -2081553 
3842.345 -2079970 -2080597 -2082048 -2083202 -2083070 -2081520 -2078255 
3845.720 -2073111 -2066021 -2056623 -2044322 -2028393 -2007945 -1981790 
3849.095 -1950158 -1914763 -1879399 -1851091 -1839610 -1854688 -1904537 
3852.470 -1990102 -2101569 -2217556 -2312947 -2369302 -2381429 -2356417 
3855.846 -2308003 -2249597 -2190953 -2137608 -2091676 -2053028 -2020247 
3859.221 -1992114 -1968201 -1947981 -1931653 -1919448 -1911662 -1908759 
3862.596 -1912190 -1922549 -1940230 -1962957 -1985781 -2002009 -2005142 
3865.971 -1991850 -1963616 -1926771 -1891869 -1868973 -1866862 -1888471 
3869.347 -1929443 -1978855 -2022457 -2050093 -2058173 -2050654 -2035385 
3872.722 -2021137 -2013354 -2012827 -2016125 -2017048 -2009528 -1990366 
3876.097 -1960417 -1924231 -1888042 -1858614 -1841391 -1839709 -1853500 
3879.472 -1879662 -1911300 -1940460 -1959163 -1962264 -1949169 -1923670 
3882.848 -1893156 -1866235 -1851553 -1855116 -1877287 -1912586 -1950620 
3886.223 -1979580 -1990003 -1979284 -1951247 -1914335 -1878145 -1851388 
3889.598 -1839709 -1844592 -1862738 -1887085 -1909485 -1923010 -1923967 
3892.973 -1912586 -1891209 -1863661 -1833011 -1801896 -1772264 -1745072 
3896.349 -1721673 -1703356 -1691672 -1687448 -1691111 -1701805 -1717911 
3899.724 -1736887 -1756622 -1776191 -1795659 -1816018 -1838653 -1864024 
3903.099 -1890780 -1915984 -1936139 -1947421 -1947421 -1936238 -1915522 
3906.474 -1888306 -1858152 -1828259 -1800939 -1777708 -1759427 -1746524 
3909.850 -1738801 -1735501 -1735303 -1735897 -1734610 -1729066 -1717647 
3913.225 -1700584 -1679889 -1659161 -1642723 -1634206 -1635395 -1645958 
3916.600 -1662990 -1682167 -1699197 -1711013 -1716459 -1716327 -1711838 
3919.975 -1704610 -1695930 -1686160 -1675929 -1666093 -1657874 -1653286 
3923.351 -1653451 -1658864 -1668106 -1678470 -1686491 -1689098 -1684378 
3926.726 -1672793 -1655959 -1636748 -1617767 -1600932 -1587594 -1578252 
3930.101 -1573233 -1572606 -1576898 -1585878 -1598984 -1614499 -1630245 
3933.476 -1643944 -1653913 -1659425 -1661141 -1660712 -1659425 -1658237 
3936.852 -1657115 -1654903 -1650414 -1642723 -1632028 -1619880 -1608524 
3940.227 -1600436 -1597630 -1600469 -1608260 -1618428 -1628265 -1635032 
3943.602 -1636979 -1633447 -1625657 -1615589 -1605619 -1597729 -1593669 
3946.977 -1594032 -1598323 -1605058 -1612552 -1618692 -1622191 -1622488 
3950.353 -1619979 -1615688 -1610703 -1605850 -1601757 -1598159 -1594593 
3953.728 -1590830 -1587066 -1583600 -1581124 -1580199 -1581289 -1583666 
3957.103 -1586637 -1589014 -1589707 -1588552 -1585779 -1582411 -1579737 
3960.478 -1578615 -1579671 -1582477 -1585878 -1588354 -1588717 -1586142 
3963.854 -1580662 -1572969 -1564518 -1556363 -1549727 -1544708 -1541209 
3967.229 -1538402 -1535596 -1532030 -1527341 -1521662 -1515521 -1509643 
3970.604 -1504723 -1501422 -1500200 -1501289 -1504360 -1508917 -1513771 
3973.979 -1517304 -1517898 -1514068 -1505186 -1491879 -1475665 -1459121 
3977.354 -1444624 -1434155 -1428640 -1427319 -1429135 -1432141 -1434453 
3980.730 -1435443 -1435113 -1433825 -1432405 -1431249 -1430754 -1430324 
3984.105 -1429862 -1429235 -1428970 -1429862 -1432603 -1437755 -1445450 
3987.480 -1455291 -1466023 -1476722 -1485704 -1491978 -1494355 -1492176 
3990.855 -1485341 -1474345 -1460145 -1444987 -1430886 -1419888 -1413646 
3994.231 -1412523 -1415892 -1421969 -1429433 -1436665 -1443237 -1449478 
3997.606 -1456083 -1463778 -1472429 -1481510 -1489402 -1494619 -1495709 
##END=
