
##TITLE=Z404_1_a
##JCAMP-DX=5.01  $$ Nicolet v. 1
##DATATYPE=INFRARED SPECTRUM
##ORIGIN=UniL
##OWNER=Nicolet
##LONGDATE=2011/09/21
##TIME=10:02:22
##SPECTROMETER/DATA SYSTEM=Nicolet iS5
##DATA PROCESSING=
Ratio against background
%Transmittance->Absorbance
Truncated
ElementMultiply or ElementDivide
##COMMENTS=
Number of sample scans: 32
Collection length: 51.12 sec
Sample gain: 2.0
Background collected on: Mer Sep 21 09:58:19 2011 (GMT+02:00);
Number of background scans: 32
Background gain: 2.0
Sample spacing:  1.000
Number of scan points: 12415
Resolution points: 8192
Number of FFT points: 65536
Apodization: N-B fort;
Phase correction: Mertz;
Laser frequency: 15798.0 cm-1
Number of rejected sample scans: 0
Number of rejected background scans: 0
Bench serial number: ASB1000141;
##RESOLUTION=4.000
##XUNITS=1/CM
##YUNITS=ABSORBANCE
##FIRSTX=649.893372
##LASTX=4000.122314
##FIRSTY=0.128961
##MAXX=4000.122314
##MINX=649.893372
##MAXY=0.235474
##MINY=-0.000699
##XFACTOR=1.000000
##YFACTOR=1.000000E-009
##NPOINTS=6950
##DELTAX=0.482117
##ZPD=6100
##XYDATA=(X++(Y..Y))
649.893 128961352 127174720 125751496 124691848 123958192 123494064 
652.786 123242800 123169984 123264496 123527536 123954448 124516680 
655.679 125160488 125824544 126458928 127043736 127592472 128136512 
658.571 128704008 129300904 129907384 130489112 131020264 131495328 
661.464 131934864 132372512 132839648 133346128 133879440 134408672 
664.357 134901568 135334256 135691040 135960496 136127328 136171024 
667.250 136078064 135860640 135570608 135279312 135052528 134917840 
670.142 134859024 134826256 134757168 134599584 134325376 133939784 
673.035 133472728 132963848 132440912 131908152 131351920 130754264 
675.928 130110352 129436288 128763872 128124904 127536688 126992952 
678.820 126467096 125927120 125353200 124744832 124121184 123506488 
681.713 122917672 122353600 121797840 121224960 120615832 119965752 
684.606 119284248 118587624 117889880 117196736 116506480 115816536 
687.498 115130872 114462856 113831360 113252760 112730936 112254712 
690.391 111799704 111340672 110859552 110353032 109830112 109306120 
693.284 108793704 108295616 107806680 107317832 106824152 106328240 
696.177 105840968 105373704 104935216 104525824 104139144 103766304 
699.069 103402752 103049832 102715200 102406720 102126904 101870320 
701.962 101625144 101378688 101122912 100859400 100598208 100353872 
704.855 100137640 99954744 99801824 99671472 99555488 99449280 99354048 
708.229 99273384 99210960 99168496 99145848 99145304 99175488 99256016 
711.604 99415328 99685432 100092944 100645368 101321904 102065664 102791688 
714.979 103393920 103761176 103808344 103486384 102802016 101814560 
717.872 100636800 99414248 98291248 97406104 96861312 96710840 96961080 
721.247 97563368 98420904 99381704 100263752 100875656 101034512 100618880 
724.621 99589608 98009592 96027016 93848560 91694264 89731496 88061616 
727.996 86705608 85623920 84743496 83991160 83318152 82698768 82126304 
731.371 81598728 81106736 80632264 80155232 79660816 79146160 78619856 
734.746 78095128 77580592 77076784 76575504 76068288 75552472 75035496 
738.121 74530936 74052704 73606080 73184664 72772744 72352832 71915184 
741.496 71461584 71004032 70556592 70130336 69726864 69340592 68963872 
744.870 68593880 68234640 67895672 67585392 67305128 67046956 66797404 
748.245 66543788 66280664 66013000 65752016 65509176 65288156 65082832 
751.620 64880072 64668564 64444012 64213044 63989380 63787364 63613704 
754.995 63465692 63332880 63205236 63079476 62962064 62865624 62802324 
758.370 62778352 62791028 62833340 62899820 62992780 63122808 63302940 
761.744 63540712 63832148 64161992 64511628 64869844 65241484 65648092 
765.119 66123644 66701660 67403592 68238280 69202240 70288504 71491144 
768.494 72808352 74240408 75793104 77487472 79379088 81585416 84279312 
771.869 87669120 91937016 97134512 103088776 109313112 115076416 119438816 
775.244 121480968 120609968 116695696 110173048 101866336 92836384 84078168 
778.619 76303440 69942528 65094500 61626180 59270036 57736760 56785576 
781.993 56236064 55981904 55959100 56120936 56431776 56864204 57404832 
785.368 58057688 58839756 59771380 60866568 62132204 63573160 65200596 
788.743 67042544 69143912 71556584 74335008 77524224 81158104 85269984 
792.118 89898840 95092280 100901192 107355928 114438664 122045984 129981648 
795.493 137942432 145513072 152234128 157604896 161137424 162455792 
798.385 161322560 157710608 151812304 144028544 134905904 125021800 
801.278 114969064 105257792 96264048 88260352 81384072 75661864 71042704 
804.653 67423408 64680180 62684408 61327252 60522148 60200988 60313128 
808.028 60808480 61622704 62673540 63848116 65008560 66017516 66742568 
811.402 67081480 66978872 66421604 65439060 64089060 62453380 60622828 
814.777 58686460 56734144 54842220 53070844 51464948 50048380 48828436 
818.152 47799696 46950520 46268496 45743724 45370584 45146232 45068776 
821.527 45137224 45352560 45721636 46258360 46986364 47935392 49133240 
824.902 50600276 52337812 54321404 56490412 58747224 60961688 62963052 
828.277 64570212 65612368 65948164 65509140 64311048 62460040 60124568 
831.651 57514320 54846132 52295428 49995288 48022724 46400360 45113768 
835.026 44122680 43377268 42820244 42395980 42055636 41756232 41468844 
838.401 41180008 40891032 40614220 40366024 40161608 40008412 39906548 
841.776 39850868 39835252 39855408 39909564 39997184 40116980 40265168 
845.151 40437440 40630920 40846840 41091164 41372760 41699548 42074912 
848.525 42496160 42956704 43450212 43975080 44536196 45144172 45812312 
851.900 46550744 47364956 48255604 49221036 50261332 51381024 52587564 
855.275 53891348 55302160 56827608 58476048 60259376 62194488 64307860 
858.650 66632352 69203168 72058360 75235296 78768792 82693840 87037920 
862.025 91811160 96988056 102492416 108186152 113854008 119238600 124061568 
865.400 128052952 131016584 132844792 133541840 133213776 132051792 
868.292 130295976 128171728 125875416 123536600 121206344 118874672 
871.185 116488448 113983784 111305440 108428592 105363352 102152520 98861224 
874.560 95566520 92357080 89320472 86543056 84111464 82098840 80565568 
877.935 79554232 79083632 79151688 79737840 80810424 82328152 84241304 
881.309 86493512 89007976 91684688 94407824 97038632 99439488 101496704 
884.684 103125664 104290480 105002808 105316736 105313488 105085648 
887.577 104728784 104318536 103906064 103512784 103128856 102718312 
890.470 102227304 101600944 100789136 99757048 98489440 96986352 95258120 
893.844 93318224 91179472 88851048 86338712 83647472 80784320 77760640 
897.219 74597392 71325824 67989208 64646648 61364420 58213072 55263212 
900.594 52570400 50174372 48094636 46329356 44861036 43662260 42704232 
903.969 41960152 41407936 41030924 40812952 40737904 40789948 40953912 
907.344 41219280 41581828 42043040 42607000 43276812 44051460 44925520 
910.719 45891408 46942692 48077500 49298416 50610440 52018160 53523552 
914.093 55126520 56828440 58637576 60572428 62660412 64937784 67443416 
917.468 70212624 73278088 76665792 80392320 84458656 88838320 93466864 
920.843 98222568 102937184 107413424 111442848 114867832 117613256 119716528 
924.218 121327208 122697248 124156112 126035792 128661112 132300480 
927.110 137116736 143152640 150284144 158219680 166441904 174238208 
930.003 180801296 185242608 186804176 185019024 179790384 171463360 
932.896 160738624 148587488 136005440 123880584 112931968 103588112 96042440 
936.271 90288672 86177944 83483640 81953320 81366648 81528720 82270400 
939.646 83437784 84843912 86257392 87418016 88029272 87821392 86609096 
943.020 84315320 81007984 76879704 72228184 67378984 62631936 58234444 
946.395 54333608 50989708 48192440 45886988 43999280 42453924 41190428 
949.770 40159868 39323520 38652496 38120700 37706276 37392664 37166724 
953.145 37019484 36944328 36934664 36982720 37080576 37219460 37392628 
956.520 37595376 37824796 38079428 38357200 38655176 38969412 39295952 
959.894 39631924 39976440 40330716 40697184 41077652 41472820 41881552 
963.269 42301884 42731836 43170888 43619796 44080508 44555100 45044112 
966.644 45546700 46060404 46583128 47112908 47649880 48195808 48752732 
970.019 49322916 49907412 50507064 51122644 51756192 52411076 53091512 
973.394 53801292 54543000 55316804 56121728 56956712 57821920 58719952 
976.768 59655428 60633228 61656924 62727020 63841320 64995588 66185920 
980.143 67409904 68667264 69958560 71284320 72643160 74032352 75449176 
983.518 76892640 78365672 79874856 81430432 83042544 84721032 86474344 
986.893 88309648 90235520 92262040 94400664 96664272 99063672 101606552 
990.268 104297600 107138600 110130384 113271896 116558432 119978680 
993.160 123508728 127112728 130742576 134340672 137851440 141222928 
996.053 144409696 147376768 150093088 152530832 154666480 156479296 
998.946 157954368 159082320 159856208 160269728 160315104 159985520 
1001.839 159281664 158218576 156834512 155188432 153355472 151423600 
1004.731 149475760 147588624 145832320 144264640 142938816 141904480 
1007.624 141201776 140864160 140912960 141355680 142187872 143394704 
1010.517 144955776 146843072 149020768 151444976 154054032 156773088 
1013.409 159520464 162207056 164755488 167107152 169224720 171097600 
1016.302 172738896 174185120 175489328 176720400 177957872 179273744 
1019.195 180725440 182340048 184106768 185977360 187876208 189724416 
1022.087 191452592 193021200 194427824 195704336 196908224 198107856 
1024.980 199379168 200791664 202401744 204251008 206355040 208700112 
1027.873 211237472 213892640 216571632 219171248 221603744 223798864 
1030.766 225710272 227317296 228620688 229642704 230424512 231031328 
1033.659 231545392 232047552 232608064 233257456 233974176 234675136 
1036.552 235227536 235474400 235245952 234399920 232837792 230510384 
1039.446 227428736 223660736 219332896 214607568 209676624 204740336 
1042.339 199964896 195477504 191346592 187577248 184123936 180904912 
1045.232 177829264 174805024 171758544 168644272 165443360 162167296 
1048.125 158854032 155565488 152374016 149347968 146542592 143982848 
1051.018 141660016 139533360 137544480 135628976 133730384 131813528 
1053.911 129862384 127875880 125857744 123806768 121710648 119546448 
1056.804 117282592 114886864 112336792 109623352 106758096 103772704 
1059.697 100721160 97671312 94696056 91870848 89258536 86905872 84843792 
1063.072 83085232 81630472 80472432 79601152 79006632 78679424 78611432 
1066.448 78793224 79213800 79861440 80723832 81789928 83051048 84498704 
1069.823 86121904 87905608 89825568 91849440 93940280 96055992 98156896 
1073.198 100209328 102184584 104063936 105836904 107502032 109064296 
1076.091 110531888 111911328 113200464 114385672 115442448 116344416 
1078.984 117073032 117632072 118054440 118407976 118786056 119288224 
1081.877 120016200 121052064 122449528 124236464 126411856 128951016 
1084.770 131805672 134911680 138193600 141566416 144953600 148292192 
1087.663 151536688 154660432 157642064 160447216 163018832 165262960 
1090.556 167053552 168261024 168764432 168485616 167409184 165588432 
1093.449 163141872 160227920 157040288 153769920 150579488 147601760 
1096.343 144913904 142539456 140451488 138583168 136838304 135100512 
1099.236 133258448 131209312 128870008 126193104 123166856 119821656 
1102.129 116224240 112475136 108694072 104995464 101486784 98249744 95332720 
1105.504 92759488 90528304 88621776 87011488 85664768 84548056 83624616 
1108.879 82858768 82213784 81650192 81129104 80610048 80049048 79403432 
1112.254 78629736 77687008 76545552 75188216 73616288 71848720 69920848 
1115.630 67878088 65765968 63630396 61511064 59439416 57443628 55548052 
1119.005 53773840 52143264 50676752 49393484 48310964 47441492 46789960 
1122.380 46350884 46106052 46022536 46052004 46139620 46226296 46259096 
1125.755 46204072 46048100 45802300 45494928 45165604 44852144 44580436 
1129.131 44362288 44193508 44058388 43934864 43801216 43639656 43435564 
1132.506 43178612 42859668 42469380 41998916 41440120 40786380 40034860 
1135.881 39187224 38250620 37237296 36165356 35058016 33939588 32836900 
1139.256 31774610 30772708 29846928 29007624 28260140 27607286 27050402 
1142.632 26590422 26227922 25962724 25792122 25710590 25710204 25780872 
1146.007 25910772 26088036 26299658 26530506 26764440 26983264 27168904 
1149.382 27306418 27385674 27403286 27362454 27272054 27144460 26992926 
1152.757 26831506 26673424 26530190 26412320 26327468 26279910 26269736 
1156.133 26293672 26345422 26417496 26503528 26598702 26699778 26804368 
1159.508 26910076 27013024 27109542 27195642 27268454 27326850 27370712 
1162.883 27400638 27417120 27420436 27411226 27391286 27364642 27337118 
1166.258 27315558 27307054 27317322 27349892 27407662 27492866 27608524 
1169.634 27758964 27948644 28181432 28459344 28782500 29149692 29559792 
1173.009 30013022 30511902 31060826 31664468 32327238 33052192 33840896 
1176.384 34694584 35614408 36601852 37658500 38784604 39979636 41241796 
1179.759 42569392 43961368 45418292 46941252 48530772 50186012 51904520 
1183.135 53683732 55524108 57430736 59416128 61498888 63700600 66042744 
1186.510 68541152 71201048 74012312 76944808 79947424 82938536 85814272 
1189.885 88455120 90729472 92522808 93751792 94375952 94407088 93903552 
1193.260 92961664 91687968 90191152 88563912 86867264 85135168 83374352 
1196.635 81573536 79714512 77783664 75781584 73727000 71656848 69618176 
1200.011 67666464 65852604 64216696 62787732 61579100 60591320 59814160 
1203.386 59230272 58816460 58544596 58384772 58303860 58267256 58244368 
1206.761 58208260 58138860 58025080 57862344 57650972 57393976 57095300 
1210.136 56759104 56390420 55996304 55586388 55172948 54771436 54398988 
1213.512 54073728 53815768 53645188 53582212 53647704 53859576 54233700 
1216.887 54782296 55513712 56434416 57549956 58866204 60390076 62128192 
1220.262 64084992 66261216 68653680 71256760 74064136 77071048 80275360 
1223.637 83675272 87267424 91043424 94986872 99073200 103269424 107529528 
1227.013 111797512 116000984 120045432 123825048 127218720 130099040 
1229.906 132353368 133883104 134618000 134526624 133619848 131962072 
1232.799 129665016 126899440 123876352 120818440 117965176 115532968 
1235.692 113700544 112620344 112400912 113117088 114820000 117536288 
1238.585 121271264 126001656 131674496 138192096 145400128 153105088 
1241.478 161053968 168943184 176456832 183248576 188981504 193377248 
1244.371 196222240 197414576 196971120 195026224 191805504 187583984 
1247.264 182685424 177429792 172113136 167007648 162310704 158133008 
1250.157 154483392 151262720 148276384 145257920 141942560 138095968 
1253.050 133568288 128327712 122453384 116119936 109542968 102961872 
1255.943 96590560 90583280 85043272 80010360 75475160 71394752 67709872 
1259.319 64359540 61285928 58444360 55803128 53339828 51041548 48899704 
1262.694 46906552 45054220 43332932 41731612 40240484 38851812 37561668 
1266.069 36369156 35275528 34281732 33386766 32586958 31877294 31252560 
1269.444 30709084 30244646 29858212 29547838 29310028 29138992 29027746 
1272.820 28969546 28958778 28990482 29059876 29160216 29282556 29416560 
1276.195 29552484 29682952 29805582 29921926 30037238 30157622 30289302 
1279.570 30438400 30610162 30810660 31044774 31313982 31613826 31931818 
1282.945 32248504 32538924 32780904 32959886 33073146 33130538 33151958 
1286.321 33163652 33189762 33251282 33363472 33534642 33768976 34066256 
1289.696 34422700 34830592 35278976 35755808 36249160 36750072 37253940 
1293.071 37759548 38267156 38776052 39283040 39782304 40267928 40734808 
1296.446 41181136 41608156 42019352 42417900 42806500 43186956 43561076 
1299.822 43932148 44305116 44684980 45074912 45473812 45875428 46267872 
1303.197 46635916 46964732 47239708 47448812 47582404 47632648 47594676 
1306.572 47467364 47255964 46972004 46633480 46263152 45883416 45514208 
1309.947 45170716 44861884 44592628 44365588 44181368 44040020 43938784 
1313.323 43871736 43828776 43796888 43762988 43714728 43642840 43540964 
1316.698 43404108 43228496 43011208 42751724 42453228 42123720 41776152 
1320.073 41425176 41084244 40763524 40467736 40198136 39954824 39740296 
1323.448 39560748 39427352 39352616 39350692 39435404 39617804 39908836 
1326.823 40316028 40840836 41473872 42189368 42945472 43680980 44328456 
1330.199 44825328 45121448 45193180 45044628 44706868 44227188 43663284 
1333.574 43074576 42511180 42015852 41622052 41351552 41218188 41227220 
1336.949 41377464 41663988 42081772 42629040 43308548 44126312 45088076 
1340.324 46195560 47442748 48814308 50283020 51810656 53346644 54822748 
1343.700 56162868 57284856 58108328 58574060 58647092 58321332 57616084 
1347.075 56569628 55230664 53647780 51872932 49958524 47956448 45926064 
1350.450 43929768 42025960 40270984 38706284 37354384 36220816 35295256 
1353.825 34558548 33987168 33558588 33252322 33047616 32925426 32867778 
1357.201 32860450 32896190 32975222 33103396 33287912 33533852 33840572 
1360.576 34203824 34618112 35082620 35604480 36199964 36890328 37697060 
1363.951 38641120 39740188 41011408 42473324 44141460 46020912 48092860 
1367.326 50306644 52571260 54755872 56718328 58315420 59427716 59983564 
1370.702 59958952 59382200 58321748 56885960 55208576 53425888 51679640 
1374.077 50089056 48735900 47663488 46874548 46346276 46045412 45946468 
1377.452 46040768 46340892 46878316 47700540 48868740 50445284 52487868 
1380.827 55030904 58062004 61492704 65134764 68724824 71920504 74364728 
1384.203 75761424 75890672 74667224 72152672 68576224 64303784 59765568 
1387.578 55405400 51555900 48397520 45970004 44204076 42979012 42160304 
1390.953 41636420 41321120 41153232 41095316 41123544 41223180 41386648 
1394.328 41610308 41893556 42237204 42642748 43111276 43641856 44229976 
1397.704 44865444 45532568 46208716 46870676 47500336 48088496 48636384 
1401.079 49152496 49648236 50133532 50615916 51101364 51595452 52105344 
1404.454 52638808 53201608 53796080 54418932 55063780 55723072 56391704 
1407.829 57068584 57755188 58453152 59161808 59876568 60590256 61296688 
1411.205 61992688 62679200 63358752 64032040 64694524 65336368 65945000 
1414.580 66511116 67031024 67507240 67944296 68342392 68692920 68979840 
1417.955 69187048 69312488 69377408 69429344 69524720 69704064 69982424 
1421.330 70346784 70769512 71221848 71689984 72181704 72726976 73367088 
1424.706 74141240 75077088 76183456 77458160 78893616 80482568 82213344 
1428.081 84059672 85976000 87889136 89707088 91342880 92727864 93833592 
1431.456 94675248 95308952 95815648 96280344 96788760 97416224 98232504 
1434.831 99315152 100748192 102616152 104986944 107878632 111252992 
1437.724 115027008 119095384 123341080 127623544 131779776 135590928 
1440.617 138794608 141142336 142413184 142472784 141291904 138933424 
1443.510 135529824 131244424 126265064 120771184 114918936 108858920 
1446.404 102730688 96683936 90903824 85587040 80915520 77019688 73941160 
1449.779 71643984 70041520 69039688 68559696 68547472 68970864 69800360 
1453.154 71001536 72542784 74396264 76553648 79030048 81840968 84974248 
1456.529 88352368 91824424 95204192 98335752 101135416 103585544 105706672 
1459.905 107532416 109100160 110445824 111600480 112584952 113399560 
1462.798 114018288 114397528 114490632 114277240 113782864 113082096 
1465.691 112271104 111428712 110600920 109794056 108991168 108166640 
1468.584 107295776 106350968 105288400 104037160 102498752 100561536 
1471.477 98151032 95277840 92069248 88734504 85492992 82498072 79803896 
1474.852 77394440 75231192 73295928 71611984 70238520 69239312 68666608 
1478.227 68541616 68859808 69609392 70787136 72407008 74497112 77085136 
1481.603 80183528 83779784 87840904 92326464 97199784 102443920 108054104 
1484.978 114018248 120301144 126803640 133334608 139624608 145307136 
1487.871 149957184 153164144 154562608 153927072 151241824 146732928 
1490.764 140835200 134069976 126954064 119868240 113023344 106509432 
1493.657 100318432 94410712 88770848 83426704 78459384 73982648 70098128 
1497.032 66858424 64250620 62218540 60684740 59578876 58853684 58479992 
1500.407 58440416 58720256 59300268 60153948 61250060 62544404 63979784 
1503.783 65481864 66928776 68147840 68910632 68949584 68055664 66176660 
1507.158 63460208 60176784 56594540 52896520 49170864 45457876 41790996 
1510.533 38210028 34781880 31583540 28676230 26100950 23865336 21949782 
1513.908 20319588 18933824 17751962 16731817 15834462 15029638 14299542 
1517.284 13646127 13084652 12633217 12298604 12067701 11904105 11759805 
1520.659 11587239 11362868 11100543 10843640 10639993 10515019 10465461 
1524.034 10465733 10484876 10497673 10495399 10485725 10485996 10510708 
1527.409 10564142 10640163 10729748 10829746 10946859 11095444 11290327 
1530.785 11537660 11829906 12144462 12449359 12716357 12931356 13102887 
1534.160 13255388 13418811 13613064 13842637 14101251 14377726 14662705 
1537.535 14947290 15221970 15472206 15672704 15792092 15805734 15711866 
1540.910 15535835 15319713 15104488 14911351 14738796 14567475 14373548 
1544.286 14140786 13871098 13584586 13311723 13079462 12899202 12765285 
1547.661 12659041 12559474 12449392 12323113 12186103 12049714 11923925 
1551.036 11811146 11707007 11603607 11495368 11382937 11273528 11178697 
1554.411 11109992 11073859 11071412 11098979 11149765 11210384 11255199 
1557.787 11244964 11128008 10865654 10464104 9981275 9498338 9077511 8748365 
1561.644 8509001 8338970 8210706 8098312 7984226 7862512 7739819 7630717 
1565.501 7550164 7505527 7494402 7506235 7527643 7545579 7550164 7536678 
1569.359 7504786 7457760 7403089 7351459 7316109 7309774 7343236 7421054 
1573.216 7540724 7690104 7850399 8000662 8122956 8211855 8278075 8345489 
1577.074 8438014 8572834 8758169 8997163 9294170 9657811 10099854 10632455 
1580.931 11263564 11994087 12817598 13721628 14689919 15699672 16719043 
1584.306 17707576 18612066 19377100 19956210 20318026 20458148 20399698 
1587.682 20195130 19915170 19643122 19468818 19470966 19716138 20252164 
1591.057 21099188 22244936 23634884 25176916 26734558 28142544 29239920 
1594.432 29876102 29947486 29417022 28319764 26757990 24872816 22829492 
1597.807 20775958 18826614 17064766 15533740 14247906 13200120 12369782 
1601.183 11730903 11258089 10934116 10750024 10704990 10802875 11047620 
1604.558 11439642 11973140 12633899 13396291 14223905 15061573 15839960 
1607.933 16484194 16917018 17077448 16930384 16471047 15728530 14759877 
1611.308 13648110 12480456 11337190 10281873 9348605 8547792 7870778 7297812 
1615.166 6802905 6360102 5951507 5568702 5215677 4905427 4651861 4463817 
1619.023 4342014 4279703 4263775 4279368 4310154 4342181 4366612 4378762 
1622.881 4378963 4370361 4356773 4342047 4329531 4322770 4324912 4337964 
1626.738 4360655 4388234 4413338 4428501 4430610 4422342 4412534 4412367 
1630.595 4432082 4477543 4548922 4641914 4749263 4862871 4972419 5066072 
1634.453 5129066 5144892 5102312 5001981 4859286 4698784 4545105 4415045 
1638.310 4313869 4238044 4178123 4124533 4070447 4015933 3966710 3931936 
1642.168 3919732 3933774 3971993 4027939 4092656 4155241 4204821 4230549 
1646.025 4221951 4172269 4082020 3962697 3834816 3723449 3652840 3638439 
1649.883 3687859 3797880 3955441 4132761 4287499 4372235 4350715 4225129 
1653.740 4035798 3837023 3665203 3532366 3436138 3368814 3323904 3296827 
1657.597 3284908 3285142 3293555 3305407 3316258 3322535 3321701 3311117 
1661.455 3286577 3243178 3176719 3087644 2983574 2878695 2790849 2734528 
1665.312 2718323 2742397 2799786 2877094 2958853 3030484 3079468 3098089 
1669.170 3084140 3040561 2974433 2896974 2822063 2762804 2730260 2729393 
1673.027 2756835 2799886 2837471 2847777 2815293 2740463 2639510 2538147 
1676.885 2458833 2411918 2396791 2404821 2426245 2454834 2491423 2542246 
1680.742 2615975 2716856 2841006 2972031 3083973 3143543 3122084 3012000 
1684.599 2833869 2628509 2433775 2273068 2152277 2066508 2006387 1961984 
1688.457 1924674 1886668 1843276 1793233 1740867 1695327 1668384 1671444 
1692.314 1710662 1785348 1885870 1995535 2093109 2157239 2177152 2157738 
1696.172 2121077 2093509 2095440 2133131 2198298 2269937 2318403 2313606 
1700.029 2236431 2093376 1915289 1742897 1606190 1517004 1473482 1464406 
1703.886 1474313 1485418 1483090 1458854 1413277 1355705 1299072 1255040 
1707.744 1230251 1225134 1236000 1258496 1289567 1330179 1383991 1456493 
1711.601 1551253 1669515 1808272 1962183 2125772 2293853 2462398 2627842 
1715.459 2783312 2917955 3017271 3066788 3058846 2998454 2903411 2796918 
1719.316 2700586 2628576 2585309 2568977 2574043 2594275 2623176 2655178 
1723.174 2685416 2710221 2727493 2737495 2743364 2750300 2763638 2787147 
1727.031 2821329 2862552 2904645 2941639 2971197 2995718 3022243 3059480 
1730.888 3113073 3182026 3255830 3313554 3329781 3279667 3152621 2961922 
1734.746 2742497 2535347 2369206 2257247 2197233 2178650 2186443 2205125 
1738.603 2220145 2220012 2200430 2164498 2121677 2082788 2056954 2048697 
1742.461 2057087 2078127 2106294 2137992 2172923 2214350 2266407 2332793 
1746.318 2413950 2506986 2605775 2703687 2795417 2877094 2945809 2997753 
1750.176 3027448 3029249 3000189 2943975 2870890 2795717 2733094 2691784 
1754.033 2672647 2668246 2666113 2651344 2612742 2547246 2461065 2366807 
1757.890 2277432 2202428 2144086 2098636 2058019 2012878 1955427 1880545 
1761.748 1787743 1681024 1568910 1461214 1368934 1300667 1261686 1252049 
1765.605 1266704 1296446 1329880 1357201 1374817 1385819 1399182 1423781 
1769.463 1465436 1522224 1585205 1640113 1673074 1675769 1649925 1606722 
1773.320 1560763 1525383 1507329 1507661 1524286 1554512 1596612 1649526 
1777.177 1712392 1782453 1854789 1923476 1982221 2026493 2055322 2071103 
1781.035 2078760 2083421 2089381 2097970 2108591 2118980 2126205 2128170 
1784.892 2123674 2113752 2101366 2091145 2088848 2100068 2129368 2177985 
1788.750 2243758 2319669 2396192 2460832 2501587 2509186 2479526 2415116 
1792.607 2324166 2218647 2110889 2009516 1919948 1843908 1780291 1726629 
1796.465 1679926 1637352 1596944 1558036 1520961 1486116 1453767 1422285 
1800.322 1388412 1348891 1301099 1245669 1186226 1128785 1079954 1044380 
1804.179 1023722 1015850 1017411 1024153 1033586 1045675 1062150 1084870 
1808.037 1114500 1149249 1185661 1219884 1248427 1270060 1285314 1296081 
1811.894 1304356 1312133 1321173 1332971 1350121 1374751 1408423 1450675 
1815.752 1499116 1549424 1596845 1637818 1671345 1698454 1721872 1743695 
1819.609 1765186 1786546 1807507 1828868 1852260 1879380 1910596 1943345 
1823.467 1971603 1987680 1986015 1965911 1933427 1899015 1874222 1866702 
1827.324 1877384 1900047 1923309 1936189 1930764 1906203 1868699 1828868 
1831.181 1796427 1777629 1774036 1783751 1804179 1833260 1869996 1914523 
1835.039 1966277 2024163 2086218 2150945 2218180 2289789 2369339 2460732 
1838.896 2567210 2690917 2831835 2989312 3161866 3347277 3541920 3740460 
1842.754 3935613 4119883 4288403 4440987 4583176 4723437 4869338 5024506 
1846.611 5187107 5350472 5506081 5647076 5768642 5869720 5951709 6015839 
1850.469 6061600 6086766 6087237 6059987 6004585 5923728 5822704 5707334 
1854.326 5582463 5450347 5311864 5166585 5015054 4859152 4701531 4544704 
1858.183 4389941 4237107 4085230 3934410 3786282 3643417 3509484 3387113 
1862.041 3276528 3176418 3085275 3002658 2930865 2874693 2838738 2826198 
1865.898 2836170 2863719 2900143 2936235 2964358 2980138 2982940 2974867 
1869.756 2959787 2941306 2922558 2905846 2892871 2884932 2881697 2881263 
1873.613 2880830 2876594 2866521 2850412 2830367 2809390 2789948 2772007 
1877.470 2753067 2728560 2694151 2647977 2591109 2526682 2458799 2390261 
1881.328 2321234 2250020 2175087 2095973 2015175 1937720 1869164 1813895 
1885.185 1773637 1747488 1733050 1728093 1730854 1740468 1755638 1773204 
1889.043 1788176 1796061 1793998 1783285 1769611 1760263 1761793 1777430 
1892.900 1805111 1839382 1873823 1903874 1928501 1950967 1975797 2006553 
1896.758 2044536 2087549 2131966 2175653 2218180 2261144 2308043 2361110 
1900.615 2420814 2485825 2553811 2622875 2691984 2760837 2828433 2893238 
1904.472 2951781 3001323 3040561 3071293 3096921 3121683 3147682 3173348 
1908.330 3193975 3203188 3197346 3176519 3145913 3112539 3083573 3062450 
1912.187 3048202 3037591 3027448 3017004 3009197 3008496 3017271 3033387 
1916.045 3050204 3056243 3041362 3000656 2937036 2860584 2783345 2715389 
1919.902 2660212 2615142 2573576 2528615 2477294 2420247 2361843 2306877 
1923.760 2258479 2216881 2180049 2145917 2113120 2083055 2057353 2037246 
1927.617 2022565 2012412 2004922 1999929 1998631 2003025 2013810 2030022 
1931.474 2047599 2061548 2068006 2065609 2056521 2045102 2034616 2026193 
1935.332 2018470 2007752 1991608 1970937 1949502 1933493 1929000 1937720 
1939.189 1957490 1984118 2011846 2036646 2057686 2075431 2089647 2099668 
1943.047 2102399 2095407 2079492 2058718 2040475 2032119 2037246 2054124 
1946.904 2076363 2095507 2105395 2105795 2102199 2102199 2112887 2135928 
1950.761 2167928 2202594 2235232 2264741 2296018 2335092 2385130 2443172 
1954.619 2499321 2540380 2554978 2538947 2496055 2438307 2379567 2330195 
1958.476 2295485 2274434 2262610 2256315 2255582 2261477 2275433 2296817 
1962.334 2321201 2343254 2359611 2370871 2382532 2400790 2429544 2466364 
1966.191 2504753 2534681 2549512 2549979 2543080 2539547 2547745 2570043 
1970.049 2601242 2632843 2656745 2669447 2675281 2681282 2692851 2711188 
1973.906 2731894 2747599 2754134 2752534 2750466 2757669 2781445 2819428 
1977.763 2862185 2895406 2906747 2891503 2853780 2801420 2743764 2686450 
1981.621 2629642 2570776 2509019 2446071 2389062 2346285 2322733 2319535 
1985.478 2331361 2350583 2369672 2387296 2405521 2429277 2463931 2509385 
1989.336 2562244 2618542 2674847 2732394 2796084 2871624 2961088 3061783 
1993.193 3164369 3258367 3336358 3395729 3440279 3476884 3511756 3547432 
1997.051 3582743 3613747 3637403 3653742 3665270 3675695 3686890 3697282 
2000.908 3701794 3695745 3676564 3644854 3605896 3564235 3520541 3471640 
2004.765 3411124 3332719 3236468 3130560 3028516 2946310 2895706 2877528 
2008.623 2883531 2900910 2915820 2921491 2917555 2909449 2903778 2905680 
2012.480 2916754 2936535 2967127 3010799 3071993 3153422 3252826 3360733 
2016.338 3464460 3550405 3610339 3645255 3662897 3674259 3688561 3710516 
2020.195 3738789 3769436 3798850 3826125 3852199 3879011 3904018 3921938 
2024.052 3926653 3912911 3882220 3843040 3805735 3780934 3772211 3774216 
2027.910 3775653 3763654 3730801 3677968 3614683 3551474 3499430 3463558 
2031.767 3442817 3432898 3432431 3442450 3466564 3509351 3568979 3639341 
2035.625 3711118 3774249 3824287 3863933 3899872 3939993 3989147 4045965 
2039.482 4104898 4161463 4212716 4261600 4314103 4375716 4446577 4521400 
2043.340 4589372 4638398 4661741 4657990 4631599 4590376 4541489 4489193 
2047.197 4434928 4379532 4323975 4272207 4227873 4192509 4163470 4134434 
2051.054 4096903 4045463 3980052 3906091 3833981 3774517 3733910 3712788 
2054.912 3706138 3705537 3703498 3696347 3684517 3671151 3659790 3652539 
2058.769 3650267 3653274 3662430 3679371 3706239 3742398 3783809 3823785 
2062.627 3853670 3867510 3864435 3848990 3829368 3813858 3807975 3811418 
2066.484 3820142 3827997 3831474 3829635 3825724 3822749 3823217 3825791 
2070.342 3826393 3820376 3804933 3779931 3748648 3715061 3681978 3648964 
2074.199 3613714 3572487 3523647 3468568 3410489 3354890 3306008 3265612 
2078.056 3232462 3204790 3179222 3154090 3129326 3104697 3079869 3054842 
2081.914 3028382 3000656 2973198 2948445 2928830 2915920 2908381 2903211 
2085.771 2896540 2885533 2869689 2851612 2834770 2821730 2813726 2809023 
2089.629 2804188 2796584 2784946 2770107 2754301 2740096 2728026 2717957 
2093.486 2708954 2700819 2695051 2694185 2699752 2711388 2725025 2734861 
2097.344 2734861 2722925 2700552 2674247 2652478 2641443 2643510 2657245 
2101.201 2677215 2699019 2719690 2739996 2762504 2789348 2820162 2851646 
2105.058 2879696 2900476 2912918 2919790 2925894 2935902 2952581 2975701 
2108.916 3003091 3033387 3066788 3105030 3151086 3206693 3270018 3336792 
2112.773 3400872 3457546 3505309 3546563 3585616 3627479 3674960 3727426 
2116.631 3783107 3839664 3896562 3954840 4017438 4085431 4157716 4230750 
2120.488 4299446 4360120 4412400 4458327 4502953 4550697 4602130 4654641 
2124.345 4702904 4741090 4764706 4773751 4770368 4758174 4740118 4716670 
2128.203 4686592 4648110 4600154 4543364 4480756 4415647 4350749 4287700 
2132.060 4227003 4169024 4115902 4070280 4034260 4009914 3995166 3986004 
2135.918 3978079 3967512 3953535 3938221 3924479 3913379 3904118 3892550 
2139.775 3873962 3846383 3811284 3772979 3738354 3711986 3694442 3682178 
2143.633 3670082 3652806 3629885 3604960 3582977 3569079 3564536 3565672 
2147.490 3567375 3563600 3553445 3538913 3525652 3518102 3517869 3523313 
2151.347 3528558 3528157 3518236 3498094 3468701 3431295 3385511 3330282 
2155.205 3266780 3200384 3141641 3105598 3108000 3156860 3251624 3378665 
2159.062 3518771 3652806 3767465 3857715 3925850 3975704 4009379 4028173 
2162.920 4032755 4024327 4008844 3994096 3986205 3988211 3997474 4007239 
2166.777 4010114 4002757 3985870 3966342 3952365 3949088 3957414 3973197 
2170.635 3989816 4001252 4006469 4006904 4006871 4010516 4018207 4028541 
2174.492 4038741 4047035 4054527 4064795 4079578 4098108 4115501 4123630 
2178.349 4114732 4087337 4044962 3997574 3957548 3934878 3933072 3949924 
2182.207 3977912 4008777 4037537 4062788 4085331 4107808 4131624 4156010 
2186.064 4181034 4206895 4236003 4271806 4315575 4365475 4415848 4458796 
2189.922 4487753 4500709 4502919 4502618 4510452 4533487 4571457 4618807 
2193.779 4665860 4703909 4728495 4741056 4746315 4751574 4761892 4778475 
2197.636 4798977 4820252 4838445 4851278 4858214 4858783 4852785 4840355 
2201.494 4822396 4801122 4781088 4767487 4764304 4773148 4791641 4814858 
2205.351 4837473 4855566 4867797 4876743 4886327 4899261 4917659 4940514 
2209.209 4966253 4993133 5020718 5048507 5076163 5101910 5122696 5134967 
2213.066 5136878 5128228 5113208 5097920 5088164 5087762 5097987 5116628 
2216.924 5139862 5165077 5189923 5214101 5237978 5260246 5278961 5292008 
2220.781 5297106 5294423 5286943 5277988 5271448 5269268 5270744 5273225 
2224.638 5274098 5271247 5264137 5254210 5242807 5229795 5214537 5195054 
2228.496 5169670 5139024 5105799 5073582 5046663 5027690 5017031 5014249 
2232.353 5017735 5026852 5042071 5064262 5093025 5127155 5163098 5196563 
2236.211 5224362 5245188 5260112 5272086 5284696 5300124 5319411 5342053 
2240.068 5366943 5393646 5421895 5451655 5482156 5511651 5536988 5554942 
2243.926 5564675 5566253 5562426 5557057 5553298 5552828 5555915 5561621 
2247.783 5568400 5576052 5584611 5594277 5604715 5614348 5621532 5624922 
2251.640 5625694 5626499 5631836 5645700 5669198 5700821 5735469 5767030 
2255.498 5790265 5802958 5805611 5801112 5792952 5783248 5772872 5761859 
2259.355 5749536 5737517 5728082 5723885 5726974 5737517 5754069 5773779 
2263.213 5795101 5817331 5841711 5870325 5904046 5942337 5982312 6019770 
2267.070 6050882 6073931 6089220 6098897 6106155 6113750 6123596 6136735 
2270.927 6153606 6174308 6199313 6228118 6258740 6288457 6313368 6330178 
2274.785 6337642 6336499 6329741 6321874 6316629 6316024 6320361 6327925 
2278.642 6336734 6345610 6353982 6362287 6371265 6381486 6392885 6405495 
2282.500 6419416 6435390 6453886 6475746 6500130 6525961 6551323 6574836 
2286.357 6595862 6615576 6635728 6658607 6685592 6716751 6750907 6786918 
2290.215 6823739 6861405 6900690 6942705 6987957 7036010 7085414 7134082 
2294.072 7180635 7224092 7264522 7302091 7337237 7370196 7400798 7429548 
2297.929 7457053 7484795 7513888 7544668 7576665 7607820 7635505 7657829 
2301.787 7673714 7684101 7690644 7695736 7700795 7706495 7712397 7717355 
2305.644 7721065 7723696 7725889 7728520 7731960 7735974 7739246 7741438 
2309.502 7741910 7741573 7741775 7743698 7747880 7754053 7760901 7767242 
2313.359 7772639 7777665 7783839 7792542 7804652 7819597 7835960 7851546 
2317.217 7864266 7872498 7875299 7872398 7863996 7850703 7833902 7815751 
2321.074 7799154 7787347 7782455 7784513 7791429 7799255 7803067 7799390 
2324.931 7786976 7767343 7744170 7721673 7703595 7691183 7683966 7679784 
2328.789 7676445 7672162 7667104 7661978 7658201 7656649 7657897 7661640 
2332.646 7667845 7676681 7688890 7705112 7725788 7750579 7778306 7807925 
2336.504 7838456 7869833 7902191 7936137 7971571 8007581 8042785 8075662 
2340.361 8105470 8132342 8157359 8181534 8205878 8229819 8252275 8271760 
2344.219 8288309 8303304 8319854 8342483 8376024 8423690 8487375 8566548 
2348.076 8659018 8761279 8869077 8978051 9084143 9183932 9275079 9356663 
2351.933 9429357 9494646 9554730 9611569 9666383 9719917 9773050 9826664 
2355.791 9882455 9942998 10009992 10085237 10169417 10262365 10364054 
2359.166 10474965 10595717 10726725 10866911 11013430 11160542 11302161 
2362.541 11432463 11548106 11649109 11738630 11821223 11901006 11980054 
2365.917 12058060 12132366 12199358 12255898 12300173 12330885 12347384 
2369.292 12349770 12337874 12312614 12276449 12233779 12190158 12151618 
2372.667 12123303 12108584 12109061 12125586 12158467 12209105 12279585 
2376.042 12371861 12487344 12626019 12786578 12966790 13164531 13378830 
2379.417 13609303 13856011 14118057 14392796 14675969 14962242 15245855 
2382.793 15521892 15786767 16037706 16272452 16488049 16680960 16847332 
2386.168 16984062 17089338 17163198 17207530 17225422 17219630 17192808 
2389.543 17146448 17081928 17000360 16902996 16791602 16667841 16532861 
2392.918 16387943 16233891 16072260 15905155 15736088 15569009 15408552 
2396.294 15259171 15124490 15007788 14911899 14838899 14790010 14766048 
2399.669 14766493 14789667 14833893 14897119 14978258 15077730 15195891 
2403.044 15333820 15491538 15667345 15858656 16062323 16276028 16498649 
2406.419 16730957 16975036 17233246 17507826 17799872 18109734 18437378 
2409.795 18782464 19144066 19521042 19910420 20307540 20706692 21100718 
2413.170 21482286 21844578 22181188 22485924 22753370 22978008 23155930 
2416.545 23285118 23366546 23404240 23404626 23375812 23324310 23255930 
2419.920 23173266 23077058 22966620 22840668 22698832 22542002 22372146 
2423.296 22192034 22005722 21817644 21632538 21456004 21293184 21148652 
2426.671 21026704 20930590 20863002 20826118 20822642 20854448 20923392 
2430.046 21030460 21174604 21353146 21562820 21799664 22060344 22342702 
2433.421 22645490 22968506 23311128 23673232 24054234 24454184 24873798 
2436.797 25314858 25779252 26268750 26783962 27324910 27890730 28481102 
2440.172 29096688 29739898 30414342 31123790 31871658 32659360 33486966 
2443.547 34353052 35255080 36189808 37153732 38143132 39154084 40182980 
2446.922 41226968 42284244 43354096 44435980 45528776 46630052 47735228 
2450.298 48838260 49932576 51011808 52069636 53100984 54100036 55059640 
2453.673 55972292 56828588 57619036 58335464 58969156 59511612 59954656 
2457.048 60287964 60501352 60585152 60531368 60335556 59997144 59518680 
2460.423 58904904 58161592 57294684 56310484 55215912 54019204 52730268 
2463.799 51360252 49922688 48431336 46901164 45348732 43789524 42240344 
2467.174 40717600 39235492 37807512 36444604 35155260 33946036 32821674 
2470.549 31784948 30837054 29977058 29201820 28505268 27879530 27315524 
2473.924 26803840 26336622 25907714 25512398 25147424 24809068 24493198 
2477.300 24195076 23909972 23633976 23365426 23104174 22851668 22609502 
2480.675 22378982 22160268 21953336 21757826 21573824 21402780 21246000 
2484.050 21104544 20978192 20865402 20763656 20670378 20584036 20504066 
2487.425 20431232 20366744 20311256 20264976 20227586 20198602 20178400 
2490.801 20168128 20169238 20182982 20209780 20248346 20296048 20350248 
2494.176 20408414 20468846 20531128 20594910 20659920 20725148 20789378 
2497.551 20850834 20908754 20962544 21012514 21059466 21103952 21146358 
2500.926 21187060 21226444 21264996 21303866 21343610 21384192 21425334 
2504.302 21465612 21504012 21540188 21574450 21608402 21643508 21680670 
2507.677 21719508 21758452 21795346 21828060 21855030 21875240 21887818 
2511.052 21891444 21883604 21861582 21822418 21764480 21688368 21596250 
2514.427 21491932 21379076 21260614 21138006 21011888 20882714 20751768 
2517.802 20621386 20494792 20375180 20264594 20163650 20071786 19987608 
2521.178 19910488 19840700 19779282 19728100 19688298 19660250 19643088 
2524.553 19635220 19635184 19642118 19655360 19675052 19701056 19733232 
2527.928 19770786 19812852 19858596 19907298 19957944 20009848 20062068 
2531.303 20114054 20166010 20219222 20275598 20337782 20407302 20484094 
2534.679 20566456 20650920 20734392 20814716 20892274 20969708 21050668 
2538.054 21139052 21236500 21342498 21454508 21569020 21683282 21795974 
2541.429 21907228 22018304 22130524 22244484 22359760 22475314 22590130 
2544.804 22703580 22816048 22927426 23038064 23148136 23256698 23363086 
2548.180 23466944 23567820 23665990 23761312 23853470 23941272 24023768 
2551.555 24099694 24168524 24230530 24286486 24337472 24384362 24427648 
2554.930 24467854 24505154 24539898 24572120 24601222 24626012 24644284 
2558.305 24653262 24650314 24633764 24603536 24560548 24506696 24443668 
2561.681 24372516 24293390 24206078 24110482 24007344 23898454 23786372 
2565.056 23673654 23562608 23454668 23350566 23250930 23156804 23069406 
2568.431 22990828 22922710 22866302 22822262 22790486 22770756 22763076 
2571.806 22767124 22783152 22810426 22847618 22892706 22943110 22997084 
2575.182 23053158 23110952 23170748 23232858 23297670 23364518 23432916 
2578.557 23502270 23572856 23645276 23720648 23799810 23883190 23970786 
2581.932 24062114 24156718 24254952 24357202 24464908 24578536 24698258 
2585.307 24823556 24952892 25085180 25219334 25354302 25489700 25624400 
2588.683 25756716 25884572 26005534 26118052 26221304 26316662 26406300 
2592.058 26492962 26579642 26668068 26759154 26852760 26948150 27044690 
2595.433 27141496 27238574 27336378 27436004 27539076 27647752 27764298 
2598.808 27890590 28027840 28176412 28335360 28503144 28678212 28859584 
2602.184 29046450 29239210 29438614 29645062 29858710 30079172 30305644 
2605.559 30537886 30775482 31018688 31267974 31523216 31783986 32048520 
2608.934 32314352 32578494 32837648 33088412 33327586 33552398 33759844 
2612.309 33947936 34114424 34257960 34377724 34473276 34544880 34593068 
2615.685 34618864 34623852 34609788 34578932 34534048 34477548 34412120 
2619.060 34339856 34262692 34182456 34100624 34019060 33939696 33864428 
2622.435 33794940 33732556 33677984 33631544 33593024 33562276 33538722 
2625.810 33522222 33512916 33511378 33518572 33536144 33565960 33609816 
2629.186 33669032 33744192 33834840 33939156 34054536 34178552 34308408 
2632.561 34442284 34579148 34718452 34860248 35005036 35152924 35304240 
2635.936 35459244 35618184 35780960 35947112 36115876 36286300 36457288 
2639.311 36627880 36797924 36967096 37135684 37303436 37469592 37632992 
2642.687 37792040 37945512 38092416 38233148 38368420 38499428 38628012 
2646.062 38755368 38882796 39011312 39142044 39276624 39416464 39563248 
2649.437 39718328 39882612 40056768 40240556 40434020 40636492 40847388 
2652.812 41065780 41290952 41521924 41758092 41999572 42246736 42500508 
2656.188 42761964 43032132 43311480 43599796 43896848 44201912 44514280 
2659.563 44833336 45158216 45487972 45821296 46156644 46492472 46827784 
2662.938 47162028 47495236 47827884 48160340 48493020 48825880 49159176 
2666.313 49493248 49828772 50167044 50509112 50856036 51208156 51565228 
2669.688 51927076 52293336 52664052 53039244 53419296 53803504 54190984 
2673.064 54579856 54967764 55352216 55731396 56103440 56466788 56820280 
2676.439 57162156 57490944 57806472 58109088 58401868 58688700 58974964 
2679.814 59266388 59567852 59883448 60216216 60568428 60942356 61340492 
2683.189 61764816 62217468 62700024 63212180 63753588 64322844 64918356 
2686.565 65538460 66181868 66847332 67533016 68237424 68958440 69694608 
2689.940 70444856 71208696 71986400 72778464 73585632 74408416 75247200 
2693.315 76102280 76974008 77862264 78766848 79687280 80622328 81570376 
2696.690 82529640 83499344 84478424 85466728 86464280 87470528 88485016 
2700.066 89506184 90532296 91561744 92592272 93621808 94647352 95665168 
2703.441 96670608 97658200 98621976 99555904 100454376 101311272 102120448 
2706.816 102875288 103568256 104192504 104741352 105209448 105593496 
2709.709 105891824 106104520 106232808 106278968 106245968 106136928 
2712.602 105955088 105703112 105382232 104992600 104533120 104001960 
2715.495 103397880 102720824 101972088 101155200 100274480 99335056 98342520 
2718.871 97302832 96222032 95107544 93967560 92810776 91646840 90484712 
2722.246 89333048 88199864 87092296 86016800 84979768 83986456 83041256 
2725.621 82148200 81309872 80527912 79804016 79139448 78535240 77992424 
2728.996 77511312 77091192 76731256 76429456 76183688 75992184 75853744 
2732.372 75767616 75732936 75748680 75812872 75922992 76075552 76266936 
2735.747 76493504 76751776 77038128 77349184 77680472 78026880 78382976 
2739.122 78742136 79097944 79444088 79774552 80084064 80368768 80626112 
2742.497 80855480 81058576 81238592 81399976 81547672 81686256 81819568 
2745.873 81950480 82081584 82215304 82353776 82499032 82652872 82815504 
2749.248 82986112 83163432 83345608 83532240 83723808 83923584 84135232 
2752.623 84364336 84616496 84896800 85209632 85559680 85949912 86383624 
2755.998 86862568 87387984 87959400 88574480 89229888 89920480 90639696 
2759.374 91379728 92131216 92883032 93623864 94340920 95021960 95656376 
2762.749 96234184 96747232 97189048 97553952 97837600 98037080 98151704 
2766.124 98183064 98135384 98015112 97829912 97588136 97298808 96970280 
2769.499 96611616 96232160 95841024 95447216 95059072 94683040 94323456 
2772.875 93983600 93664968 93368424 93094544 92843104 92613192 92402976 
2776.250 92208808 92025752 91847424 91667056 91476408 91267200 91030600 
2779.625 90757200 90438360 90067480 89640088 89156040 88618808 88036056 
2783.000 87417248 86773664 86116008 85454264 84796504 84149872 83519144 
2786.375 82908056 82319056 81752648 81208992 80687280 80186952 79707464 
2789.751 79249304 78812728 78398488 78006896 77637640 77290120 76963160 
2793.126 76655384 76365096 76090240 75828176 75575024 75326520 75077680 
2796.501 74823704 74560368 74284320 73992784 73683816 73355760 73006624 
2799.876 72635048 72240160 71821352 71378896 70913360 70425256 69915200 
2803.252 69383312 68829752 68255840 67663912 67057280 66440992 65820640 
2806.627 65201676 64589432 63988692 63403772 62839120 62299076 61787620 
2810.002 61309012 60866300 60461780 60096452 59770508 59483264 59233692 
2813.377 59020396 58841956 58696248 58581492 58495460 58436360 58402852 
2816.753 58394516 58411608 58454936 58525296 58623848 58750984 58907260 
2820.128 59092940 59308548 59554592 59831732 60139636 60477472 60843772 
2823.503 61236480 61652452 62088512 62540816 63004576 63474708 63944616 
2826.878 64406768 64853684 65277064 65668792 66021448 66328220 66582872 
2830.254 66780904 66919028 66995956 67012584 66971564 66877440 66735156 
2833.629 66550740 66330148 66079856 65806716 65518000 65220424 64919972 
2837.004 64621268 64326264 64035036 63746756 63460292 63175076 62892316 
2840.379 62614596 62344936 62086484 61841488 61611900 61398540 61203252 
2843.755 61028836 60879300 60760192 60677160 60634792 60635588 60678532 
2847.130 60759048 60867408 60990244 61110904 61209584 61266736 61264748 
2850.505 61189480 61032988 60794948 60482080 60106836 59686260 59240492 
2853.880 58788384 58348652 57937384 57566600 57245424 56978736 56767448 
2857.256 56608660 56496000 56420872 56372500 56340056 56313088 56282040 
2860.631 56239760 56181116 56103516 56006896 55893372 55766620 55631088 
2864.006 55491536 55352404 55217492 55090260 54973932 54871620 54786432 
2867.381 54721036 54677480 54656960 54659140 54683604 54728548 54792296 
2870.757 54872784 54967424 55073032 55186188 55302988 55420760 55538376 
2874.132 55656740 55778940 55909956 56054808 56217548 56400608 56604504 
2877.507 56828624 57071908 57334196 57615520 57916332 58236716 58575268 
2880.882 58928776 59293164 59663600 60035800 60406452 60773912 61136992 
2884.258 61495264 61847640 62192732 62528832 62853976 63166612 63465388 
2887.633 63749716 64018868 64272784 64511432 64735404 64945748 65144196 
2891.008 65333136 65514608 65691224 65865136 66037916 66211000 66385740 
2894.383 66562788 66743112 66927104 67115824 67310352 67512352 67724280 
2897.759 67949104 68189088 68446216 68720864 69012184 69317896 69635288 
2901.134 69962024 70296368 70637528 70985072 71338672 71697448 72060392 
2904.509 72425680 72792016 73158232 73524008 73889232 74254016 74618200 
2907.884 74981192 75342560 75702096 76060000 76416496 76771936 77126248 
2911.260 77477880 77823856 78159632 78479064 78774952 79039552 79265056 
2914.635 79444216 79571416 79643144 79659056 79621960 79538272 79417040 
2918.010 79268680 79104464 78934432 78766688 78606592 78457240 78318600 
2921.385 78188544 78063648 77939880 77813192 77680392 77539392 77388344 
2924.760 77226304 77051664 76862176 76655312 76428384 76179152 75907688 
2928.136 75615488 75306696 74986944 74662976 74341576 74028816 73729832 
2931.511 73448232 73186744 72947040 72730192 72537304 72370056 72230888 
2934.886 72123680 72053040 72023704 72039784 72103152 72212648 72364224 
2938.261 72550896 72765056 72998776 73245960 73503088 73768584 74042328 
2941.637 74324704 74614816 74910080 75205032 75491328 75757880 75991320 
2945.012 76176344 76298928 76346928 76312912 76195776 76001968 75744504 
2948.387 75439832 75106672 74761672 74414792 74070232 73723112 73362896 
2951.762 72973184 72536560 72037664 71465088 70814632 70089408 69300912 
2955.138 68465080 67601384 66730632 65870224 65034420 64233288 63472176 
2958.513 62753284 62076356 61439644 60840304 60274604 59739180 59230312 
2961.888 58745140 58281960 57840844 57423288 57031972 56670416 56341832 
2965.263 56048664 55793180 55576708 55400016 55263476 55166400 55106244 
2968.639 55077848 55074012 55084992 55100076 55109068 55103276 55076528 
2972.014 55026356 54953364 54861244 54756100 54646776 54543828 54457616 
2975.389 54398012 54371160 54377696 54410404 54454652 54489392 54488156 
2978.764 54425728 54280256 54037180 53691868 53249588 52724656 52136392 
2982.140 51508000 50862480 50218856 49593076 48995796 48433004 47907572 
2985.515 47420500 46973372 46568964 46212328 45909640 45666232 45482452 
2988.890 45350980 45252784 45158948 45031800 44829332 44515932 44066972 
2992.265 43475628 42754356 41934352 41059480 40174804 39323484 38537880 
2995.641 37835024 37219788 36685564 36220204 35808484 35436556 35093360 
2999.016 34770428 34461548 34162492 33870016 33582392 33298682 33019122 
3002.391 32744958 32477326 32217600 31966622 31725060 31493966 31274424 
3005.766 31068298 30877680 30704532 30549796 30413452 30294204 30189978 
3009.142 30098242 30016786 29943650 29877628 29817470 29762466 29712222 
3012.517 29666456 29625624 29590826 29563196 29544398 29535496 29537306 
3015.892 29549966 29573516 29607568 29651414 29704310 29764700 29830104 
3019.267 29897506 29963034 30022858 30073528 30112198 30136702 30145652 
3022.643 30138088 30113334 30071894 30015046 29945958 29869038 29790038 
3026.018 29715132 29649462 29596820 29558798 29534894 29522586 29518792 
3029.393 29519962 29522410 29523474 29520460 29511558 29495776 29472690 
3032.768 29442976 29407944 29369724 29330622 29292802 29258702 29229960 
3036.144 29208092 29194626 29190338 29195582 29210750 29235488 29269584 
3039.519 29312296 29363308 29421878 29487654 29559400 29636372 29717154 
3042.894 29800578 29885720 29971874 30058932 30146612 30234630 30321990 
3046.269 30407624 30490398 30569242 30644188 30715662 30784660 30851994 
3049.645 30917988 30982354 31043742 31100760 31151806 31195662 31231870 
3053.020 31260428 31281580 31295822 31303726 31306148 31304192 31299348 
3056.395 31293366 31287774 31284034 31283430 31286672 31294468 31307396 
3059.770 31325664 31349312 31377484 31409006 31442132 31475082 31506970 
3063.146 31537752 31568502 31601000 31637240 31678796 31726204 31779282 
3066.521 31837608 31900294 31966802 32037210 32111340 32189052 32270384 
3069.896 32354366 32440584 32528676 32618924 32711696 32807846 32908094 
3073.271 33012542 33121380 33234258 33350736 33470466 33592916 33717728 
3076.646 33843940 33970796 34097472 34223504 34348676 34473348 34597872 
3080.022 34722364 34846532 34969484 35090236 35208040 35322824 35435192 
3083.397 35546152 35657100 35768800 35881536 35995164 36109000 36222364 
3086.772 36335544 36448244 36561444 36675468 36790856 36907788 37026520 
3090.147 37147560 37271340 37398444 37529012 37663128 37800320 37939908 
3093.523 38081272 38224500 38369724 38517348 38667996 38821524 38977820 
3096.898 39135952 39295156 39454888 39615300 39776496 39939132 40103644 
3100.273 40269856 40437224 40605272 40772732 40939308 41104168 41266756 
3103.648 41426884 41584564 41739964 41893812 42047132 42201200 42356712 
3107.024 42514356 42674220 42835748 42998440 43161884 43326196 43491448 
3110.399 43657828 43825036 43992204 44158300 44322548 44484984 44646640 
3113.774 44809456 44975532 45146412 45322880 45503388 45685964 45867880 
3117.149 46046776 46221100 46390888 46556240 46718408 46878348 47036728 
3120.525 47193684 47349956 47505660 47661268 47816932 47972988 48128692 
3123.900 48283636 48436708 48587280 48734676 48878676 49019608 49157692 
3127.275 49293664 49427824 49561136 49694040 49826764 49959748 50092444 
3130.650 50224692 50355940 50485964 50614460 50741732 50867844 50992880 
3134.026 51116124 51236676 51353132 51464800 51571420 51674152 51775080 
3137.401 51876180 51979356 52085808 52194564 52304244 52412724 52518048 
3140.776 52619284 52716724 52811380 52905388 53000236 53097240 53196664 
3144.151 53297796 53399436 53500240 53598928 53694832 53787792 53878180 
3147.527 53966604 54053728 54139668 54224540 54308112 54390200 54470876 
3150.902 54550400 54629416 54708672 54788692 54869440 54950580 55031848 
3154.277 55112904 55193300 55273560 55353948 55434616 55515784 55597120 
3157.652 55678172 55758972 55839864 55921636 56005616 56092884 56184172 
3161.028 56279476 56378008 56478864 56580764 56683100 56785464 56887544 
3164.403 56989236 57090348 57190880 57290792 57390044 57489284 57588884 
3167.778 57689148 57789552 57889300 57986984 58081172 58170568 58254184 
3171.153 58331296 58401260 58462820 58515212 58557184 58588276 58609248 
3174.529 58621532 58627448 58629572 58629800 58629608 58629308 58629308 
3177.904 58629608 58631356 58635032 58642088 58653352 58669016 58688736 
3181.279 58711724 58737480 58765512 58795252 58826476 58858536 58890944 
3184.654 58923576 58956556 58991624 59030836 59077108 59132496 59197768 
3188.030 59272200 59353180 59437632 59522288 59605484 59686220 59765376 
3191.405 59843860 59922820 60003156 60085264 60169136 60255076 60343204 
3194.780 60433484 60525384 60618332 60711032 60802608 60892604 60981628 
3198.155 61070780 61161100 61253344 61347516 61442548 61537332 61631296 
3201.531 61724480 61818144 61913776 62012944 62116304 62223816 62334072 
3204.906 62445844 62557996 62669672 62780844 62891244 63000368 63107484 
3208.281 63212180 63314168 63413584 63511676 63609832 63708776 63809120 
3211.656 63909800 64009616 64107268 64202064 64294300 64384752 64474916 
3215.031 64565444 64656376 64746940 64835684 64921320 65002516 65078868 
3218.407 65150356 65217420 65280376 65339720 65395876 65449192 65500088 
3221.782 65548784 65595180 65639348 65680892 65719708 65755792 65788596 
3225.157 65818360 65844348 65865756 65881448 65890276 65892012 65886692 
3228.532 65875584 65859892 65841036 65819904 65796272 65769940 65740644 
3231.908 65708496 65674536 65640040 65605892 65572716 65539696 65505056 
3235.283 65466376 65422268 65371304 65313884 65250540 65183228 65113440 
3238.658 65042884 64972424 64903236 64835832 64770288 64705908 64641380 
3242.033 64574980 64504972 64430444 64351744 64270520 64189076 64109996 
3245.409 64035148 63965268 63899704 63837676 63778380 63721516 63667684 
3248.784 63617424 63571624 63530356 63492656 63457832 63425088 63394144 
3252.159 63365348 63339592 63317472 63299336 63284880 63273348 63263840 
3255.534 63255796 63249008 63243180 63238508 63234524 63230612 63226468 
3258.910 63222064 63217580 63213976 63212180 63213020 63217008 63224092 
3262.285 63234560 63248544 63266256 63288184 63314288 63343688 63374816 
3265.660 63405648 63434676 63460672 63483872 63505576 63527556 63551912 
3269.035 63579872 63611904 63648036 63688016 63731180 63777192 63825740 
3272.411 63876288 63928032 63980476 64032844 64085112 64137220 64189732 
3275.786 64242780 64296140 64349740 64403392 64456888 64511120 64566976 
3279.161 64624920 64685368 64746828 64807832 64865992 64920320 64971148 
3282.536 65020368 65070712 65124600 65183268 65245836 65309800 65372072 
3285.912 65429972 65482324 65529980 65574684 65618612 65663436 65709384 
3289.287 65755948 65801784 65846084 65888660 65930152 65971732 66014388 
3292.662 66059364 66107048 66157364 66210388 66265264 66321156 66376432 
3296.037 66429020 66476516 66517064 66549464 66573912 66591948 66605584 
3299.413 66617092 66628180 66639340 66650548 66661088 66669940 66676624 
3302.788 66681176 66683500 66684304 66684192 66683808 66683732 66684232 
3306.163 66685348 66686088 66685468 66682032 66674420 66661744 66643864 
3309.538 66621148 66594420 66564180 66530652 66493580 66452728 66407824 
3312.914 66359600 66308692 66256160 66202976 66149496 66095324 66040076 
3316.289 65983108 65925180 65866792 65808960 65752400 65697080 65642164 
3319.664 65586360 65528132 65466532 65401464 65333100 65261432 65186620 
3323.039 65108360 65026216 64939944 64849912 64756824 64662024 64566292 
3326.415 64470076 64372912 64274588 64174444 64072704 63969760 63866420 
3329.790 63762836 63658512 63551792 63441148 63324788 63201940 63072964 
3333.165 62938920 62801100 62660912 62519080 62376028 62232152 62087864 
3336.540 61943848 61800572 61658144 61515380 61370640 61221984 61067808 
3339.916 60907968 60743464 60576464 60409760 60245216 60083812 59925476 
3343.291 59768948 59612892 59455868 59297004 59135532 58970788 58802312 
3346.666 58629608 58452548 58271764 58088636 57905012 57722828 57543524 
3350.041 57367660 57195456 57026492 56859900 56695520 56533320 56373140 
3353.417 56215208 56059144 55904528 55750572 55596520 55442180 55286844 
3356.792 55130736 54973820 54816580 54659628 54504308 54352088 54204532 
3360.167 54062884 53927360 53797128 53670612 53545816 53420644 53293824 
3363.542 53164944 53033744 52901008 52767232 52633044 52499088 52366556 
3366.917 52236528 52109904 51987312 51868676 51753132 51639376 51526280 
3370.293 51413024 51299468 51186200 51073000 50959680 50845272 50728324 
3373.668 50607796 50483840 50357652 50231720 50108992 49990792 49878088 
3377.043 49769760 49664024 49559240 49454112 49348788 49243744 49139956 
3380.418 49037636 48936048 48833920 48729712 48622372 48511580 48397480 
3383.794 48280564 48160932 48038528 47912640 47783124 47650064 47514532 
3387.169 47378224 47242664 47109324 46978536 46850228 46723500 46597476 
3390.544 46471124 46343620 46214316 46082876 45949012 45813120 45675620 
3393.919 45537496 45399644 45262048 45124060 44984388 44841160 44693204 
3397.295 44540308 44383500 44225172 44067708 43913124 43762220 43614924 
3400.670 43470208 43327036 43184832 43043332 42902312 42761704 42620452 
3404.045 42477268 42331140 42181152 42027968 41872464 41716072 41559552 
3407.420 41403596 41247516 41090688 40933120 40775356 40618372 40463192 
3410.796 40310104 40157940 40004668 39847856 39685544 39517376 39344308 
3414.171 39168476 38991668 38815364 38639056 38461344 38279932 38092776 
3417.546 37897856 37693772 37479308 37253648 37016020 36766732 36506876 
3420.921 36239400 35968020 35696344 35427032 35161152 34897196 34632684 
3424.297 34364564 34091164 33811992 33528522 33242520 32956276 32670722 
3427.672 32385748 32100316 31813436 31523998 31232156 30938518 30644188 
3431.047 30350236 30058152 29768746 29483824 29204974 28934058 28672760 
3434.422 28421704 28180690 27948148 27722302 27500738 27281756 27064508 
3437.798 26848530 26634104 26421406 26210534 26001348 25793952 25588268 
3441.173 25384548 25183414 24985460 24791456 24601362 24415276 24232528 
3444.548 24052308 23873564 23695102 23516190 23336302 23155266 22973746 
3447.923 22793000 22613692 22436898 22263106 22092208 21924202 21758836 
3451.299 21596598 21437866 21283578 21134354 20990258 20850834 20715034 
3454.674 20581778 20449570 20317852 20185932 20053672 19920894 19787536 
3458.049 19653488 19519412 19386524 19255544 19128206 19005058 18886480 
3461.424 18771842 18659968 18550128 18442184 18336270 18233042 18132602 
3464.800 18034536 17937148 17838468 17736430 17629998 17519244 17405900 
3468.175 17291618 17178332 17066832 16956740 16847536 16738603 16629970 
3471.550 16522914 16418224 16317172 16219307 16123081 16025776 15924850 
3474.925 15818449 15706543 15590749 15474197 15360251 15252513 15152315 
3478.301 15060098 14974691 14893828 14814282 14733483 14649169 14560143 
3481.676 14467229 14372144 14278072 14187513 14102688 14023801 13949513 
3485.051 13876365 13800598 13718721 13628381 13528557 13420519 13306052 
3488.426 13187926 13068500 12949722 12833364 12720587 12612103 12508317 
3491.802 12409023 12313875 12221544 12130969 12040891 11950388 11858576 
3495.177 11765217 11669803 11572402 11472980 11371916 11269923 11168463 
3498.552 11068251 10970305 10874555 10780559 10687092 10592899 10496994 
3501.927 10399042 10298803 10196960 10093919 9990361 9887132 9785690 9687185 
3505.785 9593040 9504264 9420417 9340107 9260490 9178990 9093210 9002576 
3509.642 8908374 8813214 8720643 8633127 8552118 8476935 8406123 8337180 
3513.500 8268181 8197470 8124712 8049907 7973360 7895645 7817202 7738875 
3517.357 7661741 7586915 7515877 7449704 7388833 7333463 7283189 7237198 
3521.214 7194413 7153451 7112627 7069922 7023785 6973007 6917657 6858947 
3525.072 6798294 6737884 6678896 6620824 6562390 6501778 6437239 6368574 
3528.929 6296727 6223816 6152228 6083978 6019669 5959199 5901862 5847085 
3532.787 5794933 5746078 5701392 5661007 5624284 5589343 5553969 5516081 
3536.644 5474472 5428941 5380966 5332224 5285065 5241331 5202867 5170307 
3540.501 5144187 5123568 5106938 5091819 5074855 5053166 5024305 4987334 
3544.359 4942056 4889711 4831476 4768056 4699789 4627045 4550262 4471148 
3548.216 4392217 4315642 4243933 4177387 4115300 4055263 3994932 3932103 
3552.074 3866507 3799117 3731837 3666640 3605027 3547699 3494587 3445489 
3555.931 3399970 3358429 3320565 3286444 3254929 3225219 3196212 3167206 
3559.789 3138937 3112639 3089846 3072094 3060648 3056110 3058946 3069357 
3563.646 3086710 3109435 3133998 3154457 3163068 3150852 3111805 3043297 
3567.503 2948912 2837104 2719024 2605575 2503653 2416849 2344819 2284593 
3571.361 2232634 2185577 2140956 2097038 2053059 2008318 1962982 1917851 
3575.218 1874089 1833759 1798457 1769145 1745558 1726031 1707668 1687277 
3579.076 1662996 1633228 1598408 1559998 1520529 1482592 1449678 1425410 
3582.933 1412878 1414540 1431593 1462511 1503605 1547695 1586103 1609815 
3586.791 1610979 1585371 1533995 1461447 1376579 1288869 1207457 1138252 
3590.648 1086065 1051754 1034350 1030497 1034881 1041657 1044679 1039232 
3594.505 1022858 995625 959660 918120 874757 832627 793755 759466 730092 
3598.845 705067 683629 664182 644637 623765 600306 574559 548250 524231 
3603.185 506417 498323 502735 520980 552331 593936 640953 686848 725313 
3607.524 749940 757209 747019 723554 693120 663087 638995 622869 613114 
3611.864 604951 593139 573796 546326 514511 484723 464522 458983 470061 
3616.203 495304 528610 561288 583783 587996 568255 523999 458585 379451 
3620.543 295556 215855 147140 93414 56165 35355 30583 41684 69785 117144 
3625.365 185656 274967 381142 493812 596026 668297 690863 653198 560558 
3629.704 433078 296783 174784 80920 18058 -18488 -37638 -48671 -59272 -73982 
3634.526 -93792 -117510 -142651 -167692 -191737 -214390 -235916 -255620 
3638.384 -272640 -285885 -294528 -298302 -297905 -294494 -288898 -281183 
3642.241 -269859 -252010 -224060 -181834 -122413 -44562 50499 158906 274204 
3646.581 387542 489433 569881 620480 634814 609298 543572 442100 313627 
3650.920 171800 31809 -90446 -183026 -239989 -261315 -253335 -227736 -199520 
3655.260 -183457 -190114 -222868 -277044 -341345 -403683 -455420 -492589 
3659.117 -516120 -529622 -537532 -543157 -547823 -551430 -552622 -550967 
3662.975 -545904 -537267 -524857 -507383 -481932 -445258 -393752 -325519 
3666.832 -241446 -146593 -49598 36780 98352 123872 109157 61136 -3412 -62552 
3671.654 -96343 -93494 -53541 13651 91360 155857 183932 160298 83671 -30084 
3676.476 -155768 -269428 -357898 -420035 -462172 -494045 -523732 -556129 
3680.333 -591304 -626344 -657147 -680636 -694728 -699029 -692776 -674846 
3684.190 -642887 -595540 -531575 -453533 -366374 -278435 -200215 -141823 
3688.048 -110819 -110222 -136755 -183855 -243533 -309129 -375809 -440293 
3691.905 -499506 -550702 -590874 -618635 -633756 -637990 -634517 -627800 
3695.763 -620753 -615757 -612613 -609635 -604275 -594150 -578102 -557420 
3699.620 -534619 -513936 -499671 -495137 -501757 -517973 -540675 -565197 
3703.478 -586374 -600437 -604474 -596665 -576249 -543257 -498083 -442015 
3707.335 -377464 -307308 -236479 -170242 -114860 -76201 -59703 -68283 
3711.192 -102637 -159676 -232969 -314394 -394678 -466276 -524327 -566322 
3715.050 -591933 -602885 -601727 -591040 -573238 -550603 -525022 -498116 
3718.907 -471340 -446086 -424173 -406463 -393553 -384846 -378755 -373260 
3722.765 -365910 -355382 -342073 -327969 -317076 -313566 -321215 -340749 
3726.622 -370313 -403517 -432448 -448734 -445722 -421128 -375710 -313897 
3730.479 -241347 -164744 -88193 -13717 59545 132688 204452 269463 317971 
3734.819 337933 319397 258489 161193 42015 -81237 -192598 -281382 -342801 
3739.159 -376206 -381602 -358792 -307143 -226809 -120392 3147 129009 236840 
3743.498 303580 312466 263495 176176 81716 8051 -28461 -25413 10106 65510 
3748.320 127849 184827 226066 245029 237702 202761 141405 57292 -41415 
3752.660 -143479 -236115 -307507 -351807 -368261 -361275 -338497 -308798 
3756.517 -279693 -256547 -242705 -239592 -247871 -268037 -299362 -339656 
3760.375 -383721 -423908 -452209 -462073 -450554 -419605 -375511 -326181 
3764.232 -280885 -246679 -226743 -219755 -221477 -226279 -229690 -230220 
3768.089 -228829 -229558 -236910 -254990 -285620 -327803 -377034 -427483 
3771.947 -472929 -508210 -530383 -539286 -536175 -524493 -507184 -486863 
3775.804 -464754 -441286 -416758 -392295 -370479 -355051 -349887 -357236 
3779.662 -375809 -401994 -429072 -451415 -464886 -468759 -465019 -457770 
3783.519 -451051 -448072 -450389 -457902 -468759 -481568 -494674 -507283 
3787.376 -518536 -528001 -535083 -539451 -541039 -540742 -539550 -538193 
3791.234 -536638 -533693 -526809 -513572 -491761 -461709 -425265 -386237 
3795.091 -349059 -317208 -292011 -271051 -249825 -222570 -184583 -134635 
3798.949 -75638 -14810 37343 69388 72702 45793 -3512 -59736 -107374 -134370 
3803.771 -136722 -117908 -87796 -58974 -44629 -55197 -93957 -156232 -230485 
3808.110 -303368 -364619 -408648 -434567 -443934 -438440 -418645 -383257 
3811.968 -331412 -262805 -180609 -91175 -4042 68692 115818 131197 117012 
3816.307 84433 50002 30484 36051 68592 121618 182805 235746 263362 253914 
3821.129 204816 125264 32406 -55131 -123340 -167360 -189087 -195248 -194254 
3825.469 -193525 -197665 -206872 -217801 -224723 -222868 -208959 -182960 
3829.326 -147885 -108500 -70205 -37108 -11397 8217 25149 44832 72138 110085 
3834.148 158906 215723 274668 328184 369104 391721 393678 376565 345626 
3838.487 307194 267241 229447 194275 160597 126557 90100 50631 8151 -36644 
3843.309 -82562 -128276 -171898 -211277 -243466 -265256 -273998 -266812 
3847.167 -242341 -199421 -136954 -53938 50598 176474 321419 478652 636474 
3851.506 776925 876384 911379 866756 745260 570578 378721 204120 66902 
3855.846 -27500 -83821 -110256 -115688 -106579 -86901 -59239 -25313 12359 
3860.185 51393 88940 122977 152410 176806 195866 208662 213601 209689 197954 
3865.007 182474 170673 171336 190960 231204 287566 349373 402002 429563 
3869.347 421968 378622 310875 235215 169579 123607 98518 87449 80258 67399 
3874.168 43308 8880 -28991 -60465 -76035 -70934 -43966 960 56629 112836 
3878.990 159901 189070 195733 181115 151979 119597 95569 88940 103257 135671 
3883.812 177004 213501 232298 223447 186717 130866 72536 27866 8117 16799 
3888.634 49637 96894 145283 182507 199380 191987 162619 118536 68824 21371 
3893.456 -17229 -42906 -53011 -45656 -19979 23923 84102 157382 238696 321784 
3898.277 400908 470824 528278 572270 603558 623898 635179 638265 632425 
3902.617 616764 589191 548681 495702 432946 364660 296020 231867 175811 
3906.957 129838 94011 67399 48742 36515 29755 27866 30451 37078 47682 61865 
3912.260 79628 101070 126723 156255 189203 223646 256798 285444 306531 
3916.600 318402 321187 316479 306465 293434 278813 263230 247349 232199 
3920.940 219767 212374 212175 219502 232961 248278 260776 265617 260180 
3925.279 245062 223745 201833 184761 176640 179855 193479 215656 243305 
3929.619 272579 299966 322049 335910 339458 332063 314688 289986 261307 
3933.958 232596 206573 184363 166000 150288 136036 122944 111642 103953 
3938.298 102064 107698 121519 142665 168685 196496 222154 241846 253018 
3942.638 254378 246520 232033 215159 200208 191192 190429 197954 211214 
3946.977 226364 238796 244896 243172 234022 220198 204684 190628 179723 
3951.317 172596 168718 166861 166199 166099 166033 166066 166066 166232 
3955.656 166629 167657 169546 172961 177634 183137 188540 192916 194938 
3959.996 194175 190827 185523 179424 174054 170375 169679 172596 179689 
3964.336 190728 205115 221159 237171 251228 262003 269728 275265 280072 
3968.675 286438 295125 306365 318932 331334 342111 350633 357232 362737 
3973.015 368043 373382 377958 380578 380247 376532 370397 364063 359819 
3977.354 360183 366219 377991 393810 411554 428601 442598 452249 456860 
3981.694 456561 452581 446279 439612 434339 431785 432780 436992 443626 
3986.034 451089 457988 463228 466313 467308 466678 465020 462764 460442 
3990.373 458220 456064 454206 452216 449629 445947 439911 431088 419414 
3994.713 405418 390627 376798 365854 358658 355707 356303 359354 363433 
3999.052 367346 369900 370961 370132 
##END=
