
##TITLE=Z404_1_c
##JCAMP-DX=5.01  $$ Nicolet v. 1
##DATATYPE=INFRARED SPECTRUM
##ORIGIN=UniL
##OWNER=Nicolet
##LONGDATE=2011/09/21
##TIME=10:10:19
##SPECTROMETER/DATA SYSTEM=Nicolet iS5
##DATA PROCESSING=
Ratio against background
%Transmittance->Absorbance
Truncated
ElementMultiply or ElementDivide
##COMMENTS=
Number of sample scans: 32
Collection length: 51.12 sec
Sample gain: 2.0
Background collected on: Mer Sep 21 09:58:19 2011 (GMT+02:00);
Number of background scans: 32
Background gain: 2.0
Sample spacing:  1.000
Number of scan points: 12415
Resolution points: 8192
Number of FFT points: 65536
Apodization: N-B fort;
Phase correction: Mertz;
Laser frequency: 15798.0 cm-1
Number of rejected sample scans: 0
Number of rejected background scans: 0
Bench serial number: ASB1000141;
##RESOLUTION=4.000
##XUNITS=1/CM
##YUNITS=ABSORBANCE
##FIRSTX=649.893372
##LASTX=4000.122314
##FIRSTY=0.108916
##MAXX=4000.122314
##MINX=649.893372
##MAXY=0.250435
##MINY=-0.001348
##XFACTOR=1.000000
##YFACTOR=1.000000E-009
##NPOINTS=6950
##DELTAX=0.482117
##ZPD=6100
##XYDATA=(X++(Y..Y))
649.893 108916184 107387712 106177160 105272824 104631168 104194312 
652.786 103908760 103745608 103701264 103786760 104009456 104358816 
655.679 104802336 105299336 105815808 106338312 106875552 107445624 
658.571 108059112 108706112 109356752 109973800 110533984 111037080 
661.464 111507688 111978904 112478096 113009672 113557344 114090968 
664.357 114585096 115028352 115421312 115768208 116065048 116291224 
667.250 116416880 116421728 116318816 116154224 115988008 115863552 
670.142 115789144 115741392 115678248 115559208 115358472 115075552 
673.035 114731232 114354024 113963496 113560016 113128664 112651608 
675.928 112124112 111561368 110994216 110454408 109960992 109509456 
678.820 109075840 108629336 108150064 107637344 107110400 106594880 
681.713 106110784 105659928 105226544 104783312 104305648 103782168 
684.606 103217224 102626224 102027064 101434136 100855216 100295096 99760592 
687.981 99262136 98811296 98414328 98065688 97746920 97428248 97081312 
691.355 96685832 96236792 95742616 95218960 94680808 94135472 93584608 
694.730 93027456 92467416 91914984 91387168 90898712 90459328 90067760 
698.105 89713448 89382096 89063368 88754224 88460520 88191008 87952424 
701.480 87744096 87558040 87382480 87206376 87024880 86839864 86657104 
704.855 86482320 86317568 86160248 86006456 85854048 85706048 85570456 
708.229 85458056 85377824 85334472 85327976 85358944 85433040 85567952 
711.604 85792960 86143840 86654192 87337504 88175304 89105392 90030216 
714.979 90823312 91350240 91507048 91233312 90535520 89484360 88212808 
718.354 86891664 85689496 84767544 84245600 84188280 84605424 85442920 
721.729 86588912 87865736 89058568 89941520 90298872 89987656 88962784 
725.104 87297440 85163592 82798872 80455768 78326344 76527768 75088192 
728.478 73966816 73085456 72362968 71742864 71191952 70695808 70246392 
731.853 69828800 69421296 69002320 68557800 68087368 67602584 67119768 
735.228 66649424 66192752 65742604 65291196 64837068 64388976 63961312 
738.603 63566872 63208608 62876464 62551492 62214028 61855088 61478924 
741.978 61101940 60741896 60412160 60114600 59842108 59585416 59340836 
745.352 59113552 58915532 58757468 58640456 58551684 58467672 58361424 
748.727 58211176 58008004 57755148 57464776 57150020 56822812 56493128 
752.102 56171804 55873364 55615724 55413608 55273896 55189916 55143752 
755.477 55110988 55072128 55019700 54959492 54905608 54871656 54863348 
758.852 54876696 54902448 54934896 54977428 55044180 55153344 55317556 
762.227 55537660 55802864 56099596 56421924 56781536 57205884 57733084 
765.601 58398380 59221388 60205860 61341904 62615744 64014948 65532336 
768.976 67165208 68921352 70832032 72976128 75511304 78662272 82694280 
772.351 87837424 94159920 101455976 109138208 116318120 121848232 124601472 
775.726 123850696 119440696 111910296 102267984 91794296 81672264 72733800 
779.101 65470228 59982196 56101520 53506312 51852920 50856668 50304968 
782.475 50074000 50091328 50307388 50687100 51205324 51852920 52638132 
785.850 53581460 54704308 56019220 57529872 59239424 61161364 63332184 
789.225 65811156 68666568 71969968 75779968 80139808 85089544 90674600 
792.600 96950768 103978296 111794520 120380040 129611928 139253424 148933344 
795.975 158139216 166299696 172791072 177009376 178495536 176974912 
798.867 172443760 165173088 155688224 144680128 132859096 120935352 
801.760 109503272 98987176 89683384 81728448 75133928 69825144 65674112 
805.135 62534152 60256828 58718508 57820556 57484140 57648472 58252400 
808.510 59218348 60449976 61818296 63167832 64345360 65202908 65625860 
811.885 65550596 64959800 63882692 62381192 60544240 58473128 56268916 
815.259 54035304 51861952 49820148 47964512 46324456 44909056 43711944 
818.634 42718128 41911108 41277828 40811604 40510616 40376824 40414056 
822.009 40628812 41032748 41643204 42486000 43591844 44988504 46695716 
825.384 48712436 51009944 53518380 56126064 58682744 60991084 62841000 
828.759 64034536 64409500 63888876 62493592 60349756 57653620 54647300 
832.133 51579184 48648944 46006916 43738624 41868268 40377004 39216816 
835.508 38329080 37647592 37109520 36661912 36260328 35876856 35500696 
838.883 35135284 34793472 34489452 34233220 34026192 33862996 33735492 
842.258 33638064 33570720 33538580 33547278 33600504 33695996 33827500 
845.633 33987812 34173140 34385688 34632108 34920464 35255256 35635660 
849.008 36056076 36510732 36997152 37518972 38086124 38711500 39405616 
852.382 40175096 41022004 41946320 42949568 44037380 45218112 46502392 
855.757 47899840 49418320 51065956 52855276 54805004 56944472 59310828 
859.132 61944080 64887612 68183000 71867840 75977144 80535248 85545600 
862.507 90971880 96723344 102644192 108497624 114004200 118863512 122785160 
865.882 125557896 127066016 127314744 126421120 124598384 122118352 
868.774 119242256 116206608 113179656 110244064 107415032 104654064 
871.667 101901192 99095600 96199536 93206512 90140136 87047640 83989272 
875.042 81037928 78267064 75749712 73559880 71761040 70405144 69529032 
878.417 69148312 69259672 69843712 70872008 72309424 74115848 76246832 
881.792 78640864 81215144 83869560 86479520 88916432 91068808 92846840 
885.166 94203336 95134800 95678760 95902872 95892336 95741872 95533816 
888.541 95330784 95168136 95047280 94938920 94789856 94539536 94128432 
891.916 93510624 92661208 91572256 90247840 88695976 86922632 84928312 
895.291 82709352 80260648 77580472 74675408 71565096 68284144 64882652 
898.666 61430024 58004216 54687924 51563960 48698204 46138144 43909056 
902.040 42011688 40429476 39133700 38094188 37282424 36674784 36253880 
905.415 36003012 35905680 35945956 36108712 36383456 36766548 37260220 
908.790 37869008 38596508 39441752 40399188 41460936 42620600 43876500 
912.165 45231348 46690148 48256752 49932128 51715172 53607516 55619488 
915.540 57774376 60106152 62659836 65483868 68622440 72116608 75999168 
918.914 80290864 84993184 90074320 95457080 100996880 106494096 111715400 
922.289 116414800 120406752 123604032 126053152 127932952 129543248 
925.182 131274672 133519840 136661488 141014272 146767488 153964720 
928.075 162447712 171854512 181544976 190638112 198137744 202955968 
930.967 204183760 201294304 194241808 183529856 170079936 155105824 
933.860 139804848 125207248 112116568 100987432 92004576 85133720 80191816 
937.235 76920632 75043336 74323168 74552536 75546760 77130168 79078824 
940.610 81108896 82899112 84083152 84328200 83405224 81216264 77837168 
943.985 73490024 68518496 63295692 58161776 53395652 49161108 45524436 
947.359 42474380 39951044 37874284 36162980 34752232 33589088 32631748 
950.734 31848412 31210796 30695392 30284364 29964098 29724888 29559436 
954.109 29460280 29418936 29426950 29475670 29558728 29672132 29813494 
957.484 29981316 30172822 30384028 30610020 30846444 31090544 31342402 
960.859 31604492 31880644 32173458 32484572 32812528 33155214 33509944 
964.233 33875500 34251756 34640288 35042460 35458956 35888732 36329920 
967.608 36780072 37237620 37702660 38176560 38661476 39159700 39672508 
970.983 40200936 40745400 41306908 41886732 42486184 43105932 43745328 
974.358 44402400 45074912 45761540 46463820 47186184 47936096 48721368 
977.733 49549400 50424112 51346528 52314672 53325068 54373940 55457728 
981.108 56573176 57716248 58882404 60067224 61267420 62482884 63717828 
984.482 64979964 66280052 67628600 69035688 70510168 72059848 73694368 
987.857 75424704 77263200 79222864 81314704 83545896 85921232 88442608 
991.232 91111336 93927896 96890008 99990240 103210456 106522600 109887080 
994.607 113256024 116582392 119821304 122932280 125882712 128641280 
997.500 131178216 133466096 135479264 137197200 138605776 139694080 
1000.392 140452816 140872736 140945248 140668608 140053792 139132768 
1003.285 137957408 136595680 135129088 133636672 132192104 130864160 
1006.178 129709112 128778264 128118504 127767104 127754344 128099624 
1009.070 128810224 129883336 131308120 133069616 135147408 137514480 
1011.963 140135504 142958544 145917392 148938032 151938448 154846096 
1014.856 157606672 160185184 162572480 164781296 166846000 168815392 
1017.748 170752048 172727296 174804480 177032336 179430272 181981904 
1020.641 184635232 187313600 189940416 192451264 194814352 197035632 
1023.534 199156240 201240384 203359808 205590240 207996768 210629216 
1026.427 213518672 216668416 220049600 223594048 227205344 230765424 
1029.320 234147200 237243424 239970528 242277232 244146128 245588432 
1032.213 246643200 247370960 247859248 248212544 248529168 248890880 
1035.106 249329664 249813728 250237440 250435472 250215088 249367600 
1037.999 247719616 245152352 241609344 237110592 231748160 225686528 
1040.892 219133936 212332256 205532464 198943072 192727456 186982720 
1043.785 181732704 176945184 172545552 168443328 164541568 160756064 
1046.678 157027152 153317936 149621200 145957072 142371008 138922192 
1049.571 135670304 132665080 129929496 127455280 125203000 123114992 
1052.464 121126456 119178872 117233712 115271656 113289144 111288992 
1055.357 109271648 107227696 105138152 102975648 100711424 98324856 95807144 
1058.733 93167496 90433136 87650832 84879440 82182144 79624512 77260824 
1062.108 75131448 73262472 71663808 70334280 69265616 68447072 67868408 
1065.483 67520512 67396320 67488736 67789736 68291128 68983992 69860792 
1068.858 70915472 72142464 73534488 75080944 76764272 78560016 80440256 
1072.234 82372408 84325616 86273360 88192720 90067560 91888248 93650784 
1075.609 95355496 97003752 98592296 100108640 101526968 102809408 103916592 
1078.984 104816880 105502656 105998560 106368152 106705560 107115656 
1081.877 107710160 108584664 109808184 111426144 113455832 115890680 
1084.770 118702048 121844160 125258136 128873032 132621240 136441280 
1087.663 140280464 144097152 147845168 151456656 154836160 157845312 
1090.556 160312176 162068016 162960672 162897088 161865568 159942384 
1093.449 157284720 154096656 150623584 147102192 143731248 140669616 
1096.343 138007488 135770352 133922920 132381808 131028008 129715800 
1099.236 128303040 126654936 124658024 122241096 119375488 116083752 
1102.129 112433960 108536424 104526968 100538232 96697096 93103160 89818608 
1105.504 86878752 84289656 82039360 80103072 78450760 77050912 75869088 
1108.879 74871888 74024920 73291264 72634112 72014520 71389992 70718816 
1112.254 69958096 69067232 68015832 66784964 65372692 63793236 62075820 
1115.630 60258500 58380640 56481508 54595748 52751440 50974884 49289656 
1119.005 47718072 46283904 45009784 43916972 43024744 42346192 41886184 
1122.380 41637332 41577928 41669752 41857068 42077392 42264120 42358240 
1125.755 42322884 42145552 41841816 41447080 41010204 40578640 40186980 
1129.131 39854828 39583320 39360124 39164848 38975684 38773880 38543092 
1132.506 38271140 37947392 37561776 37105332 36570420 35951176 35245480 
1135.881 34454912 33585904 32649144 31660658 30641308 29613422 28601800 
1139.256 27629496 26715000 25872896 25112316 24438166 23852944 23358434 
1142.632 22956314 22648214 22434594 22313472 22279360 22324076 22436828 
1146.007 22604894 22815174 23052844 23300500 23539486 23749238 23909796 
1149.382 24006012 24028320 23975688 23853856 23674948 23453760 23205560 
1152.757 22945660 22688116 22445202 22228476 22046716 21905416 21806008 
1156.133 21745806 21718916 21717940 21736226 21769252 21813950 21868724 
1159.508 21931692 21999934 22070210 22138684 22202740 22260944 22313368 
1162.883 22360564 22402950 22440248 22472418 22500264 22526646 22556136 
1166.258 22594564 22648142 22721630 22818002 22939022 23085654 23259810 
1169.634 23464462 23703082 23979052 24294754 24650910 25047514 25484570 
1173.009 25963252 26486554 27058406 27683276 28364930 29106110 29908758 
1176.384 30774878 31706814 32707304 33778896 34923372 36141372 37433656 
1179.759 38801344 40248156 41780124 43403596 45124392 46945496 48866624 
1183.135 50885836 53003568 55224416 57560740 60031804 62660372 65469572 
1186.510 68476472 71686472 75087056 78642416 82291584 85937064 89453784 
1189.885 92697960 95510696 97753392 99324432 100174024 100314504 99814040 
1193.260 98785384 97353080 95643696 93764752 91786560 89747960 87656472 
1196.635 85499760 83258184 80918592 78484584 75981648 73455488 70963496 
1200.011 68571376 66338568 64311476 62523552 60990016 59711996 58678424 
1203.386 57870256 57262436 56824060 56522792 56322744 56186924 56082480 
1206.761 55980360 55858552 55703936 55509460 55272844 54994464 54675636 
1210.136 54318816 53928148 53510924 53077960 52643032 52223712 51838620 
1213.512 51507176 51250584 51089772 51045756 51140684 51393556 51821448 
1216.887 52438068 53253292 54274848 55510136 56966796 58653312 60577916 
1220.262 62746124 65159708 67816456 70712112 73842728 77207424 80808792 
1223.637 84651168 88737272 93063992 97618704 102378616 107309144 112359112 
1227.013 117463240 122534352 127456872 132099256 136309552 139926000 
1229.906 142804112 144815760 145867584 145915296 144967664 143099792 
1232.799 140446000 137211600 133650184 130027920 126629784 123712648 
1235.692 121488560 120139792 119799032 120560984 122495560 125645160 
1238.585 130027432 135627200 142391600 150213152 158911888 168256432 
1241.478 177935920 187570720 196759424 205057072 212027616 217309376 
1244.371 220627440 221854992 221022848 218316208 214036576 208545168 
1247.264 202257936 195577840 188869200 182459856 176580416 171354208 
1250.157 166781728 162737328 158986144 155214016 151114400 146422592 
1253.050 140976768 134754224 127860936 120509472 112953880 105469792 
1255.943 98297184 91603920 85496296 80006816 75112464 70752200 66847332 
1259.319 63319616 60095460 57118656 54350020 51763100 49343368 47082220 
1262.694 44972076 43005136 41170752 39456776 37852304 36348764 34941972 
1266.069 33631512 32419342 31307324 30295128 29380112 28557566 27822830 
1269.444 27172148 26603244 26114462 25703348 25365788 25096028 24887482 
1272.820 24734594 24633272 24580288 24572224 24603080 24664168 24744942 
1276.195 24835310 24927872 25019960 25113370 25212908 25324130 25452314 
1279.570 25602222 25778304 25985448 26227816 26506168 26814412 27137794 
1282.945 27454392 27736182 27958928 28107050 28178392 28183942 28145796 
1286.321 28091674 28046608 28031692 28061734 28145018 28286238 28486408 
1289.696 28743594 29051906 29401634 29781308 30178932 30585168 30995202 
1293.071 31407688 31823348 32241904 32660470 33073574 33475478 33861708 
1296.446 34231644 34588296 34937088 35282928 35629656 35979180 36332732 
1299.822 36692416 37061812 37444740 37843156 38254312 38669916 39075184 
1303.197 39452060 39782884 40051248 40244520 40353584 40372020 40296576 
1306.572 40127556 39871500 39541292 39156476 38742036 38322964 37921684 
1309.947 37555312 37233504 36960240 36735900 36558524 36425000 36330568 
1313.323 36268288 36228416 36199784 36171948 36135936 36085560 36016940 
1316.698 35926304 35809280 35660732 35476428 35255580 35002556 34728360 
1320.073 34447128 34173636 33920240 33694168 33498276 33333742 33203032 
1323.448 33111728 33070356 33091166 33188690 33377428 33669892 34078224 
1326.823 34610940 35269740 36043764 36904144 37804044 38675604 39444040 
1330.199 40040092 40408496 40523716 40391764 40049032 39551164 38965024 
1333.574 38359876 37793632 37315352 36962804 36760236 36722700 36855340 
1336.949 37155496 37614852 38223304 38972672 39858676 40881388 42043556 
1340.324 43348344 44795280 46377172 48075388 49857088 51671468 53442976 
1343.700 55082096 56488488 57562400 58228800 58441780 58191024 57496808 
1347.075 56402044 54961448 53230112 51266396 49129864 46880048 44585392 
1350.450 42318100 40146380 38135676 36334532 34770068 33449606 32362078 
1353.825 31485948 30794192 30261130 29863716 29579726 29389756 29276460 
1357.201 29227090 29236446 29307050 29447266 29665816 29967934 30350378 
1360.576 30803156 31311240 31861744 32449902 33082548 33778360 34563896 
1363.951 35473984 36545332 37814308 39317064 41079184 43107212 45373304 
1367.326 47809312 50299724 52686048 54802788 56490336 57623236 58134048 
1370.702 58011224 57300128 56085760 54490296 52655712 50720988 48826360 
1374.077 47088864 45590196 44378288 43464712 42837728 42475696 42361092 
1377.452 42489364 42873748 43544412 44548348 45949528 47816416 50215504 
1380.827 53187528 56719836 60710996 64944908 69119560 72845024 75716568 
1384.203 77400376 77648456 76361344 73600904 69612184 64792716 59615784 
1387.578 54576700 50055704 46269384 43281828 41034132 39407540 38265676 
1390.953 37493540 37001228 36722232 36611332 36630908 36745632 36924996 
1394.328 37142256 37382264 37644624 37942728 38297156 38724972 39232664 
1397.704 39809032 40426240 41041996 41615228 42119340 42550388 42926340 
1401.079 43278164 43638520 44029788 44461856 44931764 45429112 45941056 
1404.454 46457144 46972264 47485480 47999004 48516140 49041976 49583384 
1407.829 50148148 50743776 51373864 52035716 52719456 53411164 54098348 
1411.205 54774216 55439696 56101180 56765184 57433004 58099012 58753108 
1414.580 59387368 60000532 60599476 61194016 61788500 62371860 62915748 
1417.955 63377464 63718252 63926072 64030388 64096436 64195648 64386940 
1421.330 64696640 65122792 65646516 66247784 66917016 67660624 68500296 
1424.706 69465928 70589536 71895912 73404016 75126640 77068992 79220600 
1428.081 81543680 83971536 86401448 88710320 90785704 92540968 93940688 
1431.456 95004480 95804696 96448160 97052096 97739776 98622976 99801328 
1434.831 101371240 103416376 105997720 109137816 112804000 116921816 
1437.724 121401304 126154872 131093784 136096512 140996768 145542688 
1440.617 149411712 152286304 153876960 154002960 152622272 149816096 
1443.510 145760416 140672688 134800816 128377584 121599944 114647264 
1446.404 107674032 100834904 94316424 88317440 83026296 78583520 75041320 
1449.779 72371784 70491736 69304680 68724936 68689464 69158448 70099688 
1453.154 71484744 73296752 75530864 78202864 81343992 84961432 88993936 
1456.529 93275672 97544536 101530488 105052008 108058312 110591728 112732312 
1459.905 114562448 116151712 117559520 118835592 120013760 121100360 
1462.798 122062440 122834792 123330384 123478432 123260896 122726736 
1465.691 121973616 121102456 120190960 119275840 118361672 117439664 
1468.584 116496728 115513856 114451992 113236072 111750840 109849656 
1471.477 107411936 104403312 100925360 97195680 93472448 89961648 86760760 
1474.852 83880488 81291168 78972016 76942712 75264216 74009600 73247808 
1478.227 73018616 73332176 74186400 75580824 77526240 80043904 83154080 
1481.603 86864592 91162760 96020736 101407808 107299472 113690984 120586528 
1484.978 127974424 135809264 143963136 152192064 160154000 167384736 
1487.871 173343616 177505328 179397520 178724000 175457296 169881856 
1490.764 162554112 154146880 145330432 136604384 128253000 120406056 
1493.657 113063144 106173864 99702272 93650576 88073056 83057992 78688432 
1497.032 75005096 71988824 69583056 67711192 66305488 65320848 64732016 
1500.407 64526692 64696556 65230632 66111684 67318272 68817096 70561856 
1503.783 72487184 74469896 76315880 77740624 78370592 77863888 76055688 
1507.158 73055424 69188520 64831368 60279172 55699380 51180460 46778556 
1510.533 42538840 38527052 34817344 31469240 28525718 25999202 23874578 
1513.908 22118356 20683722 19515012 18543870 17699430 16922944 16179858 
1517.284 15476052 14849047 14349609 14012406 13838942 13785958 13776929 
1520.659 13718756 13540179 13229427 12837494 12449460 12135160 11928523 
1524.034 11822245 11784283 11773593 11758273 11723992 11672219 11613375 
1527.409 11556987 11510134 11478798 11474716 11520273 11642983 11868179 
1530.785 12206890 12647818 13152133 13656692 14093824 14408586 14585773 
1534.160 14655577 14682069 14734614 14862831 15096495 15446180 15911411 
1537.535 16478412 17117288 17776400 18373288 18813778 19024030 18983354 
1540.910 18734928 18361812 17953136 17566336 17219630 16895798 16560398 
1544.286 16180374 15744470 15270530 14801323 14386768 14061994 13840002 
1547.661 13707300 13633099 13577064 13504049 13394583 13248112 13080315 
1551.036 12913060 12766582 12651673 12569807 12515308 12480832 12461906 
1554.411 12462963 12498154 12590204 12765046 13041799 13419290 13853583 
1557.787 14247290 14442462 14281257 13705795 12805313 11768929 10774682 
1561.162 9938455 9299484 8845338 8539311 8334748 8188455 8066851 7953989 
1565.019 7851681 7774494 7739954 7760496 7837916 7962088 8109621 8245622 
1568.877 8333330 8340186 8252613 8083560 7870069 7661978 7505359 7437705 
1572.734 7479165 7632335 7881440 8194026 8525321 8821160 9035897 9147790 
1576.592 9168838 9137638 9103767 9113207 9197841 9380633 9677496 10098701 
1580.449 10648889 11325933 12121974 13024761 14020002 15092207 16218895 
1583.824 17366136 18487510 19520660 20400114 21071466 21498790 21677326 
1587.199 21633198 21424500 21128756 20837486 20650190 20655402 20929548 
1590.575 21529046 22478560 23765442 25328134 27062322 28813340 30395222 
1593.950 31627406 32341908 32423876 31833828 30612970 28878600 26790870 
1597.325 24536706 22282498 20155042 18244308 16594304 15215828 14096219 
1600.700 13209649 12525880 12016875 11664425 11459509 11402393 11498327 
1604.076 11753949 12172404 12750237 13473663 14313685 15227118 16147394 
1607.451 16991608 17672720 18103688 18219392 17986082 17405348 16515274 
1610.826 15384693 14110184 12792856 11527077 10389030 9421738 8640225 
1614.201 8033233 7570596 7205193 6879986 6544428 6163688 5735032 5285535 
1618.059 4859386 4499504 4233795 4075865 4023324 4062453 4169559 4314270 
1621.916 4463683 4583779 4649785 4651593 4596002 4504258 4404066 4322469 
1625.774 4276189 4269999 4294660 4330836 4354397 4345226 4296668 4216798 
1629.631 4127275 4054360 4023759 4054025 4154906 4329765 4576245 4887231 
1633.489 5245222 5618981 5959435 6200657 6284188 6182845 5918388 5550009 
1637.346 5150055 4777939 4465457 4222152 4040447 3906091 3805535 3732974 
1641.203 3691234 3690465 3742532 3856746 4036801 4280138 4577886 4911359 
1645.061 5251661 5558936 5783248 5880871 5830730 5648519 5384018 5107944 
1648.918 4894403 4799882 4865417 5111297 5536115 6103299 6723549 7258154 
1652.776 7540758 7470064 7073391 6480017 5831805 5221747 4696239 4266720 
1656.633 3929060 3674726 3493117 3372487 3300867 3267281 3263075 3280568 
1660.490 3311985 3345073 3359431 3331350 3237670 3069024 2837404 2576609 
1664.348 2333460 2150546 2060349 2076662 2195334 2396725 2650111 2919556 
1668.205 3164470 3348379 3444721 3441415 3345841 3184396 2998888 2832868 
1672.063 2726092 2704520 2772274 2908482 3066354 3187633 3216907 3129693 
1675.920 2944909 2716190 2506020 2358711 2295818 2314472 2398424 2528548 
1679.778 2694318 2898375 3154724 3479523 3879512 4337194 4804506 5198441 
1683.635 5418641 5396431 5134732 4714493 4244301 3816465 3480224 3244013 
1687.492 3093117 2999788 2934534 2868756 2782612 2668180 2531681 2392160 
1691.350 2276899 2216315 2234699 2345452 2545946 2814726 3110870 3375459 
1695.207 3553879 3616788 3582041 3503973 3451434 3477085 3598479 3794772 
1699.065 4002289 4130621 4086769 3832410 3410623 2924093 2476294 2132199 
1702.922 1917419 1821980 1812963 1841678 1858050 1822712 1718878 1557305 
1706.780 1367106 1182704 1029036 918252 850388 818153 814634 838271 894213 
1711.119 992636 1143701 1352647 1617131 1927303 2269704 2629476 2994317 
1714.977 3354322 3695979 3998511 4230683 4353727 4336692 4171332 3881986 
1718.834 3517534 3137202 2793083 2516617 2322200 2207923 2160668 2160336 
1722.691 2183912 2211286 2227339 2225507 2208356 2186210 2172756 2181348 
1726.549 2221577 2296118 2400023 2521716 2647944 2768706 2881931 2995384 
1730.406 3125521 3291118 3504106 3760880 4032788 4266619 4388133 4330300 
1734.264 4071985 3655346 3170945 2711588 2347884 2111988 2003558 2000062 
1738.121 2063712 2150413 2216681 2235931 2204226 2138991 2066275 2009849 
1741.979 1982088 1982121 2000528 2026293 2054357 2088149 2138891 2219379 
1745.836 2339356 2500221 2694651 2907815 3123252 3326509 3505543 3649331 
1749.693 3745038 3776221 3727894 3594069 3386278 3133331 2876260 2657312 
1753.551 2505886 2434175 2433875 2480593 2537580 2567110 2544113 2462798 
1757.408 2338989 2200763 2079692 1998232 1963748 1968341 1990809 2002526 
1761.266 1972834 1880712 1721806 1511551 1279797 1063113 896205 802418 
1765.123 790767 854704 974371 1120546 1262749 1380967 1470224 1542607 
1768.980 1618229 1716982 1846803 1999297 2148581 2259212 2299549 2253683 
1772.838 2130467 1958556 1774735 1608019 1474812 1380036 1321472 1295217 
1776.695 1298839 1332074 1394163 1480597 1582611 1686013 1774069 1834158 
1780.553 1860646 1858117 1839316 1820483 1814827 1827337 1853857 1882442 
1784.410 1898449 1889564 1852127 1793100 1728958 1680126 1667187 1706038 
1788.268 1804645 1961751 2166263 2399757 2635410 2840839 2984742 3039860 
1792.125 2993082 2850045 2635243 2384331 2131433 1903973 1717448 1575628 
1795.982 1475078 1408357 1367970 1347761 1344571 1355871 1377476 1401875 
1799.840 1417166 1408988 1365776 1281791 1160910 1014588 859850 714460 
1803.697 591646 499882 441138 413245 411985 432714 472251 527814 596291 
1808.037 673839 754587 832063 900223 953218 987522 1001038 993964 968892 
1812.376 931136 889200 852978 832660 836080 865594 917787 983703 1051986 
1816.716 1111012 1153800 1179116 1190114 1192506 1191310 1190911 1194466 
1820.573 1206328 1232943 1281990 1359361 1465403 1591391 1719577 1825274 
1824.431 1887534 1896053 1857884 1794664 1736909 1711527 1732584 1797292 
1828.288 1885936 1969905 2017505 2007186 1934658 1813429 1668750 1527411 
1832.146 1411847 1333736 1295749 1294220 1321738 1370263 1431693 1500579 
1836.003 1572868 1646466 1720808 1796660 1876286 1963315 2063578 2185311 
1839.861 2337790 2530848 2771741 3062650 3396831 3757404 4118545 4447380 
1843.718 4715867 4908912 5030540 5100837 5147004 5194148 5256088 5334975 
1847.575 5423740 5511416 5587229 5644760 5682457 5702802 5708576 5701325 
1851.433 5679571 5639993 5579778 5497591 5395055 5275942 5145495 5007445 
1855.290 4864680 4718111 4567773 4414141 4257986 4100449 3942635 3785045 
1859.148 3627713 3470538 3314489 3161098 3012834 2872791 2743264 2627109 
1863.005 2527182 2447670 2394426 2374503 2393460 2454668 2555644 2687950 
1866.863 2835737 2978436 3094285 3163068 3171946 3118980 3013401 2872458 
1870.720 2716790 2566377 2435008 2331028 2255515 2205025 2172557 2150579 
1874.577 2133697 2118747 2105462 2094541 2085618 2076629 2064011 2043071 
1878.435 2010149 1963914 1905538 1837419 1762392 1682787 1599173 1511817 
1882.292 1421321 1329515 1239688 1156159 1083641 1025914 986227 967165 
1886.150 970585 997717 1046938 1112607 1183768 1245802 1281957 1281093 
1890.007 1240851 1170212 1086796 1010869 960224 943854 961187 1003396 
1893.865 1058197 1113836 1162704 1202706 1235800 1264677 1291761 1317450 
1897.722 1341845 1365710 1391537 1422651 1462777 1513147 1572735 1638450 
1901.579 1706637 1774901 1842544 1910297 1978759 2047366 2113686 2175720 
1905.437 2232001 2283660 2333526 2384198 2435775 2484225 2521783 2539447 
1909.294 2531681 2498021 2444838 2381832 2320301 2267972 2227638 2198731 
1913.152 2179483 2169959 2173289 2194136 2235732 2295418 2364075 2425779 
1917.009 2462032 2459466 2413484 2330961 2227072 2120545 2026426 1951433 
1920.866 1894855 1848833 1804113 1751147 1684483 1603429 1511352 1414573 
1924.724 1319743 1233707 1161176 1105033 1065870 1041922 1030132 1026976 
1928.581 1029899 1037737 1050491 1068029 1088557 1108388 1122373 1125562 
1932.439 1115862 1094270 1065770 1036741 1012662 996057 985861 978622 970386 
1936.778 959793 948303 941097 944285 963280 1001404 1058596 1132007 1215664 
1941.118 1301697 1380568 1441267 1475410 1478004 1451108 1403071 1346665 
1944.975 1295616 1259559 1242114 1239356 1243543 1246035 1241549 1230883 
1948.833 1219319 1213405 1217924 1232976 1254874 1278435 1300966 1323266 
1952.690 1350254 1386983 1435583 1492466 1549324 1595780 1623583 1629703 
1956.548 1615602 1587600 1551153 1510288 1466301 1419626 1371726 1327088 
1960.405 1292492 1273749 1273217 1289733 1317816 1352348 1390473 1434053 
1964.262 1486947 1551319 1624049 1694762 1749716 1775566 1765952 1725132 
1968.120 1666123 1605990 1558303 1530205 1520396 1523455 1533097 1547096 
1971.977 1567447 1597876 1638849 1685947 1729424 1758333 1764987 1748419 
1975.835 1713456 1668617 1621089 1572668 1521293 1462677 1395692 1323333 
1979.692 1252913 1191542 1143236 1106893 1077695 1049528 1020201 992869 
1983.550 975334 975766 997518 1038468 1088856 1138153 1176392 1201443 
1987.407 1216861 1231348 1253744 1289567 1339918 1402938 1475011 1552450 
1991.264 1633960 1717315 1799422 1875653 1941082 1992806 2031553 2062314 
1995.122 2091345 2123641 2160202 2197766 2230669 2254449 2268405 2277232 
1998.979 2288757 2309542 2342021 2382732 2424212 2457733 2478327 2484925 
2002.837 2480826 2468563 2447404 2412084 2354680 2268905 2155074 2022165 
2006.694 1885603 1762924 1667952 1604826 1569176 1551386 1541044 1531036 
2010.552 1519199 1506364 1493963 1483456 1475976 1474912 1487346 1522025 
2014.409 1587733 1687211 1813695 1949935 2074831 2167228 2216948 2225674 
2018.266 2206657 2177951 2156473 2151378 2163899 2188941 2219412 2250186 
2022.124 2278497 2303313 2322200 2331494 2326631 2305012 2268205 2222876 
2025.981 2177518 2139424 2111056 2087849 2061548 2023564 1970738 1906436 
2029.839 1839915 1780490 1736210 1709065 1696392 1693697 1698953 1713223 
2033.696 1738439 1776864 1825108 1876785 1923376 1959387 1985183 2008018 
2037.553 2038144 2084420 2149547 2228904 2312540 2391094 2458366 2515351 
2041.411 2567510 2621976 2681782 2745231 2805255 2852513 2880663 2887234 
2045.268 2873859 2844241 2801987 2749633 2688017 2619242 2546746 2477227 
2049.126 2416616 2369072 2334226 2306877 2280329 2248688 2210521 2168527 
2052.983 2128469 2096572 2075198 2063279 2056254 2048797 2037545 2022964 
2056.841 2007985 1997000 1992673 1995402 2003857 2016373 2032152 2051960 
2060.698 2077661 2109524 2144885 2179317 2206224 2221710 2224941 2219079 
2064.555 2209688 2201662 2197299 2195001 2190472 2179350 2159969 2133597 
2068.413 2104330 2076363 2052726 2033417 2016340 1999330 1980457 1960186 
2072.270 1939484 1918484 1896153 1868832 1832927 1786512 1731020 1670946 
2076.128 1612376 1561262 1519930 1487645 1460516 1435317 1409553 1383659 
2079.985 1359926 1340582 1326490 1316653 1307912 1297743 1285546 1272386 
2083.843 1260490 1251717 1245570 1239422 1229653 1213039 1189250 1160611 
2087.700 1131675 1107026 1089420 1079023 1073410 1069956 1066169 1061585 
2091.557 1056537 1051986 1047901 1043317 1036841 1027707 1016980 1006584 
2095.415 998979 995226 994031 992835 988651 980249 968825 957933 951757 
2099.754 952454 958797 967597 973806 974371 969323 962117 958398 962748 
2104.094 977327 1000706 1029501 1059393 1087261 1112640 1136425 1159747 
2107.951 1183236 1206261 1228258 1249856 1274015 1304290 1344936 1397919 
2111.809 1461779 1532565 1604826 1674505 1740368 1803847 1867733 1934492 
2115.666 2004490 2075431 2144385 2208722 2268105 2324465 2381099 2439906 
2119.524 2501087 2562510 2620909 2674147 2722324 2767373 2812959 2861218 
2123.381 2911217 2959754 3002191 3034321 3054408 3064352 3067022 3065853 
2127.239 3062250 3054408 3038826 3012500 2973966 2924860 2869523 2813092 
2131.096 2759770 2711422 2667513 2626276 2586342 2547146 2509286 2473795 
2134.953 2440973 2410385 2381266 2352915 2325431 2299649 2275966 2253517 
2138.811 2230703 2204926 2175121 2142754 2111954 2087649 2074465 2072401 
2142.668 2077195 2080424 2073866 2051461 2012978 1963814 1912060 1865870 
2146.526 1830764 1806908 1792102 1782420 1775533 1770576 1769245 1772140 
2150.383 1779492 1790305 1802516 1815459 1829267 1844840 1861677 1876918 
2154.240 1884239 1877018 1850729 1806508 1751413 1696458 1653583 1628240 
2158.098 1619626 1619093 1615635 1602265 1578621 1550289 1527179 1516672 
2161.955 1520861 1537221 1560032 1583941 1607154 1630967 1657874 1689406 
2165.813 1724633 1760063 1791503 1817289 1836854 1853724 1870462 1888898 
2169.670 1908067 1925739 1939185 1947905 1953796 1959521 1967309 1978193 
2173.528 1988845 1995602 1995935 1990076 1981289 1974565 1972568 1974465 
2177.385 1975198 1967609 1945808 1909232 1862509 1814993 1776398 1753942 
2181.242 1748852 1757934 1774535 1792534 1808338 1821415 1832661 1843608 
2185.100 1855654 1869264 1886169 1909398 1942746 1989045 2047366 2112520 
2188.957 2176020 2228804 2265607 2286891 2300548 2315671 2341488 2381865 
2192.815 2433242 2487358 2534581 2567743 2585309 2590675 2589442 2587842 
2196.672 2588709 2591375 2593742 2594142 2591909 2588642 2585776 2583842 
2200.530 2581276 2575443 2564110 2546812 2527015 2509519 2498921 2498388 
2204.387 2507753 2524116 2544579 2566910 2591142 2618909 2652245 2690850 
2208.244 2732794 2773675 2809557 2837571 2858016 2872391 2883131 2891904 
2212.102 2899109 2903878 2906347 2906780 2907948 2912585 2922258 2936635 
2215.959 2953315 2969562 2982506 2992549 3000923 3010632 3023477 3038392 
2219.817 3052473 3061949 3063718 3057712 3046934 3035189 3026513 3022209 
2223.674 3020675 3018639 3013301 3002991 2988879 2973265 2959053 2946110 
2227.531 2933567 2918489 2898475 2873258 2845042 2817294 2794083 2777943 
2231.389 2769173 2766872 2769273 2775142 2784479 2797251 2812792 2829667 
2235.246 2845208 2857182 2864987 2870690 2877327 2888968 2908115 2934167 
2239.104 2964224 2994183 3020141 3040995 3057945 3073195 3089746 3108334 
2242.961 3127857 3145746 3160197 3170210 3176552 3181425 3186331 3192106 
2246.819 3197981 3202887 3205691 3207060 3208428 3211833 3218309 3227722 
2250.676 3238738 3249755 3260137 3270519 3283105 3299565 3319931 3342936 
2254.533 3364540 3381370 3390954 3393558 3391354 3387581 3384676 3382906 
2258.391 3380702 3375960 3366944 3354790 3342368 3333320 3330816 3335991 
2262.248 3347811 3363371 3380435 3398000 3416902 3439377 3466831 3499597 
2266.106 3535773 3572119 3605161 3633092 3655513 3673824 3690065 3705670 
2269.963 3721611 3737753 3753828 3769838 3785714 3801891 3817501 3831741 
2273.821 3842706 3849893 3853169 3854506 3856412 3861560 3871488 3884961 
2277.678 3899671 3911774 3918528 3919063 3914349 3906993 3900173 3896763 
2281.535 3898401 3905322 3917324 3933841 3953970 3977109 4002222 4028374 
2285.393 4054761 4080983 4107674 4136374 4168656 4206025 4248952 4296367 
2289.250 4346799 4398275 4449724 4501078 4552873 4606349 4661975 4719652 
2293.108 4778877 4838077 4896949 4954791 5011769 5067547 5121891 5173761 
2296.965 5222618 5268161 5310891 5351982 5392808 5434041 5475478 5515746 
2300.823 5553063 5585886 5613711 5637173 5657717 5677120 5696490 5716902 
2304.680 5738625 5762027 5787814 5817298 5851115 5889536 5931723 5975660 
2308.537 6018762 6059147 6095570 6128334 6158512 6186844 6214001 6239782 
2312.395 6263279 6284053 6302476 6319756 6338113 6359328 6384949 6415045 
2316.252 6449178 6486004 6524077 6562121 6598351 6630850 6657799 6677213 
2320.110 6688486 6692254 6690673 6687207 6685020 6686298 6691178 6698647 
2323.967 6706723 6713857 6720150 6727014 6736807 6751648 6772581 6798899 
2327.824 6828216 6857534 6884161 6905773 6921731 6931494 6935366 6933783 
2331.682 6927219 6916782 6904662 6893351 6885878 6884565 6890591 6903955 
2335.539 6923448 6948160 6977183 7010787 7049076 7092352 7139842 7189494 
2339.397 7238647 7284637 7325376 7360153 7389069 7412695 7431570 7445086 
2343.254 7451895 7450143 7438783 7417852 7389271 7357255 7327869 7307921 
2347.112 7304383 7323623 7369724 7444345 7546623 7673174 7818383 7975081 
2350.969 8136764 8297529 8453149 8601527 8741941 8874184 8998347 9114223 
2354.826 9222616 9324874 9424210 9524179 9627864 9737638 9853846 9975816 
2358.684 10102669 10234579 10372673 10518686 10673000 10833721 10995758 
2362.059 11152689 11297468 11425490 11535448 11629778 11712589 11788368 
2365.434 11859394 11926207 11986832 12038745 12079114 12106642 12119316 
2368.810 12115978 12094649 12053666 11992350 11912347 11817853 11714972 
2372.185 11610856 11512243 11423653 11348277 11288116 11244488 11219496 
2375.560 11215892 11236225 11282301 11354808 11452603 11574239 11717968 
2378.935 11882889 12068417 12274132 12498257 12737408 12986864 13241383 
2382.311 13495538 13745123 13987288 14219489 14438866 14641800 14823401 
2385.686 14979356 15105792 15201004 15265314 15301041 15310926 15297506 
2389.061 15262671 15207112 15131729 15037355 14925376 14797347 14654514 
2392.436 14497650 14327485 14144688 13951497 13751347 13549853 13352724 
2395.812 13166033 12994580 12841487 12708816 12598118 12510500 12447721 
2399.187 12411171 12402033 12419899 12463748 12531132 12620050 12729117 
2402.562 12857425 13004822 13170951 13354638 13554092 13767387 13993139 
2405.937 14230856 14481411 14746474 15027614 15325823 15641239 15973454 
2409.313 16322229 16687606 17069556 17468120 17881624 18306270 18736658 
2412.688 19164842 19581698 19978658 20346706 20677712 20965152 21203272 
2416.063 21388856 21521490 21603806 21641034 21640374 21609344 21553664 
2419.438 21477762 21383532 21271120 21140372 20991616 20825700 20645186 
2422.813 20452904 20251992 20046140 19839106 19635114 19439640 19258210 
2426.189 19096350 18959610 18852186 18777482 18737522 18734168 18768106 
2429.564 18840006 18949780 19096248 19277434 19491272 19735416 20007522 
2432.939 20306360 20630246 20977530 21346846 21736332 22145030 22573202 
2436.314 23022622 23496254 23997364 24528572 25090902 25684050 26307156 
2439.690 26959748 27642950 28359730 29114154 29910176 30750800 31636920 
2443.065 32567960 33541694 34555896 35608076 36695728 37816372 38966840 
2446.440 40143328 41341968 42559088 43791796 45037276 46292676 47554420 
2449.815 48817868 50077420 51327360 52562284 53776576 54965092 56120900 
2453.191 57235484 58298896 59300040 60227896 61072612 61824908 62475344 
2456.566 63014424 63430532 63711076 63844280 63819944 63631580 63277484 
2459.941 62759100 62080636 61247888 60267524 59147416 57897212 56529056 
2463.316 55056668 53495632 51862664 50173776 48444748 46692436 44932392 
2466.692 43181648 41458056 39777912 38157532 36610972 35148828 33779180 
2470.067 32507106 31334530 30261414 29285428 28401930 27604002 26882934 
2473.442 26229646 25634066 25087988 24584532 24118644 23686248 23283860 
2476.817 22907480 22553274 22217420 21896774 21589808 21295690 21014740 
2480.193 20746660 20490520 20244736 20008114 19779942 19561282 19354476 
2483.568 19162488 18987854 18831182 18691064 18564652 18449028 18341764 
2486.943 18242130 18150602 18068524 17996752 17935524 17884214 17842058 
2490.318 17808744 17785030 17772188 17771670 17784442 17810124 17847514 
2493.694 17894952 17950684 18013294 18081892 18155196 18231142 18307410 
2497.069 18380962 18449272 18511020 18566174 18615558 18660832 18702722 
2500.444 18741708 18777308 18808932 18836302 18860664 18883296 18906412 
2503.819 18931782 18960820 18994154 19031784 19073258 19117956 19164946 
2507.195 19212598 19258730 19300954 19337120 19365528 19385310 19396258 
2510.570 19397818 19389052 19367712 19331578 19277816 19205290 19114252 
2513.945 19006442 18884852 18752434 18611824 18464586 18312076 18155680 
2517.320 17997788 17841264 17689664 17546292 17413176 17291170 17180606 
2520.696 17080170 16989816 16909060 16838100 16777137 16725827 16683681 
2524.071 16649939 16624048 16606146 16596956 16596921 16605837 16622981 
2527.446 16646668 16675176 16707232 16742632 16781786 16825770 16875162 
2530.821 16929696 16988542 17050428 17114670 17181262 17251070 17325270 
2534.197 17403898 17486920 17572582 17659434 17746404 17834016 17923784 
2537.572 18018026 18118334 18225440 18337858 18453800 18570842 18687398 
2540.947 18803430 18919600 19037148 19157120 19279756 19404644 19531058 
2544.322 19658410 19786252 19914338 20042012 20168300 20292126 20412166 
2547.698 20527758 20638966 20746208 20850174 20950548 21046770 21137000 
2551.073 21220182 21295654 21364388 21428016 21489008 21549136 21608926 
2554.448 21667678 21723792 21775696 21822174 21863114 21898170 21927164 
2557.823 21949014 21961456 21961840 21948108 21918972 21874264 21815274 
2561.198 21743404 21660190 21566756 21463802 21352276 21233472 21109588 
2564.574 20983094 20856814 20733314 20614680 20502434 20397962 20302402 
2567.949 20216722 20141540 20076678 20021574 19974840 19936124 19905112 
2571.324 19883086 19871570 19872332 19886346 19912744 19949860 19994686 
2574.699 20044684 20097568 20152230 20208668 20266990 20327714 20390946 
2578.075 20457002 20526056 20599254 20677608 20761952 20852678 20948880 
2581.450 21049136 21151888 21256020 21361882 21470800 21585316 21707142 
2584.825 21837746 21976478 22121670 22270500 22419908 22567164 22710144 
2588.200 22847722 22979090 23104174 23223210 23336722 23445470 23550434 
2591.576 23652238 23751444 23848218 23942600 24034834 24125542 24215816 
2594.951 24307056 24400276 24496776 24597154 24702186 24812576 24929590 
2598.326 25054570 25189136 25334104 25490366 25657334 25834390 26020838 
2601.701 26216164 26419926 26632132 26852196 27079354 27312170 27549806 
2605.077 27791532 28037984 28290234 28549850 28817942 29093958 29376318 
2608.452 29662056 29947522 30229512 30505362 30772780 31029934 31274776 
2611.827 31504366 31715476 31904642 32068674 32205396 32313746 32393600 
2615.202 32445692 32471326 32472148 32450118 32407560 32347336 32272488 
2618.578 32186482 32092716 31994552 31895016 31796570 31701394 31610798 
2621.953 31525460 31445340 31370218 31299702 31234150 31174302 31121620 
2625.328 31077908 31044844 31023670 31014738 31017940 31033314 31060896 
2628.703 31101544 31156290 31226068 31311240 31410966 31523358 31646260 
2632.079 31776998 31913880 32055936 32202754 32354652 32511782 32673936 
2635.454 32840400 33010684 33183896 33359538 33536966 33716084 33896492 
2638.829 34077976 34260256 34443328 34626868 34810816 34994332 35176348 
2642.204 35355352 35529968 35698900 35861848 36019248 36172304 36322252 
2645.580 36470620 36618364 36766300 36914968 37065528 37219460 37378328 
2648.955 37544148 37718348 37901724 38094476 38296436 38507428 38727436 
2652.330 38956584 39195096 39443424 39701336 39968484 40244920 40530296 
2655.705 40824708 41128680 41442600 41766736 42100976 42444896 42797684 
2659.081 43158224 43525620 43898496 44275948 44656408 45038672 45421900 
2662.456 45805392 46189444 46574088 46959820 47346560 47733752 48120328 
2665.831 48505728 48889468 49272100 49655328 50041244 50431964 50828956 
2669.206 51233432 51645492 52065116 52491832 52925188 53364552 53808604 
2672.582 54255588 54702992 55148156 55588496 56021860 56446828 56862016 
2675.957 57266368 57658428 58037012 58401676 58752612 59092368 59424676 
2679.332 59755072 60089864 60434820 60795520 61176472 61581048 62012372 
2682.707 62473012 62964736 63489124 64047016 64638300 65262356 65918348 
2686.083 66604928 67321024 68065200 68836088 69631480 70449416 71287480 
2689.458 72143984 73017984 73909304 74818312 75745800 76692904 77660384 
2692.833 78648960 79659616 80692464 81748008 82825416 83923456 85039888 
2696.208 86172288 87318104 88475920 89645096 90825728 92017928 93221712 
2699.583 94436368 95660384 96892000 98129320 99370416 100613288 101854608 
2702.959 103090368 104314408 105520232 106699848 107844864 108947904 
2705.852 110000648 110994808 111922088 112773336 113540392 114216208 
2708.745 114795232 115274384 115652216 115928720 116104736 116181888 
2711.638 116162576 116049592 115846208 115555840 115180336 114720736 
2714.531 114176296 113545208 112825960 112018184 111123432 110145672 
2717.424 109089976 107963048 106771704 105523400 104225824 102888256 
2720.317 101520856 100134424 98740792 97350800 95974608 94621856 93300272 
2723.692 92017808 90782280 89600056 88477416 87419272 86428656 85507712 
2727.068 84656800 83876352 83166528 82527520 81959680 81463128 81037488 
2730.443 80681496 80393360 80170896 80011960 79914408 79876368 79895848 
2733.818 79970248 80097128 80273200 80495160 80759576 81062928 81401024 
2737.193 81769288 82161936 82572160 82993128 83417064 83836280 84244352 
2740.569 84634896 85002456 85342856 85652896 85931456 86179440 86399432 
2743.944 86595704 86773296 86937320 87092176 87241984 87390176 87540248 
2747.319 87695072 87857416 88029120 88210704 88401424 88599832 88804424 
2750.694 89014840 89232168 89459568 89701512 89963688 90251912 90572296 
2754.070 90930496 91332376 91783120 92287688 92849016 93468464 94144728 
2757.445 94873536 95649400 96464752 97311080 98179576 99060048 99940768 
2760.820 100809368 101651816 102453904 103202928 103886960 104496024 
2763.713 105022592 105459872 105802368 106046528 106190616 106235600 
2766.606 106185664 106048176 105832168 105547992 105206912 104819336 
2769.499 104395944 103947616 103484616 103017320 102555264 102106280 
2772.392 101676352 101269392 100887392 100531552 100202184 99899104 99621288 
2775.768 99367008 99132480 98912184 98698664 98483368 98255848 98005728 
2779.143 97722144 97394624 97014192 96574536 96071992 95506864 94883424 
2782.518 94208976 93492920 92745792 91978456 91201304 90424072 89656136 
2785.893 88905008 88177128 87477304 86807208 86167040 85554760 84968280 
2789.269 84404928 83863456 83343240 82844944 82369320 81917272 81489224 
2792.644 81084856 80703240 80342448 80000128 79672872 79355776 79043840 
2796.019 78731256 78412504 78082840 77738608 77377176 76996904 76596296 
2799.394 76173864 75728568 75259016 74764000 74242928 73695392 73121136 
2802.770 72520424 71893600 71241720 70566768 69872192 69162024 68441720 
2806.145 67716960 66993132 66275416 65568744 64877652 64207436 63563412 
2809.520 62951260 62376224 61842936 61354116 60910980 60513352 60159964 
2812.895 59848920 59578044 59345660 59149888 58989192 58861876 58766572 
2816.271 58702012 58667536 58662984 58688812 58745788 58834936 58957236 
2819.646 59113628 59305016 59532096 59795528 60095496 60431164 60800968 
2823.021 61202452 61632632 62087864 62564268 63058020 63564264 64077964 
2826.396 64592472 65099964 65592020 66059448 66492692 66883468 67223768 
2829.771 67506544 67726720 67880560 67965920 67982888 67933448 67821608 
2833.147 67652256 67432392 67169232 66870952 66546180 66203324 65849668 
2836.522 65491648 65133184 64776444 64421720 64068556 63716488 63365884 
2839.897 63018256 62676260 62342640 62020284 61711192 61417204 61139700 
2843.272 60880940 60644772 60436036 60261244 60127044 60038880 60000116 
2846.648 60010232 60064220 60151208 60255608 60357676 60434020 60461780 
2850.023 60420540 60294780 60076624 59766708 59374340 58914772 58408080 
2853.398 57877300 57343420 56827004 56345112 55910292 55531784 55214068 
2856.773 54957608 54758732 54610288 54502728 54424040 54362340 54306276 
2860.149 54245336 54171764 54079844 53966864 53832424 53678372 53508260 
2863.524 53326716 53138504 52948728 52761692 52581732 52412724 52258316 
2866.899 52121896 52006360 51914008 51846088 51803116 51784936 51790760 
2870.274 51819316 51869160 51937756 52021972 52118236 52222440 52331568 
2873.650 52444016 52560488 52684064 52819352 52971752 53145620 53343800 
2877.025 53567332 53815580 54087052 54380552 54694576 55028500 55381084 
2880.400 55750380 56133492 56526864 56926488 57328976 57731384 58132156 
2883.775 58529736 58923464 59311932 59693556 60066276 60428000 60776348 
2887.151 61109568 61426172 61724864 62005380 62267600 62512264 62740916 
2890.526 62955320 63157908 63351244 63537948 63720748 63901888 64083724 
2893.901 64268136 64456044 64647996 64844064 65044112 65248764 65459324 
2897.276 65678388 65909520 66156016 66420332 66703432 67004272 67320176 
2900.652 67647376 67982576 68322648 68665784 69010640 69356408 69702312 
2904.027 70047864 70392448 70735976 71078920 71422168 71767016 72114296 
2907.402 72464904 72819168 73178032 73542496 73914136 74294424 74684144 
2910.777 75082992 75488560 75896168 76299560 76690736 77060648 77400344 
2914.153 77700328 77952256 78148800 78284720 78357736 78368960 78323448 
2917.528 78229328 78096680 77937264 77761832 77579480 77396976 77218432 
2920.903 77044304 76872936 76701088 76524440 76339224 76142392 75932344 
2924.278 75708208 75470032 75217248 74948904 74663528 74359264 74034704 
2927.654 73690560 73329160 72955232 72575128 72196800 71827808 71475640 
2931.029 71146824 70846384 70578304 70345728 70150312 69993944 69878112 
2934.404 69804992 69777328 69798648 69871880 69999168 70180488 70412824 
2937.779 70690552 71005360 71349016 71712888 72090592 72477864 72872232 
2941.155 73272160 73676232 74081512 74483304 74874176 75243728 75579600 
2944.530 75867080 76090080 76234400 76289136 76248776 76115744 75900504 
2947.905 75620736 75296608 74949888 74598480 74252720 73915472 73580800 
2951.280 73236976 72867360 72455160 71986240 71450720 70845832 70175192 
2954.656 69449600 68682824 67891408 67091540 66296488 65516420 64758248 
2958.031 64026280 63323064 62650724 62010844 61404148 60830396 60287928 
2961.406 59773324 59282492 58812248 58360516 57927804 57516896 57132600 
2964.781 56780592 56466112 56193824 55966640 55785644 55650336 55558332 
2968.156 55504940 55483104 55483820 55496396 55509308 55512172 55496396 
2971.532 55455996 55388952 55296516 55183932 55058704 54931248 54813236 
2974.907 54715624 54647564 54613068 54609876 54626448 54644032 54637608 
2978.282 54577340 54436096 54191848 53831032 53351892 52763864 52086628 
2981.657 51344924 50567664 49782988 49013636 48278044 47588056 46949520 
2985.033 46364340 45832712 45354952 44933420 44572764 44278736 44055788 
2988.408 43902344 43807848 43748332 43689336 43586828 43392868 43067624 
2991.783 42584160 41936108 41138916 40228596 39255364 38269836 37320588 
2995.158 36443488 35657676 34968404 34369012 33846304 33384438 32968822 
2998.534 32588172 32233372 31897760 31576164 31264450 30959404 30659052 
3001.909 30362636 30070544 29783686 29503330 29230454 28966148 28711910 
3005.284 28469144 28240232 28027486 27832756 27656862 27499574 27358924 
3008.659 27232470 27117372 27011156 26911980 26818608 26730574 26647598 
3012.035 26570096 26498316 26433096 26375350 26326024 26285646 26254564 
3015.410 26232460 26219298 26215250 26220670 26236262 26262450 26298602 
3018.785 26342606 26390842 26438236 26479370 26509552 26525014 26523496 
3022.160 26504374 26467852 26414856 26346656 26265162 26172982 26073436 
3025.536 25970780 25869660 25774472 25689112 25616174 25556638 25509938 
3028.911 25474168 25445954 25421116 25395436 25364594 25325534 25276892 
3032.286 25218982 25153850 25084198 25013222 24943488 24876816 24814294 
3035.661 24757080 24706150 24663328 24630152 24607990 24597540 24598380 
3039.037 24609286 24628924 24655962 24689736 24730280 24777426 24831100 
3042.412 24890220 24953314 25018488 25084056 25148828 25212136 25273730 
3045.787 25333332 25390624 25445078 25496550 25545254 25592100 25638108 
3049.162 25683910 25729504 25773698 25814204 25848666 25874936 25891888 
3052.538 25899482 25898746 25890726 25876448 25856298 25830626 25800000 
3055.913 25765610 25729328 25693610 25660708 25632448 25609532 25591538 
3059.288 25577620 25566760 25558080 25551368 25546484 25543638 25542794 
3062.663 25544270 25547958 25554426 25563844 25576600 25592662 25611852 
3066.039 25633502 25657440 25683698 25712946 25746450 25785618 25831364 
3069.414 25884114 25942956 26006624 26073436 26142190 26212188 26283818 
3072.789 26357782 26434962 26515996 26601378 26690756 26783786 26879620 
3076.164 26977518 27076710 27176558 27276358 27375934 27474970 27573462 
3079.540 27671340 27768218 27863456 27956100 28045336 28130594 28211982 
3082.915 28290022 28366062 28441372 28517048 28593624 28671204 28749540 
3086.290 28828636 28908664 28989912 29072844 29157560 29244242 29332432 
3089.665 29421772 29512374 29604766 29699804 29798306 29901268 30008762 
3093.041 30120330 30234984 30351692 30469464 30587730 30706522 30826062 
3096.416 30947128 31070256 31195912 31324490 31455920 31589630 31724670 
3099.791 31860176 31994660 32127574 32258854 32388818 32518498 32649108 
3103.166 32781046 32914706 33048976 33182788 33314850 33444342 33571044 
3106.542 33695352 33818152 33940808 34064212 34189664 34317804 34449708 
3109.917 34585568 34725384 34868760 35014624 35161944 35309812 35458056 
3113.292 35607176 35758472 35912916 36071052 36232556 36395564 36557952 
3116.667 36717472 36872332 37022116 37167268 37308708 37447776 37585048 
3120.042 37720840 37854800 37986844 38116688 38244472 38370376 38494760 
3123.418 38617512 38738448 38857216 38973400 39087112 39198392 39307560 
3126.793 39415196 39521804 39627856 39734120 39841500 39950684 40062256 
3130.168 40176220 40291704 40407588 40522260 40634124 40742088 40845824 
3133.543 40945536 41041704 41135128 41226312 41316092 41405088 41494180 
3136.919 41584744 41677556 41773376 41872284 41973224 42074472 42174360 
3140.294 42271168 42363868 42452828 42538588 42622644 42706168 42790116 
3143.669 42875136 42960764 43046840 43132460 43217220 43300568 43382396 
3147.044 43462848 43542212 43620752 43698716 43776292 43853812 43931048 
3150.420 44008156 44084688 44160496 44235404 44309004 44381004 44451652 
3153.795 44521328 44590936 44661404 44734120 44809712 44888148 44968916 
3157.170 45050544 45131524 45210828 45288348 45364512 45440884 45518992 
3160.545 45600132 45685192 45773912 45865596 45959472 46054988 46151672 
3163.921 46249440 46348084 46447264 46546428 46645284 46743168 46840444 
3167.296 46937376 47034476 47131556 47228332 47323536 47415328 47501812 
3170.671 47581148 47651840 47713004 47763928 47804392 47834692 47855184 
3174.046 47867208 47872236 47871868 47867984 47861584 47853520 47843976 
3177.422 47833100 47821116 47808908 47797624 47788416 47782460 47780612 
3180.797 47783088 47789856 47800548 47814860 47832140 47851560 47872056 
3184.172 47892808 47913232 47933728 47955932 47982056 48014880 48056624 
3187.547 48108076 48168672 48236128 48307224 48379000 48449528 48518028 
3190.923 48585020 48651612 48718924 48787948 48858988 48931892 49006328 
3194.298 49082040 49158656 49235988 49313596 49390920 49467408 49542936 
3197.673 49617556 49691624 49765708 49840400 49916112 49993316 50072588 
3201.048 50154916 50240876 50331308 50426120 50524412 50624400 50724452 
3204.424 50822848 50919180 51014156 51109340 51206296 51305808 51407208 
3207.799 51509152 51609520 51707148 51801696 51894776 51988544 52085284 
3211.174 52185896 52289972 52395040 52498340 52596840 52688776 52773964 
3214.549 52853888 52930728 53006860 53084548 53164604 53247152 53330988 
3217.925 53414200 53494656 53570332 53639680 53702216 53758576 53810296 
3221.300 53859352 53907400 53955572 54004008 54052152 54099176 54144248 
3224.675 54186968 54226904 54263888 54297036 54325312 54346904 54361024 
3228.050 54367292 54366620 54360608 54351484 54341044 54330304 54319416 
3231.426 54307588 54294412 54279464 54262984 54245152 54226232 54205584 
3234.801 54181860 54153668 54119516 54078832 54031888 53980108 53924996 
3238.176 53868056 53810556 53752464 53693856 53634696 53574716 53514256 
3241.551 53453396 53392428 53330988 53268800 53204980 53139588 53072156 
3244.927 53003272 52933384 52863544 52794356 52727012 52661920 52599756 
3248.302 52540708 52484840 52432124 52382628 52336016 52292808 52253348 
3251.677 52218180 52187168 52160304 52136616 52114836 52094064 52073668 
3255.052 52054132 52036128 52020664 52008188 51998440 51990116 51981784 
3258.427 51972560 51962328 51951872 51942832 51937080 51935664 51939100 
3261.803 51946496 51957028 51969832 51984064 51999712 52016332 52033364 
3265.178 52049460 52063544 52074680 52083268 52090700 52099144 52111360 
3268.553 52129368 52154252 52185784 52223188 52265528 52311796 52361544 
3271.928 52414444 52469472 52525300 52580536 52633420 52682980 52729144 
3275.304 52773064 52816060 52859504 52904116 52950152 52997244 53045312 
3278.679 53094244 53144272 53195836 53248688 53302064 53354816 53405992 
3282.054 53455272 53503764 53553312 53605976 53663372 53725880 53792068 
3285.429 53859276 53924812 53986376 54042956 54094972 54143648 54190984 
3288.805 54238172 54286036 54335000 54384232 54433692 54482932 54532108 
3292.180 54581508 54632272 54685032 54740844 54800456 54863572 54929180 
3295.555 54995556 55060356 55121368 55176896 55226488 55270624 55310780 
3298.930 55348152 55383872 55417936 55449484 55477720 55502080 55522376 
3302.306 55539996 55556036 55572004 55588796 55606876 55625704 55644988 
3305.681 55663856 55681900 55698472 55712976 55724692 55732524 55736256 
3309.056 55735236 55730116 55721412 55709852 55695688 55678924 55659412 
3312.431 55636780 55611128 55583188 55553740 55523616 55493496 55463300 
3315.807 55432580 55400732 55367420 55332684 55296968 55260952 55225204 
3319.182 55189652 55154172 55118020 55080444 55040984 54999164 54954228 
3322.557 54905644 54852784 54795152 54732608 54665716 54595108 54522112 
3325.932 54447624 54372512 54296964 54221536 54146016 54070540 53995080 
3329.308 53919332 53842324 53762816 53679160 53590084 53495216 53395168 
3332.683 53292136 53187676 53083724 52980696 52878216 52774040 52666560 
3336.058 52553832 52435376 52311348 52183132 52052040 51919644 51787064 
3339.433 51655048 51524152 51394488 51265836 51138004 51010020 50881032 
3342.809 50749848 50615876 50478740 50338680 50195716 50050052 49901356 
3346.184 49749472 49593856 49434696 49273028 49110276 48948360 48788764 
3349.559 48632344 48479312 48329000 48180628 48033496 47887332 47742148 
3352.934 47598192 47455500 47313636 47172148 47030304 46887544 46743684 
3356.310 46599100 46453976 46309156 46165416 46023824 45885520 45751784 
3359.685 45623540 45501072 45383716 45270216 45158252 45045912 44931472 
3363.060 44814084 44693904 44571148 44446664 44321152 44194976 44069244 
3366.435 43944944 43823644 43706704 43595324 43489396 43388072 43289624 
3369.811 43191932 43093308 42992588 42890096 42785912 42680472 42573888 
3373.186 42465980 42356820 42246772 42137120 42029536 41926140 41827772 
3376.561 41734748 41645864 41559404 41473364 41386360 41297836 41207840 
3379.936 41116916 41025608 40933848 40841344 40747368 40651628 40553576 
3383.312 40453116 40349988 40244268 40135512 40023852 39909636 39793456 
3386.687 39676576 39559948 39444804 39331684 39220548 39111404 39003592 
3390.062 38896708 38789784 38682052 38572060 38459172 38342576 38223160 
3393.437 38102364 37982324 37864848 37750656 37638448 37525724 37408592 
3396.813 37283832 37149832 37006964 36857796 36706364 36556724 36411888 
3400.188 36273076 36140832 36013668 35890600 35769912 35649976 35529680 
3403.563 35407184 35281744 35152816 35020048 34884628 34747168 34608136 
3406.938 34467824 34325728 34181204 34034072 33885100 33736172 33589484 
3410.313 33446956 33309270 33175562 33043504 32910664 32774438 32633678 
3413.689 32488536 32339626 32187768 32033786 31877794 31719856 31559948 
3417.064 31398390 31235504 31070542 30901764 30726368 30541052 30342986 
3420.439 30130808 29905776 29670856 29430210 29187574 28945180 28703838 
3423.814 28462386 28219440 27973910 27725692 27475146 27223228 26970538 
3427.190 26717184 26462430 26206030 25947528 25687460 25426318 25165120 
3430.565 24904116 24643478 24383138 24123442 23865512 23610920 23362034 
3433.940 23121122 22889388 22667414 22454344 22249086 22050200 21856808 
3437.315 21668098 21483856 21303902 21128232 20956250 20787846 20621732 
3440.691 20457106 20292716 20127832 19961794 19795510 19630228 19468436 
3444.066 19312526 19163596 19020914 18881150 18739286 18589412 18427386 
3447.441 18251598 18064688 17871716 17679690 17495132 17322236 17162476 
3450.816 17014764 16876678 16744835 16616957 16491560 16368229 16246445 
3454.192 16126210 16007178 15889104 15771683 15655255 15539750 15425512 
3457.567 15312918 15201622 15091967 14984295 14879083 14776674 14677100 
3460.942 14579399 14482028 14383514 14282626 14179913 14077087 13976510 
3464.317 13880573 13790405 13705146 13622262 13538606 13451346 13359182 
3467.693 13262836 13163949 13064710 12966859 12870463 12775829 12681693 
3471.068 12588260 12495972 12405749 12318511 12234290 12151550 12068179 
3474.443 11981416 11889973 11793544 11694037 11594589 11498974 11411033 
3477.818 11332701 11264890 11206814 11156394 11109958 11063221 11011663 
3481.194 10951276 10879753 10796728 10705023 10608382 10512542 10421848 
3484.569 10338943 10263756 10194178 10125697 10054276 9975544 9887742 
3487.944 9790502 9685390 9575155 9463220 9353040 9247323 9148095 9056162 
3491.802 8971218 8892175 8817136 8744443 8672303 8599431 8524713 8447136 
3495.659 8365756 8279832 8189400 8095578 8001101 7909884 7826243 7753952 
3499.516 7695163 7649466 7613789 7582835 7550400 7509876 7455738 7384654 
3503.374 7295656 7190673 7074199 6953311 6835385 6727587 6635392 6560405 
3507.231 6500735 6450657 6403006 6350116 6286440 6209901 6121916 6026624 
3511.089 5929169 5833920 5743728 5659227 5579677 5504067 5431188 5360469 
3514.946 5292108 5226441 5163937 5104961 5049848 4998697 4951841 4909951 
3518.803 4873526 4842901 4818744 4800787 4788793 4780887 4774555 4766515 
3522.661 4752278 4728830 4694463 4649785 4598112 4543565 4490599 4441422 
3526.518 4395631 4350046 4300450 4242929 4175413 4098241 4014562 3927689 
3530.376 3841168 3756970 3676765 3601485 3532834 3473311 3425952 3392323 
3534.233 3371953 3361334 3354189 3343571 3323671 3291385 3247284 3195244 
3538.091 3141140 3090614 3048169 3017305 2999088 2994384 3002791 3023744 
3541.948 3055543 3095152 3138704 3180390 3214403 3234499 3235333 3212334 
3545.805 3162734 3085942 2984975 2865587 2737396 2611542 2498455 2406187 
3549.663 2337590 2290522 2257347 2228404 2193736 2145817 2081823 2003558 
3553.520 1916320 1826539 1741400 1666555 1605525 1560630 1532599 1520329 
3557.378 1521094 1530471 1543405 1554878 1561063 1560929 1556174 1550854 
3561.235 1550588 1562659 1593552 1649126 1734347 1851228 1997832 2165963 
3565.093 2340622 2499388 2614009 2659979 2618342 2485258 2272769 2006953 
3568.950 1719677 1440070 1191675 987256 830071 716517 637967 584546 545928 
3573.290 514246 483495 451055 416329 381208 348743 321585 301690 289257 
3577.629 282228 277122 269695 256698 236409 209159 177667 146676 122182 
3581.969 111444 122546 163282 239989 357033 513582 702844 909487 1111477 
3586.308 1281392 1390673 1418063 1354608 1207424 998714 760262 526487 325000 
3590.648 176242 88476 59711 79131 129407 191954 247581 282062 287831 263727 
3595.470 214662 148532 75353 3876 -58974 -108599 -144175 -167195 -182265 
3599.809 -195910 -215119 -244857 -287508 -340517 -397227 -447973 -481535 
3603.667 -487327 -458200 -389878 -283269 -144175 16037 182043 335545 457789 
3608.006 534748 560359 539657 487177 422664 365854 328946 314986 316843 
3612.346 322447 317971 294926 253947 204949 164210 147073 165635 223215 
3616.686 313826 422266 526255 602164 626751 585840 476364 308355 101633 
3621.025 -118173 -325353 -500333 -629818 -707200 -731381 -703528 -624061 
3624.883 -491596 -302706 -55495 246554 586968 931302 1230251 1422850 1460649 
3629.222 1329448 1059227 710411 350500 33864 -211641 -381768 -489743 -557420 
3633.562 -609073 -663829 -731083 -810199 -893632 -972124 -1037677 -1086331 
3637.419 -1118125 -1135541 -1141259 -1137590 -1125726 -1106822 -1082299 
3640.794 -1054667 -1026768 -999232 -969281 -929441 -867708 -768923 -619727 
3644.652 -411131 -141989 179491 535444 899061 1241117 1530803 1742132 
3648.509 1856320 1862509 1757934 1549125 1253146 898596 521080 161293 
3652.367 -144407 -371340 -506258 -552622 -528696 -466640 -404113 -377100 
3656.224 -409376 -504371 -646460 -808645 -964884 -1096345 -1194098 -1259386 
3660.082 -1298765 -1320766 -1332493 -1339033 -1342403 -1342997 -1339661 
3663.457 -1329652 -1309105 -1272072 -1210388 -1116109 -981116 -801269 
3666.832 -576911 -317208 -38201 234221 467142 628443 695543 666903 565966 
3671.172 437291 333191 294495 345990 488272 699326 931833 1122572 1209551 
3675.511 1151309 950395 649647 312831 -6229 -277110 -491828 -659132 -794291 
3679.851 -911983 -1019959 -1119744 -1207149 -1277028 -1324730 -1347952 
3683.226 -1345343 -1315085 -1253868 -1157782 -1022570 -847966 -638454 
3686.601 -406099 -170441 44799 215093 321353 356038 321751 228022 87217 
3690.941 -88061 -286349 -494310 -697011 -879910 -1030801 -1142349 -1214220 
3694.798 -1252580 -1268108 -1271313 -1270949 -1269561 -1264242 -1247624 
3698.174 -1211478 -1150776 -1066169 -965049 -861193 -772429 -715767 -702899 
3702.031 -736607 -810001 -908313 -1012356 -1104013 -1168522 -1195585 
3705.406 -1180285 -1121595 -1021182 -882853 -712625 -517973 -308567 -96972 
3709.264 101468 271054 394374 456959 449198 369303 224043 28960 -194055 
3713.603 -422452 -635873 -817342 -956585 -1048618 -1093800 -1097205 -1067260 
3717.461 -1014736 -949378 -878819 -806991 -734688 -661547 -587367 -514267 
3721.318 -445622 -385840 -337074 -299196 -268832 -242572 -218629 -200050 
3725.176 -193956 -210747 -258203 -338001 -440823 -549147 -639479 -688443 
3729.033 -679808 -606128 -469619 -279594 -51553 198120 456130 712800 961553 
3733.373 1195064 1400479 1556972 1639148 1622286 1494760 1265641 966335 
3737.230 639493 327885 63887 -135563 -265355 -325850 -318599 -243400 -98297 
3741.570 117575 397127 719670 1047635 1323566 1486947 1500679 1373155 
3745.427 1158684 928811 747716 651705 650145 731685 871205 1034682 1183303 
3749.767 1285081 1317351 1270426 1146126 954612 713132 444057 174286 -68847 
3754.106 -265090 -401630 -475842 -494310 -470182 -419671 -359057 -303335 
3757.964 -264627 -251182 -270024 -324492 -414342 -531873 -662473 -785559 
3761.821 -878554 -924845 -916282 -856795 -760786 -651059 -552622 -483752 
3765.678 -451481 -449297 -461974 -471241 -464820 -440856 -408747 -385674 
3769.536 -390971 -438969 -532965 -664359 -815094 -965049 -1096478 -1197270 
3773.393 -1263417 -1295825 -1299756 -1280464 -1242140 -1186432 -1113432 
3776.769 -1024190 -923391 -820650 -731017 -671703 -656187 -689733 -765714 
3780.626 -867080 -970934 -1056088 -1109202 -1126652 -1114655 -1086199 
3784.001 -1057410 -1041643 -1046866 -1073573 -1116638 -1167332 -1216897 
3787.376 -1258758 -1288855 -1305703 -1310063 -1304282 -1291663 -1275805 
3790.752 -1259584 -1244254 -1228263 -1206819 -1173016 -1120042 -1043230 
3794.127 -943096 -826206 -704884 -593521 -504801 -443603 -404941 -374418 
3797.984 -332604 -263269 -157291 -17759 138953 283554 380943 404589 345758 
3802.324 221756 66571 -79448 -185345 -235750 -231810 -190081 -138146 -110256 
3806.664 -134271 -222603 -367367 -544051 -722383 -875809 -989579 -1058699 
3810.521 -1085240 -1074333 -1029975 -953312 -843072 -697937 -520885 -321215 
3814.378 -119100 58485 184595 242012 234320 185756 134876 117940 158310 
3818.718 262136 415732 587831 732747 805804 774934 636540 417026 162751 
3823.058 -78222 -272905 -404411 -473624 -493880 -485804 -471374 -466276 
3826.915 -477629 -501326 -526247 -537829 -525386 -484248 -417586 -334524 
3830.772 -246778 -165174 -95249 -36611 17296 75055 144488 230408 332959 
3835.112 447573 566198 679680 777523 850156 890893 896039 865428 803779 
3839.452 717779 615403 504029 390494 278813 170839 65676 -39858 -149839 
3843.791 -267640 -393454 -523136 -647850 -755825 -834341 -872040 -861623 
3847.649 -798822 -682488 -512810 -289991 -14015 314390 689503 1097027 
3851.506 1509091 1878549 2145018 2250086 2161101 1893291 1505899 1078392 
3855.364 673872 329543 56928 -148348 -296183 -395010 -449727 -462040 -433441 
3859.703 -367367 -271547 -156960 -35186 82776 189800 281465 353949 402566 
3864.043 421536 406877 361477 297844 239161 210385 232497 314124 446710 
3868.382 603425 742937 824328 819514 728665 578076 410426 263793 158442 
3872.722 94574 55370 16865 -43270 -134635 -249791 -367632 -461245 -507482 
3877.062 -491033 -410005 -274163 -105850 67035 213004 305338 331068 293865 
3881.401 215192 125099 55735 30583 58021 128479 216087 286405 304011 249305 
3886.223 126590 -35683 -197400 -321281 -381172 -370115 -297342 -186902 
3890.080 -69112 23857 66571 47781 -28891 -147322 -286150 -422717 -537201 
3894.420 -615459 -646361 -623929 -545970 -415434 -239625 -30184 196628 
3898.277 423029 631662 807962 943455 1037140 1094038 1122041 1129250 1119118 
3902.617 1090649 1036973 949399 821971 654459 454372 235348 14115 -193592 
3906.957 -376736 -528993 -648412 -736772 -797234 -833878 -850711 -852199 
3910.814 -842840 -826173 -804676 -778151 -743520 -695324 -628363 -539749 
3914.671 -431257 -310255 -188922 -82065 -1590 44733 56165 36680 -6063 -64440 
3919.493 -132217 -203196 -271547 -329856 -370644 -387793 -379285 -349125 
3923.351 -307474 -268137 -245751 -249924 -281945 -334822 -395672 -449628 
3927.208 -483752 -490934 -469586 -423147 -358230 -283567 -208594 -142850 
3931.065 -96276 -77294 -91506 -140697 -220682 -322407 -432813 -538855 
3934.923 -630083 -700054 -747291 -774546 -785923 -785659 -776299 -757743 
3938.780 -728337 -685730 -628892 -559538 -482494 -406530 -341080 -295918 
3942.638 -277574 -287077 -319427 -364487 -410038 -444232 -459293 -453169 
3946.495 -429900 -397790 -367234 -347834 -345351 -361408 -393387 -436752 
3950.353 -485208 -534255 -580352 -621216 -655658 -683150 -703726 -718314 
3954.210 -728172 -735251 -741172 -746927 -752319 -756519 -757545 -754270 
3958.067 -746365 -734589 -720365 -705579 -692049 -680900 -672729 -668329 
3961.925 -667965 -672199 -680768 -692346 -705281 -716561 -723574 -724401 
3965.782 -718513 -706836 -691056 -673390 -655724 -639082 -623962 -610694 
3969.640 -599213 -589782 -582304 -576513 -571484 -565958 -559240 -550967 
3973.497 -542297 -534785 -530582 -530946 -536175 -545176 -556030 -566156 
3977.354 -573668 -577241 -576315 -570723 -560994 -547724 -532104 -515756 
3981.212 -501128 -490669 -486532 -489643 -499142 -512910 -527802 -540411 
3985.069 -548849 -551861 -550074 -544812 -537829 -530450 -523765 -518304 
3988.927 -514167 -511420 -509964 -509335 -509137 -508673 -507648 -506588 
3992.784 -506191 -508409 -514664 -525750 -541569 -560795 -581411 -600702 
3996.642 -616981 -628826 -636105 -639215 -639082 -636799 -633292 -629554 
4000.499 -626245 
##END=
