
##TITLE=Z404_3_d
##JCAMP-DX=5.01  $$ Nicolet v. 1
##DATATYPE=INFRARED SPECTRUM
##ORIGIN=UniL
##OWNER=Nicolet
##LONGDATE=2011/09/21
##TIME=13:42:38
##SPECTROMETER/DATA SYSTEM=Nicolet iS5
##DATA PROCESSING=
Ratio against background
%Transmittance->Absorbance
Truncated
ElementMultiply or ElementDivide
##COMMENTS=
Number of sample scans: 32
Collection length: 51.20 sec
Sample gain: 2.0
Background collected on: Mer Sep 21 13:36:06 2011 (GMT+02:00);
Number of background scans: 32
Background gain: 2.0
Sample spacing:  1.000
Number of scan points: 12415
Resolution points: 8192
Number of FFT points: 65536
Apodization: N-B fort;
Phase correction: Mertz;
Laser frequency: 15798.0 cm-1
Number of rejected sample scans: 0
Number of rejected background scans: 0
Bench serial number: ASB1000141;
##RESOLUTION=4.000
##XUNITS=1/CM
##YUNITS=ABSORBANCE
##FIRSTX=649.893372
##LASTX=4000.122314
##FIRSTY=0.093417
##MAXX=4000.122314
##MINX=649.893372
##MAXY=0.276646
##MINY=-0.002892
##XFACTOR=1.000000
##YFACTOR=1.000000E-009
##NPOINTS=6950
##DELTAX=0.482117
##ZPD=6100
##XYDATA=(X++(Y..Y))
649.893 93417064 93135064 92839128 92534992 92220736 91892872 91553352 
653.268 91215808 90904800 90650264 90475080 90387272 90377400 90422728 
656.643 90496184 90575320 90647120 90705264 90746824 90766792 90758184 
660.018 90715104 90636552 90529608 90409016 90290992 90191312 90120640 
663.393 90083656 90082072 90115424 90178344 90256080 90316656 90304624 
666.767 90138992 89744696 89089976 88224952 87264016 86328888 85493112 
670.142 84765200 84108288 83464248 82779304 82014512 81159184 80226728 
673.517 79248352 78257264 77276616 76318288 75383112 74468872 73574992 
676.892 72704336 71862248 71053160 70278840 69539504 68836280 68172992 
680.267 67557632 66998660 66502652 66069440 65692500 65359324 65055004 
683.642 64766520 64486100 64211012 63943044 63684792 63437892 63202404 
687.016 62976612 62759324 62551492 62355568 62175524 62013212 61867884 
690.391 61735060 61608232 61481136 61349880 61214960 61080276 60951504 
693.766 60833520 60728940 60637532 60556812 60484556 60418824 60359580 
697.141 60306468 60258084 60210540 60157600 60092148 60008712 59904752 
700.516 59782488 59647292 59506556 59366208 59230272 59099276 58970864 
703.890 58841652 58708004 58566964 58417632 58260812 58099428 57939240 
707.265 57789404 57659560 57561416 57504980 57497224 57543600 57649912 
710.640 57824416 58082536 58445004 58932760 59559152 60317736 61173268 
714.015 62056252 62877648 63537216 63943960 64040564 63807852 63269860 
717.390 62484756 61540236 60543632 59605824 58848368 58386704 58310760 
720.765 58674704 59465292 60591132 61869340 63058628 63902928 64167260 
724.139 63713452 62524512 60713512 58484616 56089152 53770056 51694940 
727.514 49954248 48558968 47467104 46612712 45931036 45376656 44919344 
730.889 44539684 44222788 43951100 43707144 43477204 43253092 43034696 
734.264 42825220 42628200 42443692 42268392 42097764 41929572 41766044 
737.639 41612240 41472964 41349436 41236804 41126532 41009332 40879092 
741.013 40736228 40586212 40436824 40293852 40159104 40029808 39902408 
744.388 39774680 39647716 39526632 39417008 39322576 39243036 39174752 
747.763 39112240 39050680 38987608 38921788 38852500 38777612 38693096 
751.138 38595092 38481400 38354340 38220156 38088620 37967824 37863800 
754.513 37778052 37709672 37657132 37620780 37603072 37608024 37638448 
757.888 37695072 37775776 37877428 37997656 38136404 38295276 38475676 
761.262 38677160 38897216 39131708 39379096 39643324 39936808 40281636 
764.637 40707516 41254548 41971580 42911748 44132732 45678932 47562252 
768.012 49737956 52087376 54425392 56505768 58092232 59016484 59232588 
771.387 58850568 58116664 57361684 56875688 56839392 57251852 57931288 
774.762 58550512 58731032 58180832 56751480 54499988 51646688 48526808 
778.136 45485032 42785948 40600216 38975864 37870020 37184952 36811628 
781.511 36658520 36656324 36763304 36954360 37210940 37519656 37871936 
784.886 38265568 38706792 39207388 39781468 40439808 41189368 42033808 
788.261 42977220 44028176 45202076 46518952 48003404 49680220 51572468 
791.636 53705556 56106760 58806104 61836980 65226048 68985928 73101960 
795.010 77527232 82177184 86927936 91637800 96150832 100318056 104033200 
798.385 107248272 110003976 112426200 114731400 117185200 120032280 
801.278 123459368 127509488 132046312 136714688 140985808 144254800 
804.171 145907840 145518128 142943072 138376096 132297832 125361856 
807.063 118262816 111527184 105464888 100132712 95382120 90945080 86542568 
810.438 81991776 77233352 72342184 67471672 62809640 58514988 54681876 
813.813 51346044 48488832 46063060 44009032 42271788 40805708 39571056 
817.188 38535996 37673752 36962512 36387960 35942000 35620268 35419516 
820.563 35333788 35354456 35472004 35678864 35972736 36356940 36840156 
823.938 37433184 38144868 38980540 39939568 41014684 42188964 43435380 
827.312 44716708 45983268 47183376 48272084 49221812 50036520 50757332 
830.687 51466512 52271360 53299480 54682324 56524680 58892684 61782464 
834.062 65104856 68659704 72136672 75168200 77336160 78274328 77756200 
837.437 75730816 72357648 67954952 62958224 57802652 52853068 48385108 
840.812 44541628 41360592 38803516 36791252 35230176 34028876 33112980 
844.186 32418806 31892802 31493824 31189682 30958656 30789746 30677934 
847.561 30620472 30613008 30648810 30719860 30820690 30949974 31111152 
850.936 31309534 31549226 31830478 32149732 32502248 32886110 33304584 
854.311 33766184 34281336 34858956 35503936 36216816 36997584 37851040 
857.686 38789240 39834600 41018144 42374172 43942708 45766072 47887480 
861.060 50353748 53203780 56454904 60080772 63992492 68026992 71932280 
864.435 75412640 78157488 79880952 80397544 79639752 77680040 74706768 
867.810 71002120 66894912 62684676 58636628 54943096 51710544 48983704 
871.185 46753424 44979352 43603896 42567604 41818648 41310588 41006744 
874.560 40878544 40901956 41060424 41344188 41751420 42287712 42963104 
877.935 43788572 44767728 45890784 47127864 48430708 49730264 50944476 
881.309 51995680 52814672 53358188 53618088 53622924 53432672 53123304 
884.684 52778044 52466408 52234588 52107400 52088908 52172748 52350820 
888.059 52618980 52979012 53434808 53987576 54630880 55348980 56119504 
891.434 56916176 57712424 58486740 59219640 59894288 60495296 61006676 
894.809 61413920 61706300 61876868 61924628 61853716 61673304 61397776 
898.183 61046948 60648204 60232960 59833860 59482124 59197960 58989308 
901.558 58850376 58765776 58715172 58680964 58654376 58636968 58640344 
904.933 58682176 58783680 58966348 59248996 59649344 60182452 60859976 
908.308 61690832 62679664 63827620 65134184 66599092 68224560 70015984 
911.683 71981000 74128040 76465176 79000240 81744088 84715304 87942528 
915.058 91467824 95344896 99627992 104368592 109600744 115331296 121526824 
918.432 128100920 134910800 141726688 148243792 154103824 158895312 
921.325 162248976 163904992 163777568 162012144 158985280 155292080 
924.218 151609680 148649392 147062384 147299088 149593808 153894720 
927.110 159880288 166943600 174260768 180959888 186148288 189111776 
930.003 189434016 186993632 181966480 174722128 165759600 155597280 
932.896 144722208 133602680 122635984 112159896 102464776 93754224 86163720 
936.271 79764720 74564736 70533440 67617256 65755716 64881264 64911700 
939.646 65741644 67212048 69103512 71158808 73073848 74556040 75375072 
943.020 75377240 74525432 72891120 70642280 67996960 65182344 62414400 
946.395 59850404 57590584 55680808 54119856 52877652 51909488 51171176 
949.770 50622728 50231016 49970940 49820220 49758500 49768720 49835572 
953.145 49948116 50100660 50290424 50516556 50777484 51069500 51387588 
956.520 51726516 52082220 52453696 52840908 53244228 53662548 54092572 
959.894 54529100 54967464 55405216 55842880 56282944 56728972 57182412 
963.269 57642344 58106096 58570948 59035956 59502680 59975044 60456524 
966.644 60948992 61451516 61961504 62476264 62995648 63522340 64061640 
970.019 64618848 65197744 65799856 66424504 67071312 67742248 68441608 
973.394 69175504 69949296 70765768 71624416 72522344 73456824 74427216 
976.768 75435224 76484096 77574968 78704640 79864704 81041808 82221024 
980.143 83388888 84533800 85646280 86716816 87734248 88685976 89560144 
983.518 90348792 91050576 91672208 92226592 92728112 93191568 93629240 
986.893 94051232 94467672 94890144 95330488 95800160 96307560 96855016 
990.268 97439944 98056600 98698952 99363424 100049144 100756336 101483640 
993.643 102226432 102976112 103722680 104457632 105176400 105877912 
996.535 106562704 107230408 107877104 108496816 109083504 109635376 
999.428 110157208 110660592 111161568 111674864 112213264 112784976 
1002.321 113395560 114050688 114758248 115527128 116366544 117281720 
1005.213 118273000 119336456 120467264 121663080 122927568 124268624 
1008.106 125697152 127221256 128844232 130562592 132368016 134250624 
1010.999 136199136 138199248 140233104 142272688 144282656 146226176 
1013.891 148070208 149797760 151413040 152943328 154431088 155926064 
1016.784 157479376 159134096 160925664 162884016 165031472 167384768 
1019.677 169951664 172730112 175708000 178868736 182199648 185697744 
1022.570 189375232 193255040 197365712 201729792 206357136 211242672 
1025.462 216368880 221712064 227241472 232920656 238699552 244501360 
1028.355 250225312 255744336 260908064 265569264 269582272 272808608 
1031.249 275129792 276437632 276646400 275710432 273633824 270484480 
1034.142 266382784 261498624 256021920 250133456 244010736 237809264 
1037.035 231662400 225698384 220028464 214747360 209940256 205670688 
1039.928 201987712 198928688 196511536 194729008 193529472 192806624 
1042.821 192376848 191977856 191315440 190073088 187981568 184884992 
1045.714 180752560 175697728 169935600 163760336 157477232 151350960 
1048.607 145604624 140383072 135758400 131746424 128315512 125404536 
1051.500 122934256 120825968 119007000 117414912 116005536 114745776 
1054.393 113610672 112580448 111633896 110748832 109904064 109079592 
1057.286 108259144 107430648 106583112 105706040 104789048 103822152 
1060.179 102799920 101724304 100606560 99464984 98322328 97203096 96128416 
1063.554 95115752 94179464 93329888 92573120 91907776 91322152 90790152 
1066.930 90271248 89718336 89081840 88321744 87418624 86375376 85218296 
1070.305 83988704 82739008 81520848 80377096 79342016 78435240 77663784 
1073.680 77023696 76502200 76081792 75740712 75459976 75222496 75014704 
1077.055 74825792 74645152 74459624 74254720 74014744 73727432 73388040 
1080.431 73002192 72586056 72162376 71758656 71401352 71112632 70912000 
1083.806 70815880 70838584 70994896 71298024 71759200 72387432 73188072 
1087.181 74163648 75314104 76635544 78117304 79736528 81458208 83231056 
1090.556 84992376 86682912 88250856 89666080 90923640 92041152 93050568 
1093.932 93985248 94873696 95732416 96567248 97380480 98178664 98979472 
1097.307 99817288 100736528 101784032 102995560 104377064 105891152 
1100.200 107445168 108904048 110092256 110820808 110934016 110324104 
1103.093 108962896 106904336 104277920 101262368 98044304 94811160 91715016 
1106.468 88859552 86309080 84083960 82173016 80542512 79147912 77941352 
1109.844 76874320 75905952 75001792 74133184 73279264 72422432 71548888 
1113.219 70649024 69717448 68755568 67771184 66779316 65799392 64850496 
1116.594 63950872 63113764 62346924 61653980 61035696 60491604 60020772 
1119.969 59621220 59289708 59020280 58805004 58633516 58493488 58370708 
1123.344 58247440 58099768 57899524 57612980 57205508 56650296 55931364 
1126.720 55050764 54027876 52898912 51709424 50504276 49325848 48204656 
1130.095 47157672 46191064 45300960 44478012 43709340 42982380 42285924 
1133.470 41611512 40954820 40315664 39697560 39106292 38548344 38029084 
1136.845 37552024 37118652 36729444 36385116 36087036 35837416 35638288 
1140.221 35490524 35393384 35344964 35342952 35386048 35474632 35609836 
1143.596 35792836 36022736 36296204 36607476 36949272 37314048 37695396 
1146.971 38087640 38485236 38882688 39274228 39654396 40020544 40372824 
1150.346 40715012 41052816 41392260 41737808 42091084 42451728 42818308 
1153.722 43190136 43567340 43950848 44340672 44734672 45128252 45514172 
1157.097 45883972 46229648 46543772 46819444 47050168 47228408 47346188 
1160.472 47396368 47373196 47273624 47097508 46846608 46523820 46131516 
1163.847 45672416 45149720 44568280 43936512 43265316 42567492 41856884 
1167.223 41146056 40445260 39763568 39107816 38484944 37902156 37366232 
1170.598 36883764 36460388 36099892 35804888 35577652 35420196 35335332 
1173.973 35325520 35392912 35538708 35763476 36068136 36455920 36932680 
1177.348 37506940 38189728 38992464 39925872 41000336 42226248 43615364 
1180.724 45182848 46945236 48920396 51125888 53575276 56278948 59242500 
1184.099 62465512 65937324 69630000 73495632 77452656 81386632 85162664 
1187.474 88619824 91598352 93959568 95587824 96414160 96418624 95632136 
1190.849 94129752 92020960 89442632 86531648 83420720 80230832 77055144 
1194.225 73967088 71018624 68238936 65641740 63227200 60986624 58905592 
1197.600 56968384 55161472 53474380 51902020 50443724 49102188 47881488 
1200.975 46784536 45811612 44959324 44221064 43587448 43048160 42593076 
1204.350 42211640 41893448 41626608 41397652 41193088 40999756 40807312 
1207.726 40609676 40404640 40193488 39978980 39764804 39554792 39353376 
1211.101 39167244 39005516 38879280 38801920 38785908 38841812 38977892 
1214.476 39199224 39509064 39909200 40400020 40980384 41646884 42394004 
1217.851 43214916 44102620 45052972 46064200 47138020 48277528 49486416 
1221.227 50768356 52126156 53564184 55088644 56707224 58428516 60258732 
1224.602 62199648 64245700 66384308 68596288 70854728 73128552 75379920 
1227.977 77563640 79632952 81539320 83238560 84699800 85906904 86862000 
1231.352 87584312 88110720 88494112 88797592 89101936 89498368 90080400 
1234.728 90948600 92195336 93897496 96119864 98906448 102283456 106261704 
1238.103 110837568 115991080 121679520 127840088 134382032 141186464 
1240.996 148126832 155063968 161858048 168383504 174514896 180131680 
1243.889 185123632 189383232 192815728 195346816 196917568 197489120 
1246.782 197042432 195578080 193122176 189727840 185477424 180467568 
1249.675 174797296 168556144 161809824 154606464 146988112 139004208 
1252.568 130729152 122270912 113758456 105344648 97188264 89426552 82180864 
1255.943 75537448 69539104 64194224 59476768 55337500 51711180 48528476 
1259.319 45724616 43237684 41017016 39022332 37220544 35588692 34109764 
1262.694 32770470 31560126 30467970 29482266 28591960 27786586 27057454 
1266.069 26397954 25802356 25264494 24777530 24333160 23924046 23545888 
1269.444 23198326 22885790 22615296 22395380 22232522 22130874 22092556 
1272.820 22119402 22214386 22383240 22632260 22967458 23390884 23898454 
1276.195 24477706 25106032 25753306 26379434 26937784 27383592 27674450 
1279.570 27781500 27694966 27426614 27007240 26478418 25887244 25274434 
1282.945 24667920 24084494 23529552 23003300 22505464 22038524 21607220 
1286.321 21217712 20874752 20580492 20334762 20136856 19985734 19880970 
1289.696 19821314 19803140 19819198 19860574 19917808 19984832 20060716 
1293.071 20149420 20258102 20393482 20560272 20760008 20992416 21258490 
1296.446 21561462 21907716 22306112 22764542 23289664 23886202 24557744 
1299.822 25308042 26139726 27051848 28033956 29061576 30096394 31084814 
1303.197 31966872 32688688 33206106 33495914 33557084 33410310 33092562 
1306.572 32650072 32136388 31601712 31089548 30635654 30261022 29973934 
1309.947 29770272 29638112 29561138 29524290 29516416 29530284 29560960 
1313.323 29603488 29650172 29691714 29718432 29722122 29697854 29644176 
1316.698 29560890 29447726 29303400 29126272 28916386 28677716 28419156 
1320.073 28152548 27890450 27642986 27415392 27209046 27023356 26859034 
1323.448 26719862 26613074 26546956 26529274 26565624 26659402 26813426 
1326.823 27031854 27318980 27678262 28108004 28598650 29131514 29682420 
1330.199 30227026 30744966 31225356 31665754 32070208 32444012 32790124 
1333.574 33108008 33394172 33645116 33859592 34040060 34191920 34322572 
1336.949 34439664 34552344 34671976 34812968 34994080 35235496 35553340 
1340.324 35958448 36452532 37029732 37679896 38392240 39156980 39963904 
1343.700 40802580 41660016 42521520 43374816 44212184 45031948 45836136 
1347.075 46624516 47385284 48091972 48697572 49140956 49360996 49302276 
1350.450 48931004 48242388 47261176 46038300 44641500 43152296 41650204 
1353.825 40207008 38885984 37731828 36771056 36013056 35451296 35068900 
1357.201 34844560 34759660 34799504 34952892 35211240 35563516 35996600 
1360.576 36498300 37059684 37679788 38365708 39129244 39979092 40912732 
1363.951 41912712 42947812 43977648 44954292 45830060 46557644 47088796 
1367.326 47383548 47412260 47161956 46640600 45875944 44911412 43793224 
1370.702 42568808 41279216 39956784 38632720 37340628 36117604 35008268 
1374.077 34054824 33286660 32712982 32320388 32081016 31962880 31944084 
1377.452 32019910 32205358 32531782 33043542 33797160 34853140 36277944 
1380.827 38134556 40460972 43247528 46403532 49757948 53043740 55935128 
1384.203 58114884 59283708 59230540 57872076 55285676 51722752 47558852 
1387.578 43245988 39175220 35606204 32658860 30323978 28519704 27133772 
1390.953 26061752 25216526 24531588 23963996 23485830 23082544 22750890 
1394.328 22494122 22317098 22222302 22206086 22259376 22370890 22528252 
1397.704 22720618 22938708 23174522 23421864 23677362 23940676 24213750 
1401.079 24499264 24798508 25109964 25429232 25749228 26063548 26367922 
1404.454 26660528 26941662 27211796 27470312 27715734 27948644 28173866 
1407.829 28401328 28645578 28921768 29240804 29607390 30018916 30468858 
1411.205 30950400 31460584 31999614 32568242 33163260 33775640 34390852 
1414.580 34996056 35585920 36168956 36767448 37416244 38155288 39018344 
1417.955 40024796 41168168 42411544 43692048 44936652 46081036 47077308 
1421.330 47900208 48547184 49038340 49420252 49763888 50161464 50699948 
1424.706 51440700 52406888 53582624 54930800 56410152 57993540 59664588 
1428.081 61411744 63221068 65068520 66925100 68768848 70595736 72425680 
1431.456 74292624 76236728 78287896 80462304 82767840 85217856 87845288 
1434.831 90706280 93872000 97401048 101308264 105535864 109972264 114497448 
1438.207 119019200 123480944 127834392 132016632 135910880 139342144 
1441.100 142114976 144017792 144873200 144571920 143072944 140415680 
1443.993 136710560 132143456 126950248 121382808 115711728 110178040 
1446.886 104984368 100298312 96222816 92788984 89948400 87595736 85597128 
1450.261 83829448 82221544 80764048 79507432 78528528 77901312 77659544 
1453.636 77785448 78212624 78845024 79583760 80330168 81013496 81607040 
1457.011 82140712 82686904 83328024 84138808 85165288 86432096 87950112 
1460.387 89714224 91701680 93863856 96132968 98407976 100551760 102414136 
1463.762 103835576 104694456 104950992 104667560 103991016 103092680 
1466.655 102138016 101248224 100494712 99914456 99508896 99247816 99061840 
1470.030 98845160 98462832 97763808 96636160 95055448 93123896 91042888 
1473.406 89048728 87333696 85997688 85070400 84542744 84396000 84617256 
1476.781 85194192 86103848 87302376 88724304 90296824 91943032 93601752 
1480.156 95237488 96840808 98430960 100047056 101744104 103580960 105621976 
1483.531 107943760 110631480 113777224 117463464 121734416 126561360 
1486.424 131805632 137225792 142453008 147022784 150453712 152268992 
1489.317 152108992 149831024 145555552 139664144 132678408 125151904 
1492.210 117521128 110053200 102894512 96085800 89631736 83564528 77955232 
1495.586 72924744 68617824 65150776 62574796 60862528 59937880 59701428 
1498.961 60059348 60937360 62270356 63995064 66046364 68345032 70802232 
1502.336 73327120 75806240 78107072 80070360 81470600 82027672 81431072 
1505.711 79423408 75957568 71302752 65992676 60579476 55435368 50700100 
1509.087 46355712 42333808 38582272 35082440 31855434 28938060 26354752 
1512.462 24111498 22188372 20550650 19158884 17976758 16973070 16116444 
1515.837 15377141 14730569 14160640 13666505 13257541 12944192 12726149 
1519.212 12587408 12495938 12415808 12320762 12210877 12114206 12072709 
1522.588 12115910 12244923 12436265 12655425 12875105 13083013 13287092 
1525.963 13508766 13771115 14084754 14443079 14827859 15220460 15612593 
1529.338 16008519 16421907 16867308 17352308 17874202 18421786 18981210 
1532.713 19544818 20115198 20703496 21318762 21961420 22619032 23272884 
1536.089 23901954 24490324 25031018 25522272 25967332 26367850 26719792 
1539.464 27010486 27225062 27358680 27422202 27438402 27430356 27407732 
1542.839 27364324 27281756 27141744 26936586 26678038 26393692 26117910 
1546.214 25876060 25674136 25501048 25335826 25160976 24971914 24780932 
1549.590 24611988 24490150 24428280 24421550 24452500 24501998 24558374 
1552.965 24623208 24708920 24831486 25000306 25211644 25448134 25684190 
1556.340 25893646 26050354 26128606 26106860 25974260 25745748 25465630 
1559.715 25194228 24976686 24827310 24734034 24669498 24601748 24498282 
1563.091 24334178 24097592 23793932 23445506 23083452 22736294 22415894 
1566.466 22115984 21815170 21488764 21118458 20701202 20251818 19800054 
1569.841 19378900 19011636 18707462 18463168 18269154 18114812 17988706 
1573.216 17877550 17763558 17625580 17444942 17214044 16946678 16677311 
1576.592 16450124 16295671 16219651 16205138 16226118 16258312 16287174 
1579.967 16309569 16330933 16360246 16404459 16466230 16543601 16633276 
1583.342 16732438 16839546 16952262 17063490 17160476 17227042 17246900 
1586.717 17210978 17121974 16995398 16855528 16730681 16648320 16629247 
1590.093 16688466 16835826 17076310 17408106 17818584 18281836 18755374 
1593.468 19184926 19517438 19706360 19725186 19572304 19269988 18858276 
1596.843 18382794 17890878 17422454 17008492 16675968 16445650 16332895 
1600.218 16347138 16490905 16760366 17148584 17648632 18253500 18953932 
1603.594 19735626 20573196 21428886 22258364 23010148 23634362 24090692 
1606.969 24348054 24391268 24220440 23850216 23305570 22617006 21821442 
1610.344 20958094 20068212 19194762 18372872 17626582 16965148 16382542 
1613.719 15862126 15381604 14920507 14463632 14006211 13556451 13134168 
1617.094 12764636 12468487 12256579 12127324 12069882 12066782 12098432 
1620.470 12146473 12196053 12241072 12285414 12342612 12429412 12558791 
1623.845 12734133 12949142 13192263 13453909 13729870 14020585 14327862 
1627.220 14650505 14980967 15306430 15614139 15895464 16149836 16383024 
1630.595 16603256 16815746 17019554 17206530 17363892 17477676 17534872 
1633.971 17526938 17451842 17316272 17135314 16929660 16720455 16521744 
1637.346 16338537 16166927 15996657 15814153 15605861 15362277 15081367 
1640.721 14770881 14444792 14120487 13810927 13519807 13241314 12962113 
1644.096 12665147 12335147 11964386 11556408 11127499 10703665 10313562 
1647.472 9981240 9719239 9529022 9402472 9326126 9281273 9243329 9182510 
1651.329 9062388 8848042 8525929 8126130 7723561 7396450 7183633 7073054 
1655.187 7027826 7008868 6989002 6955028 6903787 6839357 6768205 6695922 
1659.044 6624357 6551895 6474434 6387909 6289667 6179416 6059516 5934980 
1662.901 5813066 5701459 5607938 5537558 5491585 5466922 5455748 5448065 
1666.759 5431759 5396834 5337256 5253405 5152302 5045288 4944737 4859654 
1670.616 4793785 4746650 4714862 4693291 4674903 4651157 4612009 4548453 
1674.474 4457155 4344390 4226099 4121689 4046166 4003025 3985135 3979182 
1678.331 3972561 3958083 3936349 3915452 3904753 3910771 3931033 3953602 
1682.188 3958517 3924948 3840332 3710215 3560427 3428490 3343103 3309514 
1686.046 3315357 3341033 3370651 3393825 3407016 3410690 3406482 3396230 
1689.903 3381370 3364740 3350783 3345073 3352152 3372521 3400772 3425117 
1693.761 3430861 3404979 3343237 3256398 3169643 3112305 3100625 3131762 
1697.618 3185731 3236034 3254027 3219377 3128057 2998554 2867822 2770940 
1701.476 2725459 2725592 2753401 2788181 2813526 2819795 2802821 2765205 
1705.333 2714689 2662046 2616909 2585209 2568377 2563944 2567543 2574110 
1709.190 2580443 2585209 2589609 2595909 2606742 2623342 2644910 2669047 
1713.048 2693018 2714789 2733628 2749399 2761737 2768339 2764638 2745531 
1716.905 2709355 2660979 2612175 2578543 2571510 2594942 2644310 2710121 
1720.763 2781911 2851245 2914252 2971063 3025379 3081170 3141607 3207026 
1724.620 3276061 3346475 3416501 3485535 3552376 3614917 3669246 3709981 
1728.478 3733241 3737686 3726858 3707174 3684684 3661527 3632458 3584413 
1732.335 3499363 3361902 3168007 2935201 2698552 2498755 2360477 2284726 
1736.192 2255482 2249986 2248688 2236764 2207456 2161235 2104197 2045135 
1740.050 1992540 1952032 1925473 1912560 1912060 1922610 1942280 1968873 
1743.907 1999596 2031886 2063745 2094042 2122243 2147682 2168860 2183546 
1747.765 2188974 2182880 2163199 2129668 2082689 2023996 1956758 1885603 
1751.622 1817488 1758799 1714720 1687178 1673706 1668052 1661000 1643738 
1755.479 1610014 1558901 1496024 1431693 1376346 1335597 1308377 1287507 
1759.337 1263481 1227327 1174166 1105132 1026545 947705 877280 820676 778784 
1763.677 749641 729494 714559 700819 684691 663054 634217 599012 561255 
1768.016 527549 503631 491954 489433 488040 477326 448535 398918 334351 
1772.356 268535 216717 188706 185623 200905 225303 250897 274204 295921 
1776.695 318733 344697 372884 399581 420011 430525 431354 426346 422100 
1781.035 424123 433908 449165 464422 474373 476131 470459 460873 452349 
1785.375 448302 449364 454604 462167 471023 481472 494044 508441 521710 
1789.714 528975 524165 502370 463295 411355 355707 306133 269032 245924 
1794.054 233525 226696 220231 212010 200772 186883 170242 150322 126126 
1798.393 97723 66405 35090 8349 -10138 -18885 -18620 -12425 -3313 6229 15308 
1803.697 24453 33731 43175 52189 59678 65510 70581 76612 85195 97060 110582 
1809.001 123342 132622 137097 137362 135937 136169 139914 147305 156089 
1813.341 163746 168187 169347 169016 170309 176176 188275 206673 230044 
1817.680 256864 285941 316644 348942 382336 416197 449430 481605 512720 
1822.020 543373 574095 604221 632193 655654 672777 684093 693087 704271 
1826.360 721994 747849 779083 810286 834520 847102 847865 842354 839267 
1830.699 847832 873064 914600 967597 1026213 1085434 1143269 1200480 1259194 
1835.039 1321040 1386617 1454798 1524352 1595448 1670247 1753010 1848067 
1838.896 1958755 2085285 2225940 2376168 2531515 2688083 2842774 2993550 
1842.754 3139538 3280902 3419373 3557955 3700624 3849625 4004363 4160493 
1846.611 4310790 4446376 4559068 4643087 4696573 4720389 4717240 4689238 
1850.469 4636891 4559201 4455013 4325079 4173038 4006269 3833245 3661060 
1854.326 3494353 3334088 3179456 3028983 2883398 2744331 2614442 2494522 
1858.183 2382765 2274367 2164465 2049596 1929999 1809237 1693298 1587001 
1862.041 1492500 1409022 1333736 1264477 1200945 1145030 1099419 1065073 
1865.898 1040062 1019769 998016 970320 937013 902979 875488 861444 863701 
1870.238 880069 904838 931501 955841 975699 990810 1000640 1003595 996821 
1874.577 977360 944152 899028 846604 792858 742505 697368 656118 615735 
1878.917 573298 528079 481870 437324 396331 358757 321088 279078 229447 
1883.257 171933 109521 47019 -10602 -60366 -101941 -136855 -167294 -194254 
1887.596 -217338 -236082 -250388 -262077 -273468 -286150 -299494 -309990 
1891.454 -312540 -302540 -279230 -245188 -206939 -171699 -144572 -126619 
1895.311 -114959 -105254 -93129 -78388 -63016 -50824 -44529 -43734 -45921 
1899.651 -47942 -47147 -43734 -40057 -38831 -40686 -43966 -43900 -36180 
1903.990 -18620 7024 36316 63853 85361 100540 111642 121884 133020 144223 
1908.812 152045 153305 146609 133849 119464 107566 100308 96397 92254 84665 
1913.634 73497 61699 54409 56165 67167 83074 95701 96629 81948 53879 20245 
1918.938 -10602 -32602 -45623 -54833 -66991 -86901 -114959 -146692 -175740 
1923.277 -197467 -211012 -219821 -228664 -240354 -253964 -264627 -266812 
1927.135 -257342 -237737 -213960 -192863 -179615 -174481 -173521 -171136 
1930.992 -163220 -149971 -135894 -126818 -126520 -134337 -145400 -153118 
1934.850 -152456 -143082 -127547 -111382 -98463 -88624 -79050 -66528 -49963 
1939.189 -33033 -22663 -25943 -46484 -82297 -125592 -165075 -192499 -203726 
1943.529 -201077 -190180 -175773 -159643 -140068 -114098 -80276 -40786 -1358 
1947.868 32373 56033 69653 76844 81351 85494 88311 86621 77573 62296 46125 
1953.172 36283 39828 57756 84168 108825 120061 109952 78634 32008 -19879 
1957.994 -67985 -106943 -136921 -159544 -177164 -189485 -193956 -188922 
1961.852 -175210 -157623 -142817 -135364 -135828 -139538 -140399 -132449 
1965.709 -116483 -99125 -90181 -98032 -124996 -164744 -206144 -238896 
1969.566 -256613 -259858 -254692 -246579 -237241 -223034 -198096 -156993 
1973.424 -101510 -39228 18820 64450 96298 120856 149195 190264 245990 308720 
1978.246 366020 407474 429231 435102 433609 431884 430790 426047 408933 
1982.585 373382 320756 259981 203523 163282 143991 141969 147405 149592 
1986.925 143759 131363 121121 121188 136865 166464 202562 236575 263164 
1991.264 282261 298673 319032 346455 379650 413378 441835 461570 473047 
1995.604 480178 486945 494973 502868 507346 506483 501043 495338 495271 
1999.944 503896 519089 534184 539492 526752 494807 447506 394275 343636 
2004.283 302287 270524 246288 226497 209656 198485 195468 199744 206010 
2008.623 204982 187048 148233 92718 30948 -21370 -52017 -56622 -37936 -5069 
2013.445 33201 72271 111974 155592 205313 258953 309781 350567 377726 393313 
2018.266 406247 427672 463726 514810 574062 631098 677489 711506 737460 
2022.606 763051 794418 830635 865826 891258 901153 895375 880766 866457 
2026.946 859784 862739 870408 875155 872831 865195 859717 867088 895276 
2031.285 944817 1010769 1082511 1153003 1219220 1285147 1355938 1435483 
2035.143 1521227 1605292 1677997 1732484 1767748 1789141 1805810 1824376 
2039.000 1847435 1873124 1895820 1912360 1922877 1931463 1943977 1964314 
2042.857 1991108 2019436 2042938 2057386 2063545 2066841 2075098 2094308 
2046.715 2126405 2168427 2214317 2258913 2298050 2331328 2359144 2381832 
2050.572 2398024 2407320 2409452 2407520 2407420 2416449 2439340 2477027 
2054.430 2524249 2572843 2614275 2642944 2658512 2665346 2669280 2674614 
2058.287 2683216 2693984 2704854 2715656 2728326 2745598 2769540 2799019 
2062.145 2828166 2849211 2855281 2843474 2816727 2782945 2750033 2725359 
2066.002 2710388 2702820 2697352 2689950 2679081 2666413 2655111 2647111 
2069.859 2642477 2639377 2634910 2627776 2618842 2610642 2606075 2606508 
2073.717 2610642 2615375 2618475 2619009 2618309 2619375 2624075 2631976 
2077.574 2639810 2643110 2638410 2625809 2609775 2596509 2592475 2600775 
2081.432 2620209 2646777 2674914 2701153 2724659 2747865 2772708 2800019 
2085.289 2827899 2852246 2868822 2875493 2872991 2864453 2853513 2842207 
2089.146 2830267 2816293 2798585 2777309 2755935 2738629 2729593 2729993 
2093.004 2737729 2747599 2755301 2758302 2757502 2756802 2760570 2770707 
2096.861 2786880 2805188 2821829 2834903 2844842 2854747 2867355 2884199 
2100.719 2904245 2924960 2944341 2962723 2983340 3011599 3051505 3104430 
2104.576 3167240 3234031 3298663 3356726 3407551 3454072 3500766 3550037 
2108.434 3603323 3658821 3714326 3768200 3820844 3873294 3927054 3981924 
2112.291 4035999 4085832 4129383 4166080 4198263 4230382 4265247 4304699 
2116.148 4347603 4391012 4432284 4470947 4508912 4549558 4596471 4650153 
2120.006 4708029 4765778 4818443 4862904 4900267 4933409 4966990 5004529 
2123.863 5047300 5094903 5145361 5197703 5251795 5308979 5369962 5434342 
2127.721 5499907 5563970 5623780 5678933 5731070 5782644 5836103 5891786 
2131.578 5947375 6000049 6047286 6089051 6127897 6168393 6213766 6264724 
2135.436 6319621 6373921 6423048 6465724 6501979 6533798 6563063 6589134 
2139.293 6609419 6621026 6622002 6613759 6600302 6586611 6575913 6568479 
2143.150 6559733 6544024 6517249 6477798 6428664 6374459 6317907 6258808 
2147.008 6193331 6115497 6020610 5910494 5791340 5673293 5565883 5474874 
2150.865 5399249 5333164 5266820 5191600 5101172 4992194 4862234 4711077 
2154.723 4538878 4349477 4152464 3965640 3809646 3708210 3676364 3715662 
2158.580 3811050 3936316 4062286 4166247 4238245 4278665 4296467 4300516 
2162.438 4297438 4289942 4278063 4260630 4235702 4203181 4160526 4105433 
2166.295 4035999 3951897 3856545 3758006 3665370 3587019 3527188 3483331 
2170.152 3449263 3416534 3380101 3338762 3297328 3262006 3236535 3220879 
2174.010 3209663 3194910 3170244 3134031 3087978 3037324 2986643 2936435 
2177.867 2884599 2827732 2764138 2696785 2632843 2579976 2544413 2527115 
2181.725 2522583 2522250 2518983 2509019 2493689 2477994 2466064 2459599 
2185.582 2457333 2455001 2449469 2440606 2431343 2425445 2427245 2436807 
2189.439 2451435 2468430 2484258 2498688 2513885 2532614 2555078 2579443 
2193.297 2600408 2612842 2614742 2607942 2597342 2589709 2589209 2595408 
2197.154 2604875 2611475 2611108 2603475 2591642 2579676 2571443 2566743 
2201.012 2562044 2552245 2534847 2509719 2481859 2457833 2443138 2439306 
2204.869 2444538 2453768 2461865 2466397 2466697 2465031 2463198 2462132 
2208.727 2461232 2459633 2457633 2458300 2466130 2484758 2516051 2557711 
2212.584 2604742 2650378 2690484 2723191 2750366 2774975 2798752 2821096 
2216.441 2839339 2850178 2852079 2846943 2839372 2834503 2836537 2846509 
2220.299 2861285 2876827 2889169 2896140 2898441 2897908 2895039 2889702 
2224.156 2879929 2863986 2841707 2816060 2791482 2773341 2764805 2765972 
2228.014 2773875 2784146 2793350 2799519 2803587 2806522 2809457 2812158 
2231.871 2812825 2810291 2805155 2799786 2798218 2804455 2819662 2842407 
2235.729 2869723 2897741 2924560 2950613 2978436 3009965 3045966 3083539 
2239.586 3117445 3143410 3158228 3162467 3159563 3154724 3151353 3151386 
2243.443 3154123 3158128 3162667 3169142 3180290 3199650 3228891 3266914 
2247.301 3309981 3353354 3392523 3425083 3450465 3469737 3483564 3492549 
2251.158 3496424 3496023 3493451 3492249 3496992 3511188 3535105 3565672 
2255.016 3597476 3624272 3640944 3646524 3641914 3630954 3616955 3602321 
2258.873 3587921 3574024 3560360 3548167 3538780 3533101 3530796 3530195 
2262.730 3528558 3523814 3516065 3507514 3501969 3503271 3512891 3529059 
2266.588 3547632 3563300 3571652 3571518 3564569 3554080 3544258 3537878 
2270.445 3535673 3536909 3539682 3542387 3544091 3544225 3542688 3538947 
2274.303 3532934 3524549 3515196 3506979 3501735 3501334 3506278 3515096 
2278.160 3525685 3535773 3544292 3551006 3557554 3564937 3573589 3583244 
2282.018 3592064 3598546 3602020 3603022 3603490 3605294 3609938 3617924 
2285.875 3628916 3642281 3657284 3674091 3692872 3713858 3736449 3759109 
2289.732 3780433 3798749 3814025 3826393 3837792 3849492 3862429 3876570 
2293.590 3891514 3906793 3922072 3938221 3956110 3976607 3999748 4024795 
2297.447 4050346 4075464 4099345 4121957 4143800 4165076 4185349 4204018 
2301.305 4219709 4231955 4241758 4250391 4260596 4274282 4293255 4317316 
2305.162 4345963 4377992 4412367 4448920 4487686 4528900 4572528 4618237 
2309.020 4665425 4713623 4762629 4812546 4863374 4914810 4965683 5014417 
2312.877 5059636 5100669 5137884 5173023 5207897 5244652 5284528 5327428 
2316.734 5372814 5419815 5467895 5516584 5566253 5616799 5668022 5719286 
2320.592 5769280 5816391 5859175 5895380 5922788 5939650 5944252 5936660 
2324.449 5918757 5894675 5869854 5850476 5841308 5845103 5861761 5888528 
2328.307 5921041 5954967 5987015 6015234 6039592 6060860 6079442 6096310 
2332.164 6111901 6126654 6141608 6158042 6176425 6197565 6221060 6246135 
2336.021 6272590 6300694 6331792 6367835 6410203 6458829 6512137 6567032 
2339.879 6619512 6666918 6707598 6741384 6768980 6790317 6804083 6806843 
2343.736 6794861 6764234 6713655 6645418 6565721 6484255 6412321 6360673 
2347.594 6338482 6351730 6402435 6489434 6608343 6752018 6910621 7074973 
2351.451 7235648 7386069 7522957 7645925 7756212 7855393 7944573 8023849 
2355.309 8093384 8154287 8208647 8259806 8310734 8362783 8415312 8466259 
2359.166 8512245 8551679 8584256 8611632 8636169 8660370 8685046 8709960 
2363.023 8733590 8754754 8772505 8786874 8797389 8803509 8803814 8797457 
2366.881 8783290 8762565 8736802 8708709 8680618 8652597 8623292 8590306 
2370.738 8550800 8503526 8449365 8390753 8331370 8274563 8222221 8174882 
2374.596 8132004 8092607 8055948 8022330 7992461 7967690 7949535 7939680 
2378.453 7939410 7950209 7973225 8008493 8055476 8111884 8174747 8240861 
2382.311 8307188 8371735 8434095 8494303 8552895 8609773 8665001 8717567 
2386.168 8767094 8813923 8858357 8901306 8943043 8982584 9018171 9047434 
2390.025 9068105 9079203 9080793 9074330 9061643 9044524 9023990 9000850 
2393.883 8976360 8951600 8929276 8911723 8901340 8899209 8905534 8918859 
2397.740 8937834 8961611 8990161 9024226 9065094 9113377 9168974 9231145 
2401.598 9298807 9371085 9448320 9531122 9620512 9716765 9819716 9928455 
2405.455 10041832 10159105 10280075 10405150 10535150 10670147 10810111 
2408.830 10954605 11103296 11256185 11414231 11578153 11748401 11924436 
2412.206 12104155 12284084 12460236 12628339 12784803 12926816 13052520 
2415.581 13160842 13251802 13325937 13384844 13430977 13466931 13494923 
2418.956 13516799 13533001 13543358 13547768 13546742 13541888 13535598 
2422.331 13530813 13529958 13534744 13545888 13563424 13587731 13619560 
2425.707 13660453 13712224 13776485 13853924 13944551 14048202 14164405 
2429.082 14293823 14437324 14595606 14768858 14956343 15155609 15364474 
2432.457 15580789 15803432 16032549 16269011 16513828 16767219 17029064 
2435.832 17298376 17574756 17858286 18149808 18451170 18763712 19088318 
2439.208 19425156 19773804 20132794 20501356 20877880 21261380 21650090 
2442.583 22042496 22437106 22833020 23230272 23629778 24032452 24439462 
2445.958 24850676 25264950 25680816 26096516 26510924 26924246 27337152 
2449.333 27750028 28162870 28574444 28982404 29384686 29779108 30164228 
2452.708 30539558 30904610 31258434 31600106 31927678 32239440 32533816 
2456.084 32809526 33065100 33298716 33507728 33688976 33838352 33952524 
2459.459 34028804 34066004 34064212 34024080 33947256 33835556 33691408 
2462.834 33518034 33319716 33101250 32868526 32627962 32385390 32147378 
2466.209 31919584 31708382 31519618 31358964 31231266 31140022 31087446 
2469.585 31074314 31100474 31165758 31269684 31411712 31590808 31804520 
2472.960 32048662 32318496 32607816 32910842 33222988 33539868 33857800 
2476.335 34172744 34479984 34774304 35050400 35304420 35533348 35736564 
2479.710 35913528 36064680 36188908 36285396 36352152 36388324 36394628 
2483.086 36373120 36327220 36261336 36178752 36082680 35975868 35859688 
2486.461 35736528 35608400 35476716 35342016 35204052 35060096 34907464 
2489.836 34743004 34564900 34372528 34166756 33948832 33719592 33479020 
2493.211 33225562 32956812 32670576 32365148 32039564 31694266 31330078 
2496.587 30947804 30548588 30133506 29703564 29260440 28806400 28343674 
2499.962 27875078 27403392 26930664 26459366 25992202 25531058 25078616 
2503.337 24637130 24207864 23791726 23389100 22999982 22624860 22264990 
2506.712 21921238 21595240 21287546 20997702 20724174 20465026 20218040 
2510.088 19981466 19754904 19537818 19330886 19134578 18949192 18775060 
2513.463 18613310 18464380 18329218 18208648 18102444 18009600 17928928 
2516.838 17858458 17797250 17745266 17703192 17672028 17652704 17645008 
2520.213 17647458 17658846 17677342 17701638 17731942 17768980 17813716 
2523.589 17867054 17928860 17998238 18073186 18151190 18229138 18303816 
2526.964 18371628 18429496 18474786 18505418 18520528 18520218 18505176 
2530.339 18476618 18435304 18382760 18319264 18246208 18164904 18076884 
2533.714 17984078 17888668 17791968 17695462 17600322 17507722 17418902 
2537.090 17335202 17257726 17187054 17123078 17065074 17012008 16963526 
2540.465 16919878 16881810 16849912 16824424 16804036 16786402 16768219 
2543.840 16746109 16718147 16683439 16643018 16599089 16554132 16510351 
2547.215 16469637 16432952 16400950 16373493 16349994 16329557 16310154 
2550.591 16290098 16267497 16241355 16212257 16181441 16151108 16123734 
2553.966 16100386 16081199 16065314 16051047 16036779 16021857 16005939 
2557.341 15989507 15972663 15955063 15935298 15911926 15882747 15846249 
2560.716 15801577 15748801 15688816 15623344 15554345 15483880 15413907 
2564.092 15346006 15280895 15218813 15159588 15102807 15048606 14998013 
2567.467 14952537 14913922 14884021 14863242 14850899 14845413 14844555 
2570.842 14846270 14849836 14855082 14862796 14874283 14889850 14909910 
2574.217 14933880 14961247 14991634 15024664 15059892 15096632 15134371 
2577.593 15171117 15206425 15239815 15272624 15306808 15345182 15389671 
2580.968 15441786 15501461 15567739 15638663 15713103 15790030 15869170 
2584.343 15950767 16034612 16120365 16207889 16296530 16385879 16476106 
2587.718 16567076 16658511 16749760 16839684 16927250 17012042 17094506 
2591.094 17175574 17257002 17340202 17425626 17512828 17600220 17686074 
2594.469 17768702 17847134 17921194 17991400 18058818 18124002 18187812 
2597.844 18250838 18313596 18376746 18441458 18508220 18577966 18651390 
2601.219 18728840 18810766 18898142 18990900 19090188 19196042 19308506 
2604.594 19426992 19551126 19680046 19813094 19949932 20090282 20233870 
2607.970 20380702 20530642 20683618 20839954 20999230 21160968 21324400 
2611.345 21487822 21649602 21808376 21963200 22113894 22260910 22404660 
2614.720 22544862 22680748 22810566 22932316 23044528 23146564 23239220 
2618.095 23324204 23403786 23479850 23553548 23625124 23694298 23760156 
2621.471 23822142 23879726 23932658 23981328 24025484 24065966 24103478 
2624.846 24139274 24174792 24211858 24251202 24293354 24337858 24383872 
2628.221 24430418 24477354 24524786 24573766 24625278 24679740 24736804 
2631.596 24795350 24853482 24909272 24961736 25010272 25054992 25096904 
2634.972 25136928 25175442 25212978 25249148 25283916 25317316 25349736 
2638.347 25381456 25413598 25447326 25483866 25524416 25569958 25620920 
2641.722 25677476 25738892 25804360 25872756 25943202 26015490 26089550 
2645.097 26166190 26246118 26330038 26418588 26511876 26609726 26711864 
2648.473 26817584 26926080 27036474 27147882 27259634 27371488 27483512 
2651.848 27596552 27711496 27829186 27950200 28074814 28202362 28332566 
2655.223 28465358 28600702 28739274 28882282 29030510 29184776 29345156 
2658.598 29511308 29682314 29857256 30034824 30213848 30393232 30571944 
2661.974 30749200 30924678 31098552 31271216 31443450 31616002 31789192 
2665.349 31963166 32137636 32312286 32486752 32661256 32835898 33011220 
2668.724 33187542 33364870 33543520 33723852 33906160 34091452 34280764 
2672.099 34474604 34673376 34876408 35082836 35291304 35500588 35710192 
2675.475 35919720 36129452 36339576 36550128 36761320 36972796 37184664 
2678.850 37397428 37612036 37829636 38051800 38279500 38513912 38755548 
2682.225 39005332 39263384 39530516 39807108 40093180 40388856 40693908 
2685.600 41008056 41331216 41663368 42005008 42356236 42717356 43088112 
2688.976 43468524 43857880 44255948 44662064 45075872 45496732 45923968 
2692.351 46357224 46796268 47241556 47693992 48154940 48625784 49107156 
2695.726 49599316 50101404 50612152 51129876 51653480 52182420 52716724 
2699.101 53256552 53802452 54354148 54911172 55472640 56037540 56604620 
2702.477 57172812 57740996 58307500 58871020 59429424 59980712 60522720 
2705.852 61052860 61568716 62067832 62547816 63006380 63442036 63854024 
2709.227 64242124 64606808 64948788 65268940 65568128 65846628 66105240 
2712.602 66344508 66564752 66765828 66947400 67108012 67245584 67357776 
2715.978 67442376 67497368 67521448 67514480 67477088 67410872 67318544 
2719.353 67203696 67071004 66925912 66774184 66621572 66473304 66334048 
2722.728 66207720 66097944 66007832 65940528 65898604 65884224 65898688 
2726.103 65942688 66015736 66117392 66247044 66403964 66587620 66797404 
2729.479 67031912 67289216 67567008 67862360 68172688 68495528 68828824 
2732.854 69170608 69518848 69871456 70225824 70579984 70932008 71280256 
2736.229 71623632 71961096 72291032 72611864 72921640 73219208 73504184 
2739.604 73777776 74042096 74299656 74553400 74805328 75057120 75310248 
2742.979 75566592 75828728 76099712 76383152 76681840 76997856 77331368 
2746.355 77681024 78044216 78417384 78796120 79175464 79549776 79913216 
2749.730 80259856 80584072 80881384 81149352 81386592 81593048 81769408 
2753.105 81917152 82037560 82132144 82202088 82249056 82273920 82276688 
2756.480 82256024 82209576 82133424 82023952 81877456 81691376 81464048 
2759.856 81194968 80884784 80533536 80143040 79715392 79253368 78761440 
2763.231 78244880 77708648 77158704 76600368 76038760 75479144 74926976 
2766.606 74387656 73867160 73370344 72901192 72462712 72056952 71685096 
2769.981 71348280 71047616 70784056 70558080 70369112 70215392 70093808 
2773.357 70000600 69931472 69882552 69850088 69830480 69819464 69812616 
2776.732 69804128 69787984 69758184 69708848 69635056 69533200 69400304 
2780.107 69234720 69036192 68806384 68548288 68267168 67969792 67662440 
2783.482 67351936 67043512 66740520 66444964 66157596 65877704 65604316 
2786.858 65334796 65066440 64794832 64515544 64223840 63916324 63590840 
2790.233 63247704 62888868 62517972 62139396 61757444 61376440 61000388 
2793.608 60633344 60279208 59941988 59625816 59334184 59070276 58836076 
2796.983 58632872 58461036 58320380 58210384 58130564 58079848 58057576 
2800.359 58062764 58094656 58152044 58233684 58337360 58460888 58600640 
2803.734 58753296 58915644 59084436 59257920 59434556 59613804 59794960 
2807.109 59976904 60157600 60334220 60502840 60659252 60799220 60918072 
2810.484 61011752 61076808 61110332 61110292 61075856 61006828 60904268 
2813.860 60769492 60604768 60413228 60198284 59965304 59720132 59470156 
2817.235 59223516 58988588 58773024 58584220 58428096 58309580 58232816 
2820.610 58201216 58217128 58281920 58395612 58555972 58759292 58999860 
2823.985 59270300 59562724 59868540 60178724 60484744 60778560 61052324 
2827.361 61300160 61517176 61699884 61846796 61957604 62032972 62074444 
2830.736 62084192 62065308 62020972 61955316 61872812 61777728 61674792 
2834.111 61568140 61461668 61359384 61264524 61180288 61109112 61053164 
2837.486 61013848 60992684 60991616 61014036 61064796 61150456 61279480 
2840.862 61461020 61704392 62018756 62413560 62898444 63484484 64184392 
2844.237 65011056 65977244 67091696 68354920 69755072 71263976 72836336 
2847.612 74405240 75891152 77207504 78264480 78988160 79326144 79255272 
2850.987 78784720 77954952 76832168 75491552 74016352 72485464 70962984 
2854.363 69501664 68138960 66896452 65784672 64803288 63944580 63194812 
2857.738 62537020 61953936 61427852 60943728 60488632 60052008 59625132 
2861.113 59201148 58773552 58337284 57888392 57424156 56944056 56449132 
2864.488 55942708 55429984 54917900 54415628 53932912 53480416 53068788 
2867.864 52706288 52399900 52153388 51967596 51840676 51768288 51744660 
2871.239 51761308 51808640 51876104 51951460 52023840 52084168 52125632 
2874.614 52145768 52145060 52126940 52095296 52054320 52006956 51954784 
2877.989 51898880 51840148 51779560 51719016 51660608 51605936 51556348 
2881.365 51512700 51475356 51445140 51423244 51411572 51411908 51426304 
2884.740 51455620 51499976 51558476 51630116 51713232 51806924 51909896 
2888.115 52021336 52139828 52264372 52393172 52525116 52659080 52794320 
2891.490 52930804 53068708 53208464 53350808 53496756 53647180 53803428 
2894.865 53966680 54138320 54319568 54511972 54716672 54935536 55170084 
2898.241 55421248 55690224 55976740 56280272 56599712 56933968 57282172 
2901.616 57644236 58020840 58412856 58821508 59248196 59695000 60164948 
2904.991 60663024 61195924 61773068 62405600 63105764 63888072 64767056 
2908.366 65758452 66878676 68142016 69558400 71129032 72842720 74670216 
2911.742 76561984 78455008 80269536 81919912 83328912 84428432 85172344 
2915.117 85541360 85542576 85207168 84583200 83732520 82718608 81599768 
2918.492 80428848 79244896 78074392 76932824 75824904 74748408 73696528 
2921.867 72662192 71639336 70625248 69620864 68630864 67662128 66722288 
2925.243 65819016 64958720 64145752 63382372 62668600 62001900 61377204 
2928.618 60788164 60227252 59687056 59162340 58650508 58152572 57672428 
2931.993 57216732 56792980 56408452 56068872 55778600 55539884 55353724 
2935.368 55219900 55137168 55103012 55113432 55163200 55246316 55355944 
2938.744 55486456 55633352 55794088 55967920 56154872 56355488 56569064 
2942.119 56793244 57023508 57253212 57473168 57672804 57840504 57963888 
2945.494 58032656 58038452 57977556 57851404 57667732 57440340 57185704 
2948.869 56923924 56674416 56453016 56272388 56139412 56055220 56016508 
2952.245 56016736 56047304 56098840 56162904 56232180 56300408 56363332 
2955.620 56417132 56458788 56486412 56498676 56495660 56479240 56452336 
2958.995 56419400 56384912 56352732 56325724 56305500 56291924 56284720 
2962.370 56283288 56287248 56296564 56311464 56331984 56357712 56388380 
2965.746 56423320 56461996 56504452 56550680 56600616 56653880 56709644 
2969.121 56766580 56824172 56881804 56939788 56999136 57061140 57126552 
2972.496 57196248 57270300 57348640 57431304 57518520 57610524 57707088 
2975.871 57806624 57905956 57999180 58078672 58135488 58160264 58145148 
2979.247 58084280 57975248 57819228 57621228 57389664 57134492 56867076 
2982.622 56597976 56335192 56083876 55845668 55618812 55398888 55179756 
2985.997 54955768 54721376 54472904 54208396 53927360 53630160 53316712 
2989.372 52986348 52636076 52261416 51856316 51415452 50935240 50416072 
2992.748 49862516 49284200 48693792 48103892 47525768 46966428 46427388 
2996.123 45905440 45394052 44885688 44373220 43852784 43322828 42785216 
2999.498 42243704 41702392 41165944 40638128 40121124 39616752 39125288 
3002.873 38646336 38179344 37723624 37278632 36844484 36421976 36012084 
3006.249 35615916 35234632 34868652 34517648 34181096 33857768 33546348 
3009.624 33245452 32953556 32669112 32390636 32116622 31845950 31578194 
3012.999 31313486 31052354 30795898 30545032 30300210 30062022 29830354 
3016.374 29605264 29386672 29174638 28969158 28769862 28576108 28386896 
3019.750 28201232 28018616 27838726 27662090 27489760 27322298 27160720 
3023.125 27005550 26857554 26717642 26588168 26471620 26371688 26291244 
3026.500 26232426 26195576 26178400 26176746 26184032 26192972 26195012 
3029.875 26181886 26146342 26082266 25985906 25856156 25694596 25505686 
3033.250 25294872 25068892 24833976 24594946 24355834 24118712 23884940 
3036.626 23655354 23430504 23211152 22998062 22791848 22593062 22401798 
3040.001 22218082 22041520 21871720 21708012 21549694 21396306 21246974 
3043.376 21101240 20959138 20820556 20685808 20555304 20429496 20308618 
3046.751 20193360 20083826 19980774 19884264 19794090 19709342 19628146 
3050.127 19548770 19468782 19386594 19301268 19212632 19121522 19028772 
3053.502 18935694 18843536 18753470 18666748 18584710 18508254 18438242 
3056.877 18374254 18315428 18260204 18206850 18154610 18103516 18054674 
3060.252 18010014 17971198 17939426 17914704 17896506 17883662 17875444 
3063.628 17871888 17873510 17881002 17894744 17914288 17938080 17963876 
3067.003 17988912 18010498 18026662 18035330 18034880 18024312 18002450 
3070.378 17969056 17924786 17871128 17810334 17745092 17677930 17610502 
3073.753 17543912 17478712 17414798 17352582 17292170 17233626 17176988 
3077.129 17121492 17066556 17010938 16954018 16895590 16836206 16776448 
3080.504 16717251 16659131 16602084 16546009 16490562 16435636 16381338 
3083.879 16327975 16275650 16224673 16174838 16126588 16079996 16036158 
3087.254 15995868 15960082 15929386 15903642 15881991 15863672 15847795 
3090.630 15834291 15823293 15814910 15809204 15805459 15802676 15799480 
3094.005 15794979 15789034 15782643 15777318 15774671 15775841 15781064 
3097.380 15789378 15799344 15809651 15818860 15826868 15834084 15841506 
3100.755 15850510 15862161 15877042 15895257 15916361 15939148 15962454 
3104.131 15985074 16006250 16025638 16043758 16061291 16079377 16098529 
3107.506 16118541 16139312 16159670 16179102 16197260 16214836 16232515 
3110.881 16251571 16272761 16296014 16321026 16347276 16373975 16400950 
3114.256 16428238 16455906 16484194 16512519 16540434 16566766 16590415 
3117.632 16610656 16626941 16639093 16646942 16650902 16651487 16649457 
3121.007 16646048 16642915 16641365 16642364 16646324 16652659 16660439 
3124.382 16668839 16677137 16685367 16694147 16704030 16715635 16728995 
3127.757 16743354 16758094 16772488 16786126 16798974 16811370 16823494 
3131.133 16835998 16849088 16863004 16878436 16895900 16915916 16938584 
3134.508 16963458 16989438 17015142 17039436 17061732 17082098 17101262 
3137.883 17120356 17140070 17160856 17182606 17205116 17228282 17252382 
3141.258 17278102 17306066 17336374 17368720 17401830 17434388 17465536 
3144.634 17494752 17522590 17550500 17579860 17612020 17647770 17687006 
3148.009 17729112 17773500 17819100 17865154 17911008 17956038 17999826 
3151.384 18041962 18082168 18120202 18156336 18190336 18222192 18252324 
3154.759 18281076 18309380 18338618 18370246 18405574 18445018 18488304 
3158.135 18534188 18580976 18627180 18671798 18715038 18757934 18801874 
3161.510 18847998 18897174 18949330 19003950 19060552 19118718 19178278 
3164.885 19239162 19301510 19364628 19427478 19489124 19548526 19604784 
3168.260 19658204 19709030 19758268 19806608 19854782 19903272 19952186 
3171.635 20001174 20050028 20098402 20145392 20190618 20233350 20273274 
3175.011 20310282 20344866 20377680 20409630 20441652 20474334 20508164 
3178.386 20543528 20580736 20619718 20660996 20704436 20749894 20797196 
3181.761 20845552 20894568 20943802 20993250 21042946 21093866 21146530 
3185.136 21201950 21260892 21323876 21391016 21462236 21536498 21612688 
3188.512 21689238 21765212 21839768 21913014 21985576 22058636 22133488 
3191.887 22211072 22291986 22376542 22464498 22555332 22648354 22742858 
3195.262 22837454 22931198 23022762 23111512 23197624 23282112 23366476 
3198.637 23452710 23541796 23633836 23728068 23822668 23916274 24008010 
3202.013 24098258 24188106 24279512 24373780 24471606 24572574 24675810 
3205.388 24780196 24884710 24988584 25092202 25195034 25297190 25398422 
3208.763 25498448 25597372 25695686 25794548 25894596 25996528 26100070 
3212.138 26204340 26308316 26411158 26512544 26613354 26715070 26819066 
3215.514 26926644 27038166 27153100 27270536 27388992 27507198 27624554 
3218.889 27740456 27854836 27967902 28080008 28191296 28302576 28413992 
3222.264 28525894 28638180 28750744 28863054 28974752 29085668 29195866 
3225.639 29305916 29415958 29526416 29637082 29748166 29858994 29969424 
3229.015 30079032 30187456 30294240 30398918 30501240 30601238 30699126 
3232.390 30795756 30892158 30989080 31086594 31184770 31282540 31379476 
3235.765 31475156 31569820 31664540 31760566 31858538 31958744 32060434 
3239.140 32162506 32264028 32364718 32464828 32565314 32666612 32769006 
3242.516 32871780 32974076 33074934 33174132 33272638 33372204 33474724 
3245.891 33581820 33693956 33810772 33931024 34053212 34176468 34300484 
3249.266 34425464 34551412 34678508 34806364 34934504 35062216 35189284 
3252.641 35315888 35442560 35569884 35698576 35829212 35962152 36098092 
3256.017 36237600 36381152 36529004 36680948 36835720 36991952 37148064 
3259.392 37302712 37455360 37605856 37754452 37901508 38046984 38191140 
3262.767 38333892 38475676 38617404 38760584 38906496 39056336 39210176 
3266.142 39367308 39526704 39687104 39847816 40008664 40170368 40333844 
3269.518 40499888 40669200 40841380 41015992 41192320 41369224 41546060 
3272.893 41722348 41897608 42071624 42244656 42416876 42589092 42762292 
3276.268 42937500 43115996 43298592 43485848 43677540 43873528 44073024 
3279.643 44275032 44478888 44684356 44891716 45101564 45314716 45532456 
3283.019 45755576 45984040 46217560 46455300 46696568 46940700 47187628 
3286.394 47437536 47690740 47947308 48206544 48467788 48729972 48992716 
3289.769 49256404 49522624 49793580 50071320 50357688 50653180 50957520 
3293.144 51269380 51586536 51907660 52231520 52557536 52885736 53216700 
3296.520 53550876 53888648 54230512 54575648 54924072 55274804 55627552 
3299.895 55982316 56340096 56702544 57071948 57450628 57840012 58240844 
3303.270 58652668 59074564 59505304 59944500 60392132 60848808 61315384 
3306.645 61791976 62277812 62772044 63273424 63781836 64297600 64821564 
3310.021 65355324 65899148 66452884 67015292 67585200 68161832 68746056 
3313.396 69339776 69945328 70565328 71200928 71852472 72518864 73198384 
3316.771 73889512 74591128 75301928 76021072 76747424 77480016 78218136 
3320.146 78961576 79710928 80467168 81231008 82001984 82778784 83559344 
3323.521 84341512 85124008 85906816 86690888 87476736 88264216 89051248 
3326.897 89834576 90610056 91374696 92126592 92865512 93591968 94306048 
3330.272 95006456 95690776 96355128 96996128 97611528 98199968 98761264 
3333.647 99294616 99799072 100272432 100712176 101116640 101485864 101820888 
3337.022 102124184 102397280 102640416 102851768 103027696 103164192 
3339.916 103257392 103305352 103307288 103263200 103174024 103040296 
3342.809 102862096 102639448 102371776 102058792 101699256 101291864 
3345.702 100834816 100326824 99767048 99156960 98498960 97797168 97055992 
3349.077 96279680 95471152 94632600 93765280 92870552 91949992 91005384 
3352.452 90038488 89051448 88046072 87024728 85990544 84948216 83902680 
3355.827 82859776 81824568 80799928 79787328 78786824 77797376 76819312 
3359.203 75853584 74902720 73969760 73057464 72167184 71299080 70451520 
3362.578 69622216 68808832 68010088 67225008 66454232 65698816 64960340 
3365.953 64240820 63541896 62864856 62210048 61576696 60962604 60365516 
3369.328 59782788 59212956 58655856 58112612 57585212 57074744 56581404 
3372.704 56102764 55635760 55175956 54719868 54265764 53813744 53365564 
3376.079 52923240 52488544 52062576 51644968 51235412 50833388 50439144 
3379.454 50053068 49675464 49306620 48945208 48589280 48236608 47884708 
3382.829 47532052 47178392 46823948 46469792 46117252 45767248 45420760 
3386.205 45078516 44740988 44408676 44081604 43759616 43442080 43128220 
3389.580 42816628 42506796 42197840 41889796 41583212 41279032 40978524 
3392.955 40683424 40394712 40112912 39837904 39568116 39300960 39034184 
3396.330 38765436 38493708 38219796 37945800 37674764 37409276 37150880 
3399.706 36899276 36652824 36408500 36163444 35916012 35665444 35412760 
3403.081 35159500 34907752 34659056 34414488 34174428 33938944 33707952 
3406.456 33481132 33258114 33038392 32820996 32605104 32389782 32174316 
3409.831 31958350 31741816 31524856 31308216 31092716 30879314 30669258 
3413.207 30463740 30263154 30067844 29876706 29688026 29500208 29311480 
3416.582 29120992 28929028 28736760 28545356 28356088 28169412 27984512 
3419.957 27800714 27616960 27432896 27248910 27066412 26886706 26711476 
3423.332 26541812 26377778 26219332 26065518 25915522 25768320 25622922 
3426.708 25478596 25334808 25191312 25048146 24905870 24765182 24626364 
3430.083 24489624 24354362 24219740 24084984 23949954 23814722 23680896 
3433.458 23549770 23422914 23301620 23186092 23075486 22968786 22864312 
3436.833 22760632 22656520 22550866 22442900 22331714 22216758 22096916 
3440.208 21971878 21841196 21705052 21564144 21419488 21272548 21124580 
3443.584 20976350 20828100 20679240 20528972 20376186 20220886 20063560 
3446.959 19905770 19749912 19598126 19451872 19311172 19174608 19039954 
3450.334 18904890 18767656 18627560 18485226 18341834 18198454 18056020 
3453.709 17914736 17774466 17635244 17497200 17361272 17228316 17099056 
3457.085 16973208 16849810 16727377 16604185 16479410 16352918 16225705 
3460.460 16099630 15976341 15857486 15743818 15635537 15531954 15431726 
3463.835 15333477 15235079 15135229 15032416 14926370 14818087 14708804 
3467.210 14601021 14496588 14396290 14299850 14205452 14110938 14014253 
3470.586 13914477 13812022 13708633 13606261 13506578 13410576 13317942 
3473.961 13227583 13138471 13049652 12960850 12872682 12785656 12700389 
3477.336 12617014 12535020 12453484 12371213 12287016 12200347 12111139 
3480.711 12020282 11929477 11841143 11757456 11680627 11611026 11547799 
3484.087 11488358 11429878 11369059 11303555 11232791 11157516 11079060 
3487.462 10999055 10918078 10835622 10750500 10661284 10566791 10467634 
3490.837 10365208 10261619 10158766 10058278 9960187 9863948 9768373 9672482 
3494.695 9575697 9478255 9380565 9284048 9189448 9097304 9008090 8921226 
3498.552 8835767 8750663 8664562 8576551 8486329 8394232 8300939 8207971 
3502.409 8116474 8027630 7942178 7860183 7781646 7706293 7633751 7563481 
3506.267 7494301 7425166 7354222 7280526 7203710 7124888 7046079 6969843 
3510.124 6898367 6832760 6772143 6714833 6658472 6601514 6543250 6484390 
3513.982 6426546 6370895 6317605 6265968 6214304 6160797 6104542 6045774 
3517.839 5985738 5926751 5870862 5819245 5772335 5729459 5689239 5650164 
3521.697 5610958 5570448 5527692 5481988 5432967 5380597 5325314 5267591 
3525.554 5208232 5147641 5086589 5025378 4964644 4905695 4850072 4799480 
3529.411 4755360 4718312 4688066 4663315 4641814 4621787 4601259 4578857 
3533.269 4553710 4525116 4492608 4456084 4415680 4371834 4325548 4278264 
3537.126 4230884 4184179 4138515 4093826 4050580 4009747 3972963 3941799 
3540.984 3917090 3898669 3884493 3871589 3856244 3835820 3808877 3775118 
3544.841 3735714 3692103 3645522 3596808 3546296 3494587 3443151 3393191 
3548.698 3346175 3302569 3261906 3222515 3182326 3139939 3094452 3047101 
3552.556 2999655 2954083 2912184 2874326 2840206 2809057 2780144 2752900 
3556.413 2727126 2702253 2677281 2650944 2621742 2588375 2550678 2509385 
3560.271 2466031 2421880 2377967 2334826 2292421 2250586 2209621 2169893 
3564.128 2131299 2093009 2052792 2007619 1954162 1890562 1817655 1739038 
3567.986 1660468 1587466 1524253 1472019 1429798 1394828 1364048 1334965 
3571.843 1305785 1275377 1242945 1208155 1170312 1129416 1086032 1041524 
3575.700 998016 957435 921042 888801 859485 831167 801755 769888 735668 
3580.040 699691 663585 629406 598415 571407 548847 530568 515009 500579 
3584.380 484557 463792 435168 396265 346256 286903 221889 156453 96364 45396 
3589.201 5765 -22928 -42707 -56688 -68217 -80442 -95912 -116682 -143579 
3593.541 -176568 -213926 -253136 -290852 -323930 -350184 -368559 -379947 
3597.398 -386204 -390971 -397691 -409575 -428774 -455552 -488154 -523268 
3601.256 -556957 -585348 -605996 -618271 -623598 -624194 -623135 -623367 
3605.113 -627238 -636832 -653640 -678915 -713518 -756652 -806429 -859176 
3608.971 -909933 -954569 -991166 -1020422 -1045610 -1071226 -1100411 
3612.346 -1134385 -1170603 -1203845 -1228791 -1241644 -1242239 -1233880 
3615.721 -1222844 -1216038 -1218648 -1233747 -1260740 -1296816 -1337448 
3619.096 -1377217 -1412160 -1439241 -1457008 -1465462 -1465429 -1458461 
3622.472 -1446209 -1431051 -1414241 -1396571 -1378406 -1359975 -1342502 
3625.847 -1329553 -1326448 -1341114 -1380850 -1448950 -1541142 -1643845 
3629.222 -1738438 -1807307 -1842645 -1847000 -1831592 -1809056 -1790875 
3632.597 -1784308 -1791238 -1808924 -1831658 -1853929 -1871283 -1882170 
3635.973 -1888042 -1890384 -1891407 -1892067 -1892793 -1893188 -1894178 
3639.348 -1895894 -1899490 -1905461 -1913609 -1922878 -1931554 -1937162 
3642.723 -1938448 -1933962 -1923736 -1908364 -1889791 -1870788 -1854655 
3646.098 -1845713 -1848188 -1865113 -1897840 -1945046 -2003691 -2068494 
3649.474 -2133157 -2192337 -2240763 -2274582 -2291260 -2290403 -2274055 
3652.849 -2246268 -2213666 -2183732 -2163753 -2159665 -2173282 -2201667 
3656.224 -2237104 -2269968 -2292974 -2302499 -2300126 -2290865 -2280186 
3659.599 -2272308 -2269177 -2270067 -2273198 -2276132 -2277318 -2275868 
3662.975 -2271913 -2265716 -2256915 -2245378 -2231072 -2214260 -2196722 
3666.350 -2180897 -2170842 -2170908 -2185381 -2217062 -2267133 -2332161 
3669.725 -2403737 -2469371 -2516382 -2535094 -2523827 -2487293 -2437544 
3673.100 -2389733 -2359053 -2358163 -2392567 -2456917 -2534336 -2603408 
3676.476 -2648001 -2662985 -2654555 -2634433 -2614409 -2601794 -2598468 
3679.851 -2601761 -2606801 -2608810 -2605450 -2597480 -2586314 -2573798 
3683.226 -2559700 -2542011 -2519347 -2491148 -2460410 -2432964 -2415995 
3686.601 -2416357 -2438071 -2479716 -2534138 -2591353 -2641316 -2677969 
3689.977 -2700361 -2711260 -2714224 -2711820 -2704773 -2692359 -2674610 
3693.352 -2652447 -2628307 -2604989 -2585293 -2570043 -2558613 -2548501 
3696.727 -2537103 -2522279 -2504325 -2484823 -2466966 -2454347 -2450031 
3700.102 -2455270 -2469371 -2490258 -2514307 -2537630 -2556768 -2570010 
3703.478 -2576400 -2576499 -2571196 -2561611 -2548402 -2532129 -2513088 
3706.853 -2491543 -2468350 -2445023 -2423606 -2406769 -2397872 -2399256 
3710.228 -2412700 -2438137 -2473423 -2514044 -2553738 -2586380 -2606537 
3713.603 -2611576 -2602058 -2581341 -2554034 -2526199 -2502579 -2486272 
3716.979 -2477443 -2473852 -2471842 -2467361 -2457840 -2443672 -2427626 
3720.354 -2413985 -2406373 -2406736 -2414183 -2425880 -2437544 -2446308 
3723.729 -2450987 -2452897 -2454907 -2459092 -2466274 -2474741 -2480012 
3727.104 -2477607 -2463770 -2437807 -2402650 -2363568 -2327416 -2301214 
3730.479 -2289513 -2293798 -2311563 -2337929 -2366138 -2391314 -2412469 
3733.855 -2432140 -2454809 -2484164 -2520434 -2559865 -2595635 -2620074 
3737.230 -2629427 -2623795 -2606998 -2584305 -2559502 -2534501 -2509003 
3740.605 -2482813 -2457312 -2437247 -2431218 -2450130 -2502283 -2588686 
3743.980 -2696377 -2800519 -2871886 -2892227 -2861550 -2794033 -2709614 
3747.356 -2626562 -2559568 -2515954 -2497737 -2501690 -2522279 -2554364 
3750.731 -2594087 -2638978 -2685642 -2727823 -2758180 -2769539 -2759365 
3754.106 -2729831 -2687881 -2643028 -2603211 -2574325 -2558382 -2553573 
3757.481 -2556373 -2563159 -2571854 -2582098 -2593659 -2605253 -2613915 
3760.857 -2615792 -2608085 -2590596 -2566848 -2542209 -2523267 -2513747 
3764.232 -2514373 -2521357 -2528736 -2530021 -2522148 -2506335 -2487326 
3767.607 -2471776 -2464791 -2468646 -2481923 -2500109 -2516975 -2527583 
3770.982 -2529494 -2523169 -2511276 -2497111 -2483669 -2472863 -2465352 
3774.358 -2460574 -2457280 -2453886 -2449076 -2442914 -2436325 -2431844 
3777.733 -2432041 -2439158 -2453161 -2472007 -2490621 -2504161 -2508608 
3781.108 -2502876 -2489665 -2472962 -2458202 -2448713 -2445748 -2447560 
3784.483 -2451448 -2453820 -2452370 -2447296 -2439718 -2431646 -2424331 
3787.859 -2418202 -2412469 -2406406 -2399618 -2392764 -2387162 -2383999 
3791.234 -2384131 -2386635 -2390589 -2394708 -2398959 -2404133 -2412272 
3794.609 -2425254 -2443079 -2463441 -2481792 -2491905 -2489204 -2472468 
3797.984 -2444924 -2413260 -2387294 -2376947 -2389370 -2426539 -2482088 
3801.360 -2542835 -2590859 -2611181 -2597677 -2554034 -2491247 -2423804 
3804.735 -2366402 -2331074 -2323659 -2343597 -2382813 -2428351 -2466175 
3808.110 -2488314 -2492532 -2482978 -2464890 -2443211 -2420048 -2394676 
3811.485 -2365281 -2330316 -2291129 -2251938 -2219897 -2202524 -2205689 
3814.861 -2230742 -2272110 -2318253 -2354571 -2370225 -2361195 -2331799 
3818.236 -2291788 -2254278 -2231006 -2230544 -2256157 -2302763 -2358427 
3821.611 -2406736 -2435336 -2438796 -2420147 -2388019 -2353055 -2324285 
3824.986 -2306718 -2300654 -2301873 -2303851 -2299632 -2285459 -2261727 
3828.362 -2232390 -2204040 -2182381 -2171765 -2173413 -2185183 -2202260 
3831.737 -2219567 -2232357 -2236840 -2232390 -2219930 -2202623 -2184260 
3835.112 -2169622 -2163292 -2168468 -2186238 -2214260 -2248180 -2280911 
3838.487 -2306520 -2321549 -2326031 -2322703 -2315848 -2309520 -2306224 
3841.863 -2306619 -2310113 -2314925 -2319341 -2321846 -2321615 -2318451 
3845.238 -2312585 -2304312 -2294326 -2283251 -2270726 -2256454 -2238851 
3848.613 -2215512 -2184919 -2147005 -2104273 -2063647 -2035550 -2031592 
3851.988 -2063317 -2135036 -2239708 -2357142 -2461101 -2530119 -2555780 
3855.364 -2542868 -2503765 -2451876 -2397345 -2346333 -2301511 -2263408 
3858.739 -2231171 -2204502 -2183073 -2167083 -2156632 -2151752 -2152214 
3862.114 -2158116 -2170116 -2188414 -2213040 -2241521 -2268781 -2288426 
3865.489 -2293996 -2282823 -2256882 -2222831 -2191414 -2172556 -2174139 
3868.865 -2197645 -2237335 -2280812 -2313573 -2326295 -2317528 -2293798 
3872.240 -2265254 -2242411 -2231995 -2235192 -2247652 -2261497 -2268781 
3875.615 -2263936 -2246532 -2220160 -2191084 -2166160 -2151225 -2149873 
3878.990 -2162138 -2184755 -2211194 -2233544 -2244455 -2239511 -2218545 
3882.365 -2186007 -2149675 -2118517 -2101338 -2104438 -2128508 -2168072 
3885.741 -2212150 -2248312 -2265881 -2260936 -2236775 -2201205 -2163885 
3889.116 -2133915 -2117957 -2118319 -2133256 -2156929 -2182381 -2203183 
3892.491 -2215315 -2217688 -2211293 -2198304 -2180238 -2158643 -2134838 
3895.866 -2109944 -2085576 -2063746 -2046334 -2034791 -2029119 -2028591 
3899.242 -2031394 -2035813 -2040595 -2046433 -2055172 -2068890 -2089797 
3902.617 -2118188 -2151851 -2186304 -2216271 -2236676 -2243928 -2238159 
3905.992 -2221545 -2198007 -2171567 -2146181 -2123859 -2105592 -2090984 
3909.367 -2079673 -2070803 -2063647 -2058107 -2053061 -2047521 -2040200 
3912.743 -2029778 -2015927 -1999436 -1982582 -1968465 -1960219 -1959757 
3916.118 -1967377 -1981296 -1998084 -2013948 -2026085 -2033076 -2034989 
3919.493 -2032680 -2026843 -2018301 -2006890 -1993598 -1980042 -1968960 
3922.868 -1963418 -1966255 -1978096 -1996764 -2017675 -2035154 -2043531 
3926.244 -2040134 -2025029 -2001712 -1974633 -1948773 -1927266 -1912058 
3929.619 -1903250 -1900413 -1903316 -1911761 -1925682 -1944584 -1966453 
3932.994 -1988090 -2006428 -2018202 -2022424 -2019785 -2012661 -2003559 
3936.369 -1994522 -1986606 -1978921 -1970246 -1959757 -1947520 -1935282 
3939.745 -1925946 -1922285 -1926342 -1938316 -1956360 -1976909 -1996039 
3943.120 -2010155 -2017114 -2016388 -2009331 -1998644 -1987101 -1976975 
3946.495 -1970246 -1967904 -1969191 -1972951 -1977667 -1981593 -1983868 
3949.870 -1984066 -1982681 -1980372 -1977107 -1972852 -1966717 -1957481 
3953.246 -1945013 -1929542 -1912850 -1897180 -1885304 -1878970 -1879234 
3956.621 -1885436 -1896092 -1908891 -1921922 -1933302 -1942110 -1947981 
3959.996 -1951148 -1951643 -1949960 -1946497 -1941615 -1935612 -1929146 
3963.371 -1922417 -1915786 -1909386 -1903811 -1899687 -1897642 -1898038 
3966.747 -1901205 -1906516 -1913477 -1920767 -1927134 -1931719 -1934028 
3970.122 -1933863 -1931554 -1927596 -1922549 -1917138 -1911860 -1907242 
3973.497 -1903349 -1899852 -1895564 -1889560 -1880355 -1867423 -1851289 
3976.872 -1833308 -1815622 -1800477 -1789390 -1783153 -1781635 -1783648 
3980.248 -1787773 -1793152 -1798761 -1804008 -1808297 -1811036 -1811597 
3983.623 -1809584 -1804965 -1798695 -1791964 -1786453 -1783351 -1783087 
3986.998 -1785760 -1790776 -1797210 -1804634 -1812257 -1819846 -1826148 
3990.373 -1830173 -1830668 -1827105 -1819681 -1810244 -1800972 -1794076 
3993.749 -1791172 -1792360 -1796484 -1801170 -1804800 -1806746 -1807901 
3997.124 -1810145 -1815325 -1824762 -1837333 -1851388 -1863661 -1871711 
4000.499 -1873196 
##END=
