
##TITLE=Z404_2_c
##JCAMP-DX=5.01  $$ Nicolet v. 1
##DATATYPE=INFRARED SPECTRUM
##ORIGIN=UniL
##OWNER=Nicolet
##LONGDATE=2011/09/21
##TIME=11:12:18
##SPECTROMETER/DATA SYSTEM=Nicolet iS5
##DATA PROCESSING=
Ratio against background
%Transmittance->Absorbance
Truncated
ElementMultiply or ElementDivide
##COMMENTS=
Number of sample scans: 32
Collection length: 51.14 sec
Sample gain: 2.0
Background collected on: Mer Sep 21 11:00:40 2011 (GMT+02:00);
Number of background scans: 32
Background gain: 2.0
Sample spacing:  1.000
Number of scan points: 12415
Resolution points: 8192
Number of FFT points: 65536
Apodization: N-B fort;
Phase correction: Mertz;
Laser frequency: 15798.0 cm-1
Number of rejected sample scans: 0
Number of rejected background scans: 0
Bench serial number: ASB1000141;
##RESOLUTION=4.000
##XUNITS=1/CM
##YUNITS=ABSORBANCE
##FIRSTX=649.893372
##LASTX=4000.122314
##FIRSTY=0.106693
##MAXX=4000.122314
##MINX=649.893372
##MAXY=0.275668
##MINY=-0.004325
##XFACTOR=1.000000
##YFACTOR=1.000000E-009
##NPOINTS=6950
##DELTAX=0.482117
##ZPD=6100
##XYDATA=(X++(Y..Y))
649.893 106692936 106173728 105731136 105367240 105066064 104806640 
652.786 104574424 104370656 104207872 104101496 104054840 104053456 
655.679 104066336 104060312 104011096 103912672 103776160 103621296 
658.571 103465104 103314808 103169488 103024464 102878224 102734384 
661.464 102599576 102477480 102368712 102273352 102197752 102162832 
664.357 102202664 102353320 102637688 103040176 103485752 103822992 
667.250 103864576 103451440 102545192 101259360 99796904 98351496 97034040 
670.624 95876720 94850864 93900136 92966344 92008872 91012496 89980888 
673.999 88927496 87863992 86797584 85732168 84675320 83641408 82650032 
677.374 81719496 80860912 80072272 79341896 78651896 77988808 77346176 
680.749 76727696 76141880 75598448 75103400 74656760 74255032 73894184 
684.124 73571184 73284480 73032488 72811056 72612136 72426184 72243456 
687.498 72059024 71872328 71687328 71507912 71335312 71165720 70992832 
690.873 70811552 70622008 70431608 70252664 70097200 69971640 69872784 
694.248 69788528 69701608 69598920 69473432 69328848 69175232 69024928 
697.623 68885584 68757664 68634592 68506744 68366280 68209816 68040128 
700.998 67862664 67684120 67508168 67336496 67169736 67008600 66856956 
704.373 66719504 66600100 66499488 66413536 66334552 66253304 66163732 
707.747 66064304 65960160 65861276 65780848 65734392 65739832 65817132 
711.122 65991364 66287652 66725956 67312632 68031024 68834760 69647152 
714.497 70378024 70934312 71238840 71250552 70964976 70414928 69657928 
717.872 68771904 67845544 66968240 66237784 65750824 65587320 65802284 
721.247 66395240 67297576 68356048 69359488 70075464 70283360 69845616 
724.621 68732856 67035816 64934632 62659300 60437712 58432076 56733804 
727.996 55359440 54273160 53415140 52725592 52162132 51696284 51309984 
731.371 50987364 50709296 50455964 50210596 49964840 49719380 49481292 
734.746 49258700 49054956 48867368 48688344 48510172 48329148 48146348 
738.121 47967216 47797000 47637936 47488508 47344044 47199516 47052828 
741.496 46904892 46758888 46617652 46482332 46351916 46224932 46100672 
744.870 45981056 45868800 45766992 45675696 45591592 45508800 45421272 
748.245 45325380 45221344 45112372 45002912 44895684 44790684 44685236 
751.620 44576620 44463144 44345956 44227956 44111532 43997996 43887204 
754.995 43778968 43675412 43582104 43506612 43456660 43435712 43441460 
758.370 43466584 43502472 43544192 43593532 43659588 43755512 43894388 
761.744 44082304 44318252 44594864 44903656 45240648 45611688 46035172 
765.119 46545100 47189912 48025168 49112984 50502268 52210932 54203296 
768.494 56374200 58554188 60512128 62019404 62902116 63090244 62657236 
771.869 61807220 60835044 60016888 59548324 59475056 59683104 59925404 
775.244 59896532 59347672 58137120 56287056 53957900 51409112 48916948 
778.619 46697932 44895132 43550492 42630356 42052972 41727524 41577708 
781.993 41548500 41610528 41750544 41961908 42240124 42579772 42974736 
785.368 43420988 43916272 44460464 45055616 45706984 46423036 47216176 
788.743 48103484 49104560 50238756 51525156 52980472 54619796 56459884 
792.118 58520444 60823420 63391916 66243464 69384208 72801032 76460000 
795.493 80302584 84244792 88190728 92033856 95671240 99029008 102075096 
798.867 104842744 107428824 109996848 112743952 115845776 119423856 
801.760 123479672 127869520 132272664 136233824 139244336 140793952 
804.653 140531344 138340112 134384464 129071816 122961344 116656072 
807.546 110620960 105136888 100262456 95871552 91726640 87576440 83255376 
810.920 78711040 74018048 69326992 64824680 60672928 56971368 53762364 
814.295 51032752 48737752 46817196 45213476 43877672 42765876 41843276 
817.670 41080676 40454608 39950248 39559332 39277888 39102740 39027660 
821.045 39043176 39138452 39304804 39539840 39848508 40242412 40735756 
824.420 41340180 42062828 42903008 43852600 44893992 46001648 47142564 
827.794 48274860 49356396 50351660 51240592 52029180 52755184 53489824 
831.169 54325612 55371976 56742568 58529128 60791900 63531624 66674648 
834.544 70047280 73373368 76317536 78489112 79534528 79221352 77474832 
837.919 74419472 70337040 65631024 60717208 55953900 51620340 47869316 
841.294 44750644 42236952 40256444 38720480 37540244 36642804 35965180 
844.669 35454100 35068900 34776996 34556864 34397988 34296288 34250608 
848.043 34257960 34311524 34401864 34520452 34662612 34828980 35024788 
851.418 35256696 35529248 35843532 36197372 36588084 37014540 37478984 
854.793 37985616 38539656 39146032 39809032 40533756 41329212 42208172 
858.168 43189552 44296200 45552696 46987916 48634940 50530104 52716312 
861.543 55231752 58096816 61294472 64751400 68328824 71808376 74931656 
864.917 77424976 79033104 79585672 79013512 77369304 74809296 71576664 
868.292 67959792 64225800 60614064 57300432 54384080 51909452 49872844 
871.667 48243424 46975956 46023860 45346124 44904536 44665992 44601292 
875.042 44681820 44885396 45196784 45610508 46131664 46773500 47552640 
878.417 48480052 49554192 50753316 52034972 53333420 54566892 55654668 
881.792 56521848 57118276 57428996 57476876 57319564 57032648 56701448 
885.166 56398080 56171312 56047836 56032224 56118108 56296564 56563664 
888.541 56920784 57372272 57918944 58553996 59260312 60013732 60785612 
891.916 61546992 62274864 62949264 63554444 64078236 64510584 64844260 
895.291 65076604 65208568 65244952 65192088 65058128 64853296 64590552 
898.666 64289652 63975140 63674548 63415276 63216008 63083956 63012964 
902.040 62987188 62985808 62990368 62991744 62991172 63000208 63036568 
905.415 63121700 63277104 63521072 63870796 64340404 64940556 65678968 
908.790 66560200 67585504 68755376 70071304 71536888 73158936 74945120 
912.165 76903240 79039864 81360776 83874744 86597768 89555336 92784272 
915.540 96330760 100238536 104546184 109273728 114416760 119934664 125743224 
918.914 131712688 137641600 143267696 148286544 152350672 155149776 
921.807 156467472 156234944 154579312 151824464 148483712 145144000 
924.700 142425968 140902384 140972416 142844992 146474720 151575296 
927.593 157607872 163845232 169525200 173878960 176305888 176471312 
930.485 174299680 169965152 163794528 156209408 147630384 138438896 
933.378 128994496 119601784 110526848 102011352 94239520 87350392 81436032 
936.753 76533336 72643632 69742504 67791360 66741416 66528456 67067832 
940.128 68230136 69834064 71663528 73456160 74950600 75929352 76229576 
943.502 75784544 74622768 72862120 70676320 68261624 65816516 63496448 
946.877 61410408 59620040 58140716 56958260 56040672 55351952 54856504 
950.252 54522524 54323996 54236332 54236820 54306536 54429672 54595640 
953.627 54799856 55040948 55318228 55629844 55971312 56336320 56719232 
957.002 57116728 57528924 57958056 58406680 58874588 59358728 59852988 
960.377 60351316 60849264 61345912 61842596 62341908 62844948 63350820 
963.751 63856788 64360692 64861952 65363028 65867952 66380800 66903920 
967.126 67437416 67980256 68531912 69094416 69672320 70271056 70895264 
970.501 71545992 72221184 72917336 73632296 74367448 75128728 75924888 
973.876 76764584 77652816 78590752 79575800 80604616 81675064 82787248 
977.251 83942352 85140696 86378368 87647680 88936760 90233072 91524672 
980.625 92800272 94048808 95257040 96408032 97483616 98467744 99350352 
984.000 100130960 100819232 101431416 101984528 102494560 102973768 
986.893 103431472 103877912 104325568 104788544 105281352 105814160 
989.786 106390336 107006480 107654632 108327000 109018432 109727888 
992.678 110456296 111203208 111964664 112732096 113494608 114242800 
995.571 114971008 115677424 116362736 117026696 117666040 118274648 
998.464 118846744 119380416 119880560 120358840 120831704 121314416 
1001.356 121820336 122358608 122935264 123556816 124231344 124967624 
1004.249 125773816 126654040 127607312 128628896 129713968 130861240 
1007.142 132075992 133367704 134747904 136224848 137800512 139470272 
1010.035 141224896 143054432 144948192 146893776 148874672 150863728 
1012.927 152826256 154724496 156524112 158205936 159772128 161246528 
1015.820 162668016 164082912 165539312 167077792 168734032 170539520 
1018.713 172519728 174694992 177077120 179666496 182453408 185422480 
1021.605 188561616 191868112 195352640 199035664 202940928 207084896 
1024.498 211471424 216089504 220918400 225933520 231105920 236401920 
1027.391 241774752 247150576 252431600 257494864 262196384 266397840 
1030.284 269964160 272768832 274703584 275668000 275580736 274397120 
1033.177 272120192 268814368 264596992 259633808 254110880 248204768 
1036.070 242089728 235918608 229823888 223934784 218364384 213210048 
1038.963 208558528 204473680 201001936 198176592 196011312 194496832 
1041.856 193583696 193172992 193094272 193101408 192914496 192225952 
1044.750 190764608 188359776 184953568 180623872 175551456 169998848 
1047.643 164250912 158564656 153166704 148214208 143795840 139945120 
1050.536 136644144 133841384 131462408 129430472 127672928 126128600 
1053.429 124754376 123519696 122401688 121381928 120440032 119553128 
1056.322 118699520 117858496 117013160 116151360 115261544 114332560 
1059.215 113352928 112312640 111206552 110037824 108819672 107572744 
1062.108 106321504 105092272 103907080 102784760 101741560 100789936 
1065.001 99938144 99187224 98526312 97929584 97355232 96754688 96076008 
1068.376 95277304 94336640 93254640 92055032 90776680 89470152 88186304 
1071.751 86968416 85852432 84860552 84002208 83275280 82667784 82161648 
1075.127 81734528 81365928 81038216 80737232 80452336 80173880 79890144 
1078.502 79589176 79258648 78889888 78481760 78042064 77587088 77137848 
1081.877 76717808 76348384 76046856 75828568 75706904 75694248 75803760 
1085.252 76046976 76433128 76968504 77656616 78499192 79496768 80648224 
1088.628 81947320 83378120 84913488 86511624 88120584 89691008 91179800 
1092.003 92562544 93835688 95013800 96121024 97180264 98207328 99205928 
1095.378 100170144 101091760 101968944 102813104 103654952 104538680 
1098.271 105515544 106630928 107903824 109313624 110785312 112198936 
1101.164 113389712 114173664 114393344 113932648 112750400 110886112 
1104.057 108453984 105619864 102561184 99459648 96465584 93684416 91184456 
1107.433 88991296 87098528 85476936 84084728 82875536 81801408 80821600 
1110.808 79901304 79011840 78131864 77243720 76333216 75390608 74410696 
1114.183 73395296 72352480 71297360 70249160 69226648 68247784 67326088 
1117.558 66470756 65687796 64980812 64351744 63801216 63327164 62924712 
1120.934 62585204 62298156 62051508 61832128 61627020 61420524 61191960 
1124.309 60916584 60564084 60102576 59506252 58759364 57861968 56830404 
1127.684 55696776 54503068 53291200 52102208 50966720 49903212 48918840 
1131.059 48011068 47170412 46383804 45638076 44922028 44227556 43551152 
1134.435 42893608 42258644 41651992 41079512 40546340 40056296 39611888 
1137.810 39215400 38869096 38575212 38335992 38152212 38023188 37947104 
1141.185 37921540 37944644 38015776 38135644 38305192 38524300 38790436 
1144.560 39098460 39441176 39811100 40201264 40605820 41020292 41439752 
1147.936 41859660 42274968 42681640 43078088 43465520 43848200 44230892 
1151.311 44618364 45012908 45414728 45822436 46234628 46651076 47072764 
1154.686 47500632 47934508 48370924 48804004 49225488 49625984 49997444 
1158.061 50332240 50623468 50864044 51046392 51162044 51203868 51166292 
1161.437 51046464 50843856 50559588 50195420 49753004 49235024 48645688 
1164.812 47991748 47283524 46533560 45754768 44960576 44161892 43368040 
1168.187 42587412 41828500 41099944 40411840 39773192 39191900 38673500 
1171.562 38220736 37834516 37515504 37264876 37084980 36979040 36949812 
1174.938 36999460 37129224 37340156 37634620 38017112 38494108 39074388 
1178.313 39766472 40578968 41520612 42600860 43831308 45227376 46805864 
1181.688 48584760 50580956 52806744 55270364 57974832 60916928 64083420 
1185.063 67445424 70956000 74537432 78083712 81471040 84553816 87188520 
1188.438 89252392 90644024 91304240 91218304 90417256 88971568 86982256 
1191.814 84574864 81873704 78998768 76058928 73138120 70302488 67599568 
1195.189 65056816 62688164 60495296 58471196 56603072 54876132 53277080 
1198.564 51794940 50422920 49158288 48000816 46951032 46008460 45170752 
1201.939 44433228 43789596 43232632 42755304 42350792 42011508 41728584 
1205.315 41490568 41283516 41093240 40906544 40713156 40508180 40290760 
1208.690 40063564 39830712 39597004 39367452 39147372 38944368 38767792 
1212.065 38628740 38539544 38511556 38553596 38673068 38874424 39161300 
1215.440 39535996 39999872 40551904 41187988 41901912 42685040 43529172 
1218.816 44428752 45381728 46389448 47454984 48581980 49773364 51031524 
1222.191 52359640 53762552 55246580 56819224 58485644 60246548 62096236 
1225.566 64022364 66006324 68023000 70043464 72033680 73953536 75762688 
1228.941 77420856 78892984 80157624 81207192 82051128 82712520 83228688 
1232.317 83648552 84027744 84434392 84944544 85635256 86589192 87881472 
1235.692 89574600 91719840 94350640 97485520 101129480 105274896 109899920 
1239.067 114962112 120400856 126130688 132041960 138019824 143941248 
1241.960 149686768 155152656 160240400 164859072 168928992 172373984 
1244.853 175128736 177141344 178369072 178780560 178355296 177084048 
1247.746 174976320 172064192 168404976 164072336 159145136 153698640 
1250.639 147790448 141464976 134762592 127729136 120431200 112963128 
1253.532 105436168 97981936 90737720 83822896 77345744 71385376 65984532 
1256.908 61156828 56884712 53129180 49834904 46940992 44388784 42121308 
1260.283 40091728 38262856 36605312 35099464 33732308 32493680 31376022 
1263.658 30370488 29466840 28654532 27922708 27261998 26665180 26126462 
1267.033 25640322 25201180 24802998 24440372 24109886 23810870 23545888 
1270.409 23319452 23136638 23002252 22919600 22892182 22924106 23021608 
1273.784 23192906 23446346 23788716 24221982 24741646 25334456 25977638 
1277.159 26640586 27282922 27857662 28318880 28623246 28740444 28659666 
1280.534 28391422 27966278 27426156 26820476 26192092 25572558 24981984 
1283.910 24428666 23913718 23436132 22995860 22594388 22234194 21917160 
1287.285 21643960 21414754 21229402 21089030 20994362 20945750 20939908 
1290.660 20970124 21027400 21102144 21187512 21281838 21388336 21513134 
1294.035 21662802 21842172 22053582 22297810 22576866 22894592 23257782 
1297.411 23674562 24153006 24699520 25319318 26016862 26796544 27661242 
1300.786 28609444 29629880 30696282 31769942 32797020 33718304 34481740 
1304.161 35044832 35385652 35503720 35418688 35165532 34787836 34335944 
1307.536 33857048 33393062 32979082 32637428 32378786 32202792 32100354 
1310.912 32057580 32059044 32091896 32145270 32210104 32278556 32341908 
1314.287 32391816 32421090 32424484 32399632 32345552 32261462 32144986 
1317.662 31992376 31799532 31565222 31292900 30992282 30677398 30363206 
1321.037 30063406 29786240 29535602 29312012 29115676 28947906 28812700 
1324.413 28715168 28661082 28655558 28703130 28808808 28978684 29218794 
1327.788 29533262 29920614 30372018 30869818 31391554 31914950 32421448 
1331.163 32900586 33350092 33772412 34171272 34548004 34900680 35224568 
1334.538 35514972 35768728 35986416 36171440 36329488 36466804 36590752 
1337.914 36710588 36837380 36985424 37170228 37405556 37702268 38065648 
1341.289 38496204 38991340 39546880 40157720 40816444 41513028 42235160 
1344.664 42968628 43702968 44433192 45161008 45891776 46628132 47361524 
1348.039 48067508 48702096 49205484 49516608 49577552 49349452 48819796 
1351.415 48003884 46943836 45699768 44347976 42965516 41623580 40386240 
1354.790 39299328 38391188 37673532 37142688 36785340 36584044 36523528 
1358.165 36591580 36778668 37076356 37472840 37952816 38500332 39099984 
1361.540 39742508 40426024 41154980 41935120 42767996 43646980 44555140 
1364.916 45466780 46345652 47149616 47831064 48336148 48617148 48637272 
1368.291 48379408 47851816 47086576 46133796 45045768 43873604 42658796 
1371.666 41429620 40209076 39018852 37883324 36834708 35907340 35128964 
1375.041 34514712 34061812 33754184 33569688 33491370 33513594 33645976 
1378.417 33911856 34347064 35000188 35925332 37182752 38829240 40898388 
1381.792 43379760 46191212 49179360 52107772 54688900 56642404 57700504 
1385.167 57668640 56460564 54128976 50883788 47053600 43046512 39226244 
1388.542 35843820 33025772 30777936 29035750 27702912 26686212 25905920 
1391.917 25298948 24821802 24442054 24136962 23893202 23703956 23568240 
1395.293 23488488 23467434 23505278 23598886 23740454 23918480 24119764 
1398.668 24330392 24540984 24749256 24960964 25186888 25437664 25720364 
1402.043 26034874 26374328 26726382 27077978 27417896 27738902 28038160 
1405.418 28315414 28571154 28806612 29025372 29235382 29448614 29681178 
1408.794 29948302 30260454 30620544 31024310 31464252 31933136 32429126 
1412.169 32954846 33514596 34109872 34736188 35384072 36043980 36712568 
1415.544 37397036 38116508 38897872 39769268 40749984 41841708 43021856 
1418.919 44245128 45452140 46585708 47603700 48480352 49205892 49783584 
1422.295 50230904 50584232 50900144 51255432 51726108 52370592 53217528 
1425.670 54262044 55479224 56837768 58313636 59888244 61543440 63257404 
1429.045 64999780 66738592 68452816 70141632 71828352 73550032 75349648 
1432.420 77260152 79302160 81487704 83831664 86361912 89118896 92146048 
1435.796 95465952 99056976 102842240 106716240 110587880 114401624 118134680 
1439.171 121763896 125244168 128477696 131314080 133586096 135114752 
1442.064 135752048 135406656 134042816 131690112 128436152 124433584 
1444.957 119880728 114992336 110001632 105117552 100515168 96339112 92677944 
1448.332 89560144 86947040 84752680 82865912 81184904 79650784 78258376 
1451.708 77055816 76115072 75508120 75271944 75396512 75825488 76469008 
1455.083 77226304 77983976 78644160 79150936 79514472 79811064 80145544 
1458.458 80621688 81306712 82236520 83425384 84868080 86541472 88398376 
1461.833 90372784 92365720 94241944 95851640 97035856 97674176 97730272 
1465.208 97271112 96447872 95434912 94397824 93456680 92681264 92108768 
1468.584 91743584 91560680 91499280 91462624 91322440 90926736 90150248 
1471.959 88941440 87365744 85592320 83837968 82292184 81062976 80191776 
1475.334 79678256 79508192 79669848 80152720 80938712 81993096 83262112 
1478.709 84683136 86185824 87709144 89210968 90669576 92090056 93499240 
1482.085 94943248 96477000 98163416 100076720 102296584 104906992 107981568 
1485.460 111558920 115615200 120031584 124601912 129010944 132861120 
1488.353 135737968 137226544 137007392 134945328 131133584 125898256 
1491.246 119696672 113020848 106263224 99666264 93362760 87388352 81743296 
1494.621 76449408 71562208 67182848 63435748 60424688 58197920 56735280 
1497.997 55972444 55822232 56200012 57036392 58269264 59838420 61684228 
1501.372 63736936 65921320 68163536 70371208 72436248 74225000 75540288 
1504.747 76127472 75690896 73966776 70874664 66631696 61719860 56660940 
1508.122 51821412 47352396 43251628 39463744 35942464 32668612 29657870 
1511.498 26941346 24540704 22463486 20695816 19209966 17972612 16948402 
1514.873 16102036 15392452 14777394 14222126 13707095 13237284 12835549 
1518.248 12528915 12330817 12231598 12195950 12175436 12123507 12019975 
1521.623 11883094 11760724 11701424 11727771 11833651 11991907 12173562 
1524.999 12356861 12536179 12719836 12921935 13151176 13405791 13676455 
1528.374 13954782 14240819 14545992 14888136 15283915 15739832 16248956 
1531.749 16790948 17337616 17864846 18360464 18830732 19292780 19766936 
1535.124 20264454 20785970 21324538 21871338 22421128 22968332 23506502 
1538.500 24021770 24487836 24869448 25136610 25281668 25325816 25307586 
1541.875 25265688 25219054 25164382 25080512 24943100 24737612 24470588 
1545.250 24169538 23874930 23622256 23428370 23290608 23190880 23107598 
1548.625 23024158 22936928 22854778 22794012 22768242 22782350 22832776 
1552.000 22911706 23013466 23137618 23289524 23476178 23701856 23965500 
1555.376 24260172 24575414 24900114 25217296 25498132 25699692 25766560 
1558.751 25659760 25390062 25025472 24653928 24336806 24097838 23926846 
1562.126 23796066 23669768 23515036 23309032 23044702 22733816 22401658 
1565.501 22076974 21777858 21506276 21248434 20982468 20685252 20341706 
1568.877 19950242 19524890 19090708 18674426 18299012 17978932 17720380 
1572.252 17524144 17384620 17289756 17218596 17143138 17033990 16867344 
1575.627 16639989 16373940 16110083 15885806 15721109 15613830 15548713 
1579.002 15507264 15476121 15450163 15430353 15421118 15425717 15444601 
1582.378 15475022 15514235 15560252 15612525 15669510 15725678 15770651 
1585.753 15790958 15773401 15711524 15608815 15479657 15345182 15229211 
1589.128 15153859 15135400 15185219 15311510 15518905 15807316 16167203 
1592.503 16577264 17000394 17388412 17693666 17873856 17904274 17782924 
1595.879 17528974 17177402 16768286 16343698 15939046 15583022 15300904 
1599.254 15113236 15035675 15077970 15242388 15525120 15918251 16413888 
1602.629 17004942 17683004 18435892 19242384 20069704 20877986 21619408 
1606.004 22245216 22714124 22992366 23061580 22919462 22579658 22068014 
1609.380 21416842 20664610 19851000 19015962 18200492 17437560 16750000 
1612.755 16147600 15626092 15170740 14760666 14374439 13992387 13601679 
1616.130 13201452 12803913 12432003 12111174 11861267 11691213 11598605 
1619.505 11572980 11598469 11657856 11734954 11818568 11904990 11998039 
1622.881 12106131 12238175 12399033 12588465 12803435 13041832 13303251 
1626.256 13587765 13893471 14213189 14533383 14837116 15110938 15348923 
1629.631 15555787 15742959 15924782 16111458 16306335 16504947 16697556 
1633.006 16870788 17009146 17096334 17116356 17056906 16915398 16703410 
1636.382 16446235 16172636 15905637 15656766 15424551 15199426 14967181 
1639.757 14716173 14440647 14145064 13841439 13546264 13273734 13029746 
1643.132 12811455 12607839 12403022 12178912 11920111 11616811 11267508 
1646.507 10881724 10479785 10089714 9738858 9450182 9237304 9102989 9041107 
1650.365 9034849 9058294 9070846 9020166 8858999 8569893 8190886 7797029 
1654.222 7455165 7190774 6994321 6842689 6714833 6597813 6486811 6383403 
1658.080 6291012 6212556 6147691 6092916 6042314 5989400 5927793 5850409 
1661.937 5752559 5631836 5491618 5341214 5195825 5071771 4981369 4930862 
1665.794 4918899 4937129 4971951 5007478 5029835 5028025 4997289 4939642 
1669.652 4861899 4773651 4685219 4606483 4545138 4505798 4487820 4484405 
1673.509 4481225 4458896 4399915 4296769 4158586 4008710 3875634 3778929 
1677.367 3724017 3703899 3705370 3716030 3729297 3747345 3779062 3834582 
1681.224 3918093 4023257 4129517 4205992 4216999 4137612 3970689 3752291 
1685.082 3534504 3356326 3233764 3162300 3128091 3115075 3110303 3104263 
1688.939 3090380 3065453 3030050 2989312 2952715 2931632 2937236 2976034 
1692.796 3047334 3141607 3242110 3327477 3377196 3382105 3351083 3310148 
1696.654 3287078 3300299 3350683 3423981 3493351 3525585 3492316 3382472 
1700.511 3214904 3030351 2871124 2760003 2698585 2675348 2672947 2673547 
1704.369 2660679 2623609 2559444 2474495 2380266 2289856 2212952 2153309 
1708.226 2109823 2078394 2055256 2038710 2030421 2034582 2056321 2099302 
1712.083 2163932 2246822 2342321 2444271 2547712 2649177 2745932 2832802 
1715.941 2900643 2936269 2925827 2863019 2753934 2618775 2483092 2370205 
1719.798 2294119 2258380 2258746 2286891 2333859 2390861 2451236 2510252 
1723.656 2565010 2614875 2660912 2706287 2755802 2813592 2882931 2962990 
1727.513 3049470 3134198 3208495 3266346 3306609 3334021 3356726 3382038 
1731.371 3411525 3437006 3439177 3393158 3274692 3076732 2818561 2542779 
1735.228 2294719 2102132 1973301 1899581 1864905 1851495 1843409 1829101 
1739.085 1802848 1766251 1726330 1692733 1673573 1672476 1688741 1718080 
1742.943 1754374 1791969 1827936 1862609 1899015 1941182 1992306 2052459 
1746.800 2118980 2186443 2248621 2300182 2336358 2352715 2344120 2304912 
1750.658 2231069 2123608 1991807 1851295 1721240 1618229 1551319 1520961 
1754.515 1518766 1530836 1540745 1534760 1507428 1461813 1408789 1360126 
1758.373 1324496 1303725 1293289 1283785 1264511 1226530 1164631 1079522 
1762.230 977625 870043 769291 686582 631164 607108 613711 644637 689569 
1766.570 735635 770984 790070 794850 793389 795846 809058 833059 859684 
1770.909 875720 867486 827648 759134 674137 588826 516004 461338 424057 
1775.249 400211 386713 382203 387509 403892 430591 463759 497129 523667 
1779.588 538098 539359 530800 519222 511227 511128 519852 534349 549743 
1783.928 560592 562814 554620 537269 514545 492651 478619 479515 500678 
1788.268 545065 610758 690930 775133 849392 899824 916127 893848 837043 
1792.607 756180 665178 576848 499119 435699 386713 350898 326559 312135 
1796.947 306531 308753 317507 331599 349240 367811 384127 393611 392451 
1801.286 377958 350268 312400 269960 229812 197358 176474 168022 170508 
1805.626 181314 197954 218607 242741 269828 298607 326426 350036 365788 
1809.966 371425 366351 351893 330704 305371 278647 252753 229348 211081 
1814.305 200341 199645 210120 231602 261804 297612 335910 374609 413444 
1818.645 453211 495006 539259 586072 635511 688142 745492 808925 878542 
1822.984 951325 1021397 1080651 1122705 1145196 1153136 1156026 1165893 
1826.842 1191509 1235169 1291462 1349224 1395393 1418761 1415404 1389775 
1830.699 1353146 1318747 1296679 1292957 1308211 1340516 1386817 1444126 
1834.557 1510155 1582511 1658872 1736709 1814294 1891228 1969040 2051094 
1838.414 2141522 2244491 2363375 2500221 2655578 2828666 3017839 3218843 
1842.271 3425017 3628181 3818638 3989147 4137545 4267222 4385422 4498801 
1846.129 4610837 4719484 4818376 4898725 4953182 4977347 4971548 4939073 
1849.986 4884785 4812613 4724073 4618907 4496625 4357877 4205791 4045865 
1853.844 3883758 3724285 3569981 3421443 3278198 3140439 3008930 2885366 
1857.701 2771074 2665513 2566510 2471029 2376335 2281029 2186243 2093742 
1861.559 2005888 1923875 1847967 1778261 1715818 1663695 1626510 1608950 
1865.416 1613007 1636820 1674172 1714554 1746656 1761028 1752079 1719577 
1869.273 1668717 1607786 1545201 1488044 1441600 1408024 1387714 1378540 
1873.131 1376313 1375416 1370297 1357134 1335032 1306151 1274447 1243941 
1876.988 1216495 1191077 1164564 1133369 1095067 1050425 1002234 954214 
1880.846 909088 867519 827448 786385 742870 697468 653629 615801 587764 
1885.185 571241 565668 568388 575953 585608 594566 600206 599377 589058 
1889.525 567360 535942 500015 468005 448468 448037 468138 504593 549013 
1893.865 591878 625789 647656 659204 664746 668695 673441 679215 684525 
1898.204 688175 690897 694016 699691 708785 720367 731984 741576 748944 
1902.544 756246 767465 786186 813539 847699 884452 919348 949631 975434 
1906.883 998182 1019935 1039896 1055507 1062050 1056836 1040096 1016581 
1910.741 993466 977758 973441 980282 994629 1012994 1033453 1058064 1090583 
1915.080 1134698 1189316 1248294 1300434 1333869 1340615 1320475 1281492 
1918.938 1235468 1194466 1165661 1149415 1141608 1136259 1128619 1116360 
1922.795 1100382 1082279 1064143 1046838 1031161 1018707 1012064 1014223 
1926.653 1027840 1051986 1082877 1114002 1139947 1157621 1168551 1177322 
1930.510 1189117 1206992 1230550 1255273 1275876 1289434 1296513 1301332 
1934.367 1309042 1323466 1344637 1369266 1392601 1410883 1424679 1437743 
1938.225 1456028 1484387 1524685 1574996 1630767 1686679 1738805 1784084 
1942.082 1820683 1847402 1863141 1868266 1865005 1859414 1859614 1873457 
1945.940 1905870 1956725 2019769 2084919 2142621 2186776 2216615 2236731 
1949.797 2252984 2270937 2292987 2319136 2347485 2378467 2412284 2450436 
1953.655 2492356 2533814 2567577 2585909 2583776 2561344 2525582 2487757 
1957.512 2459066 2447770 2455267 2478060 2509552 2544246 2580276 2619242 
1961.369 2663579 2714856 2771541 2831168 2890769 2951080 3013968 3082271 
1965.227 3155158 3228724 3293221 3339497 3361334 3359665 3342135 3320532 
1969.084 3303872 3297828 3300266 3306008 3309714 3310916 3313387 3325006 
1972.942 3351584 3394660 3448963 3507313 3563400 3616854 3674125 3742866 
1976.799 3829401 3930899 4035798 4125737 4184747 4203449 4182138 4130052 
1980.656 4060513 3985302 3912376 3844477 3781201 3721878 3667709 3619962 
1984.514 3580605 3548367 3520107 3490846 3457680 3420241 3383440 3353421 
1988.371 3336425 3334989 3346375 3365008 3383540 3397399 3405413 3410256 
1992.229 3416935 3428958 3449430 3478354 3514729 3556351 3601485 3646324 
1996.086 3685286 3711518 3718837 3704033 3670516 3626243 3584647 3556886 
1999.944 3550505 3564536 3591262 3618625 3635899 3636935 3623069 3599581 
2003.801 3574224 3552910 3538345 3530161 3527155 3528892 3536675 3552075 
2007.658 3574859 3601619 3627713 3648429 3663499 3677233 3696915 3730233 
2011.516 3781068 3846951 3920133 3990719 4052888 4105767 4154806 4207865 
2015.373 4271806 4347134 4428200 4504995 4568175 4612511 4639134 4653334 
2019.231 4661506 4668774 4677080 4685353 4693057 4700526 4709904 4724810 
2023.088 4747387 4776666 4809162 4840958 4869539 4894905 4920373 4949161 
2026.946 4983145 5020215 5055278 5082130 5097887 5103586 5105229 5110559 
2030.803 5126820 5157230 5200519 5252197 5307269 5360771 5409884 5453299 
2034.660 5490008 5519369 5540679 5555110 5565715 5577126 5593975 5619451 
2038.518 5653152 5691287 5727881 5757930 5777674 5786505 5785766 5776163 
2042.375 5757259 5727478 5684908 5630125 5566756 5501954 5443770 5399920 
2046.233 5374994 5369627 5380798 5403912 5434208 5466318 5494202 5511953 
2050.090 5512457 5491215 5447293 5385629 5316158 5252029 5205248 5182714 
2053.948 5183049 5198239 5216113 5226542 5223725 5209306 5189923 5174063 
2057.805 5167122 5170844 5181976 5196093 5209004 5219030 5226810 5233585 
2061.662 5238950 5240963 5235664 5220573 5195356 5163937 5132385 5106369 
2065.520 5088868 5078912 5071603 5060809 5042339 5014249 4978251 4938001 
2069.377 4896882 4857108 4819414 4784438 4753451 4728729 4713220 4709235 
2073.235 4716201 4730638 4746617 4759145 4764271 4761256 4752110 4740051 
2077.092 4726988 4713890 4700124 4684784 4667970 4651090 4636757 4627480 
2080.949 4623930 4625337 4629456 4633776 4637092 4639871 4643656 4649651 
2084.807 4658291 4667803 4675372 4678353 4675272 4666296 4652865 4635752 
2088.664 4615692 4592184 4565095 4534491 4502919 4474329 4453138 4443296 
2092.522 4446175 4460837 4484405 4513900 4547047 4582306 4618941 4655177 
2096.379 4688166 4714125 4729969 4734725 4730772 4723303 4718144 4719584 
2100.237 4729299 4745210 4763902 4782026 4798609 4815461 4836301 4864513 
2104.094 4901674 4946915 4997323 5049546 5101306 5152100 5203001 5254847 
2107.951 5307437 5359395 5408576 5453869 5495846 5536887 5580013 5627674 
2111.809 5680108 5735502 5789997 5840738 5885438 5924299 5959099 5991785 
2115.666 6023970 6056224 6088850 6122285 6157571 6196691 6241530 6292626 
2119.524 6348972 6407882 6466766 6523808 6578570 6632297 6686130 6740139 
2123.381 6792471 6840367 6881535 6915469 6945466 6976711 7015805 7067699 
2127.239 7134150 7212739 7298183 7384553 7466491 7541364 7608461 7668925 
2131.096 7724439 7777092 7828605 7881710 7938871 8002383 8072961 8148952 
2134.953 8226645 8301784 8370721 8433048 8491024 8549415 8612511 8682308 
2138.811 8757459 8833806 8905838 8969290 9020844 9060121 9086816 9100282 
2142.668 9099741 9084379 9056027 9019084 8980554 8947846 8924981 8912805 
2146.526 8906176 8899074 8885242 8862246 8832284 8800196 8768751 8738696 
2150.383 8704957 8660202 8598417 8518158 8423048 8322927 8227151 8142504 
2154.240 8070498 8009437 7956993 7916599 7898344 7916734 7986826 8115225 
2158.098 8294523 8502885 8710028 8886527 9010999 9075955 9084244 9046317 
2161.955 8972841 8875367 8762700 8642895 8523699 8411832 8311342 8221748 
2165.813 8137372 8050919 7954495 7844225 7721065 7590287 7459142 7333261 
2169.670 7215940 7107239 7006006 6911631 6825691 6751850 6692793 6650027 
2173.528 6620992 6600975 6584828 6568849 6552265 6535312 6517821 6496867 
2177.385 6466834 6420997 6355529 6272019 6178307 6085792 6005693 5945058 
2181.242 5903575 5874220 5846950 5813033 5769313 5717842 5664767 5616060 
2185.100 5575952 5544807 5520208 5499101 5478867 5458030 5435181 5408374 
2188.957 5374524 5331386 5279531 5223692 5172755 5136040 5122025 5132016 
2192.815 5161422 5199178 5232008 5249984 5248240 5227749 5193880 5152972 
2196.672 5110291 5068486 5029098 4993434 4964074 4944133 4935755 4938135 
2200.530 4947183 4956433 4959785 4953048 4935990 4911559 4884015 4855533 
2204.387 4826752 4796298 4762361 4725949 4692018 4666664 4656382 4664353 
2208.244 4688166 4721025 4754456 4781088 4797604 4804572 4806147 4806114 
2212.102 4807219 4809665 4812948 4816232 4820420 4827020 4837909 4852785 
2215.959 4869137 4882540 4888270 4883914 4870444 4851479 4831610 4813685 
2219.817 4797905 4781959 4761993 4735898 4704378 4670951 4640809 4618103 
2223.674 4604575 4599015 4598480 4599518 4599719 4598815 4597810 4597877 
2227.531 4598948 4599752 4598580 4594194 4586090 4575643 4563822 4551835 
2231.389 4539882 4528197 4517114 4508309 4504593 4509146 4523175 4545976 
2235.246 4573466 4601460 4625270 4643053 4655578 4666664 4679960 4698081 
2239.104 4720623 4744440 4765577 4779882 4785644 4783634 4776431 4767386 
2242.961 4759849 4756164 4757805 4765946 4780485 4800150 4822531 4843571 
2246.819 4859185 4866322 4864312 4855332 4843471 4833888 4829264 4829700 
2250.676 4832548 4833654 4829968 4822028 4813317 4810168 4818309 4840656 
2254.533 4875906 4918429 4960421 4994138 5014819 5020484 5012439 4994272 
2258.391 4969772 4942726 4916318 4892861 4873995 4860459 4851680 4846051 
2262.248 4840858 4833721 4823234 4810603 4798006 4788659 4785075 4787520 
2266.106 4794120 4801557 4806650 4807722 4804908 4800184 4795962 4793952 
2269.963 4794254 4795493 4795795 4792612 4785376 4773550 4758073 4739549 
2273.821 4718915 4697344 4676578 4659095 4647675 4644225 4649550 4662444 
2277.678 4679693 4697109 4711378 4720020 4723001 4721293 4716838 4711144 
2281.535 4705249 4699153 4692956 4686559 4680698 4676042 4672961 4671587 
2285.393 4671320 4672090 4673697 4677080 4682942 4692119 4704344 4718245 
2289.250 4731476 4742128 4748962 4752177 4753283 4754556 4757504 4763199 
2293.108 4771373 4781691 4793718 4807923 4825177 4846554 4872219 4901171 
2296.965 4931298 4959885 4985055 5006003 5023634 5039959 5056787 5075962 
2300.823 5098021 5122696 5149754 5178657 5209808 5243176 5279363 5318103 
2304.680 5359563 5403644 5451051 5502826 5560547 5625325 5697665 5776465 
2308.537 5859914 5945629 6031932 6117849 6203179 6288054 6372105 6454592 
2312.395 6534202 6609688 6681184 6749797 6818589 6890759 6969304 7056181 
2316.252 7151430 7253404 7359243 7466086 7571034 7672196 7768423 7859441 
2320.110 7945417 8026617 8102836 8172552 8232959 8279832 8308201 8314719 
2323.967 8298137 8261528 8211686 8158675 8113133 8083965 8076709 8092168 
2327.824 8126332 8172012 8221478 8267776 8306479 8336268 8357784 8373120 
2331.682 8384605 8394705 8405583 8419332 8438014 8463015 8495451 8535222 
2335.539 8581553 8633195 8688765 8746776 8806079 8865391 8922986 8976934 
2339.397 9025241 9066549 9100688 9128536 9151715 9171207 9186132 9192630 
2343.254 9183357 9149177 9080759 8971353 8820077 8633804 8427542 8222525 
2347.112 8042210 7910593 7845878 7859340 7954596 8126940 8364472 8648912 
2350.969 8960732 9279580 9588636 9877167 10140451 10378001 10591846 10784227 
2354.826 10956950 11110706 11246460 11365828 11470804 11563861 11646523 
2358.202 11719363 11782104 11834434 11877237 11912278 11941363 11966430 
2361.577 11987275 12002501 12009075 12004135 11986185 11955906 11915820 
2364.952 11869302 11819657 11768588 11716810 11663336 11607180 11547017 
2368.327 11481554 11409468 11329300 11239591 11139499 11029064 10909720 
2371.703 10783277 10652149 10517702 10380614 10240347 10096158 9948083 
2375.078 9797823 9648393 9503689 9367497 9242110 9128502 9026222 8934621 
2378.935 8853014 8781802 8721826 8674128 8639279 8616837 8605853 8604635 
2382.793 8611835 8626266 8646850 8672371 8701272 8731123 8760062 8786502 
2386.650 8810509 8832995 8855922 8881048 8908815 8938239 8967261 8993070 
2390.508 9013739 9028184 9036777 9040837 9041615 9040228 9037386 9033496 
2394.365 9029301 9025511 9023549 9024091 9027778 9034375 9043611 9054910 
2398.222 9068985 9086782 9110162 9140379 9177942 9222412 9272709 9327616 
2402.080 9387032 9451638 9523231 9603811 9694606 9795484 9905268 10021622 
2405.937 10142011 10264366 10387435 10510879 10635035 10760892 10889742 
2409.313 11023183 11163058 11310731 11466449 11629029 11795586 11962275 
2412.688 12125143 12280778 12427707 12565681 12695476 12817496 12931049 
2416.063 13034834 13126382 13203570 13265603 13312954 13348077 13374080 
2419.438 13393967 13410576 13425680 13440717 13456712 13474279 13493932 
2422.813 13515158 13537444 13559835 13582261 13605645 13632690 13667292 
2426.189 13713079 13773201 13848589 13938769 14041528 14155026 14278209 
2429.564 14411703 14557161 14716584 14891359 15081195 15284533 15498988 
2432.939 15722310 15952794 16189730 16432436 16680650 16933552 17190328 
2436.314 17450668 17714754 17983974 18260168 18545392 18840938 19147078 
2439.690 19463306 19788160 20119918 20457384 20799664 21145974 21495482 
2443.065 21847154 22199774 22552472 22905002 23257886 23611620 23967320 
2446.440 24325558 24686544 25049410 25412862 25775034 26133920 26487044 
2449.815 26832880 27169926 27497666 27816330 28126740 28430052 28726848 
2453.191 29017084 29300032 29574404 29838622 30091780 30333464 30563518 
2456.566 30781636 30986126 31173982 31341012 31482528 31593550 31671062 
2459.941 31713088 31719894 31693018 31635140 31549796 31440850 31313058 
2463.316 31170992 31019472 30863058 30706026 30551574 30403112 30263154 
2466.692 30135424 30024170 29933676 29869216 29834788 29833510 29866836 
2470.067 29935024 30037414 30172822 30340216 30538492 30766092 31020894 
2473.442 31299810 31598148 31910598 32231480 32554566 32874566 33186578 
2476.817 33486572 33771480 34039272 34288616 34518548 34728396 34916692 
2480.193 35081792 35221084 35332456 35414052 35465280 35487248 35481784 
2483.568 35451660 35400104 35329688 35243148 35142720 35030464 34908432 
2486.943 34778576 34642728 34502188 34358004 34210276 34058764 33902724 
2490.318 33740864 33571584 33392992 33202958 32999460 32781192 32546922 
2493.694 32296184 32028400 31743028 31438962 31115176 30770858 30405918 
2497.069 30021402 29619808 29204336 28778324 28344982 27906384 27463426 
2500.444 27016514 26565870 26111998 25656140 25200232 24747012 24299240 
2503.819 23859878 23431936 23018044 22620602 22241482 21881408 21540326 
2507.195 21216738 20908406 20612942 20328722 20054746 19791768 19541108 
2510.570 19304384 19082710 18876168 18683522 18503310 18334230 18175202 
2513.945 18026524 17888772 17762766 17648770 17546948 17456842 17378102 
2517.320 17310408 17253898 17208736 17175194 17153100 17141898 17141208 
2520.696 17150756 17171058 17202428 17245280 17298962 17361894 17431526 
2524.071 17504548 17578310 17650944 17721036 17788032 17850862 17908142 
2527.446 17957590 17996580 18022448 18033914 18030494 18013536 17984732 
2530.821 17946298 17900374 17848342 17791036 17729112 17662538 17591076 
2534.197 17514380 17432490 17345652 17255210 17163198 17072794 16986714 
2537.572 16907302 16835516 16770663 16710779 16653726 16597472 16541637 
2540.947 16486637 16433984 16384881 16340051 16299248 16261306 16224811 
2544.322 16188662 16152209 16115448 16078724 16042417 16006697 15971633 
2547.698 15937842 15905568 15875667 15848242 15823260 15799446 15775049 
2551.073 15748423 15718119 15684281 15647834 15610464 15573989 15539646 
2554.448 15507985 15478558 15450472 15423280 15396674 15370928 15346143 
2557.823 15322528 15299703 15276914 15253267 15227598 15198842 15165696 
2561.198 15126823 15081332 15028437 14968141 14901886 14832076 14761557 
2564.574 14693552 14630388 14573403 14522488 14476649 14434892 14396495 
2567.949 14361321 14329814 14302795 14280880 14264856 14254789 14251227 
2571.324 14254378 14264547 14281394 14304199 14331355 14360876 14390809 
2574.699 14419958 14447840 14474971 14502309 14530676 14560862 14593002 
2578.075 14627510 14664590 14704965 14749422 14798306 14851310 14907201 
2581.450 14963991 15020102 15074917 15128607 15182955 15240123 15301934 
2584.825 15369554 15442747 15520760 15602083 15685484 15769828 15854634 
2588.200 15938977 16022133 16103137 16181579 16257763 16332654 16408555 
2591.576 16486811 16569003 16654965 16743802 16833242 16921152 17006012 
2594.951 17086546 17162922 17235178 17303444 17367998 17428696 17486094 
2598.326 17540806 17594284 17648010 17703916 17763008 17825936 17892950 
2601.701 17964220 18039854 18120374 18206230 18297664 18394546 18496498 
2605.077 18603142 18714276 18830142 18951302 19078728 19212702 19353508 
2608.452 19500318 19652066 19807546 19965474 20124776 20284696 20444500 
2611.827 20602868 20758790 20911050 21058424 21200350 21336544 21466936 
2615.202 21591200 21709336 21821092 21926396 22025416 22118704 22206854 
2618.578 22290696 22370680 22447052 22519458 22588176 22652890 22713986 
2621.953 22771804 22826908 22879608 22929904 22977624 23022830 23065702 
2625.328 23106970 23147578 23188852 23231670 23276624 23323714 23372596 
2628.703 23422634 23472960 23522906 23571948 23619736 23666270 23711444 
2632.079 23755468 23798448 23840414 23881406 23920964 23958602 23993862 
2635.454 24025938 24055250 24081728 24106314 24130096 24153706 24178050 
2638.829 24203728 24231230 24260908 24293424 24328956 24367856 24410124 
2642.204 24455200 24502944 24552378 24603990 24657890 24714884 24775916 
2645.580 24841694 24912886 24989602 25071666 25158836 25250762 25347136 
2648.955 25447184 25550138 25654804 25759914 25864596 25968316 26071430 
2652.330 26174776 26279416 26386546 26496944 26610960 26728954 26850786 
2655.705 26976708 27106580 27240726 27378582 27519376 27662336 27806296 
2659.081 27950094 28093406 28236166 28378584 28521224 28664620 28809126 
2662.456 28955238 29103384 29253634 29406704 29562344 29720632 29881036 
2665.831 30042812 30205074 30366794 30527152 30685612 30841820 30995842 
2669.206 31148208 31299844 31452462 31607840 31767946 31934026 32106630 
2672.582 32284942 32467756 32653146 32839652 33026594 33213976 33402332 
2675.957 33592632 33784808 33978640 34173064 34367328 34560596 34753520 
2679.332 34947108 35142864 35342664 35547624 35758580 35975688 36199240 
2682.707 36429436 36666744 36911864 37165424 37427908 37699300 37979324 
2686.083 38267808 38564096 38868192 39179608 39498324 39824248 40157284 
2689.458 40497268 40844184 41197892 41558272 41925228 42298780 42678572 
2692.833 43065096 43458672 43860260 44270372 44689532 45117332 45553212 
2696.208 45995936 46444536 46898688 47358160 47823408 48294560 48771640 
2699.583 49253652 49739480 50227892 50717824 51209348 51702668 52198412 
2702.959 52696372 53195240 53692992 54186480 54672404 55148228 55612412 
2706.334 56064004 56502600 56927964 57339372 57736040 58116284 58478592 
2709.709 58821356 59143356 59444052 59723364 59982348 60222724 60446320 
2713.084 60655480 60851740 61035200 61205312 61359764 61495336 61609112 
2716.460 61698892 61763096 61801488 61814744 61803932 61770664 61717072 
2719.835 61646268 61561768 61468464 61371824 61277036 61189556 61114032 
2723.210 61054384 61014000 60995852 61001948 61033716 61091644 61175096 
2726.585 61282608 61412316 61562452 61732348 61922144 62132016 62362684 
2729.961 62613904 62884040 63170672 63470408 63780032 64096324 64417072 
2733.336 64740404 65064900 65388948 65710924 66028820 66340840 66645332 
2736.711 66940636 67225856 67499848 67762200 68012456 68251688 68481168 
2740.086 68703088 68919912 69134280 69347976 69562720 69779656 70000568 
2743.462 70227424 70462664 70709264 70970088 71246568 71539472 71847864 
2746.837 72169376 72500688 72837512 73175328 73508824 73832520 74141000 
2750.212 74429496 74693904 74931536 75140784 75321352 75473384 75597704 
2753.587 75695312 75767104 75814400 75838240 75839144 75817248 75771440 
2756.963 75699408 75598016 75463728 75293376 75084648 74836064 74547464 
2760.338 74219384 73852704 73449096 73010736 72541056 72044240 71525368 
2763.713 70990024 70444040 69893208 69342960 68798848 68266080 67749920 
2767.088 67255600 66787704 66349836 65944732 65573716 65237484 64936132 
2770.464 64669564 64437636 64240240 64076892 63946768 63848308 63778876 
2773.839 63735284 63713528 63709116 63717216 63731984 63748448 63760652 
2777.214 63763604 63752360 63722396 63670060 63592336 63486516 63351052 
2780.589 63185768 62992284 62773996 62535764 62284196 62025328 61764740 
2783.965 61507172 61254908 61009576 60771588 60540088 60313700 60089944 
2787.340 59865880 59637180 59399864 59149772 58884072 58601588 58302608 
2790.715 57988992 57663308 57329012 56989428 56647840 56307768 55973160 
2794.090 55648300 55337312 55044448 54773128 54526248 54305976 54114148 
2797.466 53952532 53822444 53725088 53660712 53628996 53628544 53656700 
2800.841 53710920 53788540 53887296 54005472 54142148 54295572 54464828 
2804.216 54647452 54840980 55042716 55249776 55459876 55670564 55879656 
2807.591 56084628 56283096 56472184 56648708 56809064 56949608 57066732 
2810.967 57157012 57217264 57245008 57238924 57198212 57123644 57016364 
2814.342 56878972 56714100 56525776 56318556 56097860 55870236 55642764 
2817.717 55423132 55219000 55038016 54887336 54773204 54701264 54675296 
2821.092 54697508 54768280 54885720 55045988 55244020 55473692 55728192 
2824.468 56000864 56285208 56573856 56859824 57135696 57393976 57628156 
2827.843 57832896 58004784 58142344 58246188 58317808 58359872 58375032 
2831.218 58366504 58337244 58290672 58230236 58159392 58081964 58001452 
2834.593 57921180 57844364 57773656 57711628 57660276 57621456 57596868 
2837.969 57588352 57598492 57630276 57688808 57780396 57912620 58094696 
2841.344 58335920 58645840 59034632 59511612 60087052 60771736 61575816 
2844.719 62508820 63576728 64778672 66103236 67524584 69001776 70473696 
2848.094 71867016 73101144 74091960 74770104 75085832 75017504 74574808 
2851.469 73796504 72745824 71494624 70120912 68698584 67286360 65932736 
2854.845 64671180 63520536 62489884 61578680 60779972 60081760 59469240 
2858.220 58927636 58441172 57996340 57581772 57187404 56804984 56427544 
2861.595 56048776 55663592 55267988 54859628 54437596 54002960 53558520 
2864.970 53108776 52659828 52219452 51796136 51399228 51038192 50721028 
2868.346 50454628 50243104 50088280 49988672 49940604 49937892 49971832 
2871.721 50032616 50109548 50191476 50268736 50333504 50380388 50407140 
2875.096 50413876 50402676 50376256 50337596 50289604 50234288 50173888 
2878.471 50110180 50044848 49979860 49916448 49855900 49799004 49746720 
2881.847 49700172 49660716 49629924 49609644 49601176 49605816 49624164 
2885.222 49656372 49702248 49761660 49833972 49918456 50013988 50119292 
2888.597 50232876 50353488 50479932 50610996 50745528 50882336 51019896 
2891.972 51157048 51293164 51428580 51564968 51704944 51851388 52006660 
2895.348 52172520 52349248 52536592 52734456 52943152 53164048 53399360 
2898.723 53651340 53921356 54209940 54515916 54837292 55172268 55519324 
2902.098 55878072 56248888 56632964 57032044 57448092 57884192 58345016 
2905.473 58836760 59368184 59949560 60592996 61312140 62121156 63034764 
2908.849 64067824 65232396 66535712 67976344 69541096 71200848 72908752 
2912.224 74606312 76221328 77676464 78902760 79838936 80443608 80699088 
2915.599 80611880 80210592 79539304 78655120 77616600 76477736 75287864 
2918.974 74084336 72893776 71734384 70614912 69538216 68502280 67502592 
2922.350 66533512 65589944 64668760 63769436 62894188 62047308 61234040 
2925.725 60459724 59728572 59042072 58399896 57799204 57235672 56703488 
2929.100 56197032 55710792 55240596 54784252 54341944 53916028 53511036 
2932.475 53133148 52788444 52482560 52219976 52003372 51833804 51710764 
2935.851 51632844 51597320 51600380 51637768 51704160 51794044 51902464 
2939.226 52025372 52160004 52305480 52461548 52628484 52805920 52992452 
2942.601 53184980 53379204 53568380 53744852 53899076 54020444 54098724 
2945.976 54124656 54092120 53999732 53851512 53657900 53432932 53194264 
2949.352 52960036 52745344 52562620 52419524 52318936 52259700 52237240 
2952.727 52244976 52274684 52318300 52368012 52417060 52460764 52496172 
2956.102 52521524 52536556 52541380 52537004 52524440 52505592 52482820 
2959.477 52458892 52437096 52420272 52410256 52408276 52414068 52427000 
2962.853 52446144 52470820 52500620 52535696 52576268 52622200 52673104 
2966.228 52728320 52786724 52847192 52908268 52969164 53029212 53088180 
2969.603 53146556 53205204 53265692 53329264 53397000 53469060 53544880 
2972.978 53623000 53701920 53780552 53858416 53935952 54013768 54091932 
2976.354 54169288 54242600 54306800 54355504 54381336 54377472 54338604 
2979.729 54261408 54145636 53993616 53811304 53605792 53386284 53161872 
2983.104 52939932 52725964 52521708 52325884 52134336 51940968 51739508 
2986.479 51524112 51290744 51037408 50763892 50471560 50161576 49834828 
2989.854 49490648 49126152 48737048 48319076 47868540 47384988 46871520 
2993.230 46335328 45787200 45238112 44698420 44175024 43670100 43181244 
2996.605 42703064 42228876 41752144 41268612 40776736 40276836 39771412 
2999.980 39263564 38756780 38254568 37759876 37275600 36804052 36346420 
3003.355 35903416 35474124 35057868 34653208 34259644 33877252 33506650 
3006.731 33148956 32804738 32473932 32155796 31848840 31552110 31264272 
3010.106 30984918 30713778 30450200 30193246 29941628 29693914 29448720 
3013.481 29205398 28964128 28725822 28491540 28262296 28038866 27821558 
3016.856 27610888 27406956 27210352 27021028 26838520 26661868 26489160 
3020.232 26319020 26149932 25981930 25816174 25654488 25499678 25354198 
3023.607 25219860 25098308 24990724 24898290 24822820 24766200 24729684 
3026.982 24713374 24715620 24732246 24756902 24781986 24799104 24799840 
3030.357 24777704 24727790 24647370 24536636 24397646 24234316 24050942 
3033.733 23852560 23643492 23427392 23207132 22985134 22763284 22543502 
3037.108 22327424 22116684 21912422 21715398 21525634 21343052 21166950 
3040.483 20997108 20833104 20674618 20521434 20373478 20230642 20092848 
3043.858 19960338 19833278 19711458 19594660 19481880 19372076 19264202 
3047.234 19157812 19053316 18951996 18855438 18765062 18681586 18604768 
3050.609 18533116 18465244 18399454 18334748 18270432 18206470 18142416 
3053.984 18077988 18012534 17945848 17878172 17810748 17745334 17683764 
3057.359 17627478 17577136 17532492 17492750 17457222 17425420 17397552 
3060.735 17373964 17354824 17339858 17328236 17319238 17312444 17308342 
3064.110 17308238 17313790 17326272 17346066 17372170 17402518 17434422 
3067.485 17465294 17492992 17515690 17532112 17540840 17540702 17530216 
3070.860 17508722 17476228 17433628 17382620 17325376 17263792 17199636 
3074.236 17134314 17069418 17006632 16947542 16893798 16846090 16803862 
3077.611 16765255 16727377 16687570 16643535 16594304 16540399 16483402 
3080.986 16425451 16368641 16314041 16262269 16213633 16167719 16123872 
3084.361 16081819 16040698 15999820 15959051 15918182 15878072 15840029 
3087.737 15805528 15775977 15751962 15733132 15718738 15707402 15697988 
3091.112 15690396 15684385 15680674 15679918 15682425 15687853 15695790 
3094.487 15705477 15716609 15729113 15743509 15760379 15780238 15803397 
3097.862 15829548 15857900 15887592 15916944 15944922 15970429 15992669 
3101.238 16012093 16029557 16046543 16064387 16084259 16106507 16130785 
3104.613 16156163 16181372 16205791 16229145 16251778 16274342 16297219 
3107.988 16320130 16342906 16364513 16384812 16403738 16422249 16441280 
3111.363 16462617 16487017 16515307 16547799 16584322 16624462 16667429 
3114.739 16712397 16757749 16801692 16842370 16878400 16909060 16934656 
3118.114 16956292 16975208 16992194 17007666 17020794 17030890 17037472 
3121.489 17040746 17041952 17042778 17045020 17049946 17057632 17067694 
3124.864 17079136 17091300 17103916 17117598 17133246 17151548 17172678 
3128.240 17196086 17220492 17244660 17267552 17288618 17307858 17325996 
3131.615 17343822 17362308 17382378 17404312 17428318 17454532 17482368 
3134.990 17511448 17541290 17571684 17602462 17633932 17665920 17698602 
3138.365 17731908 17765424 17798630 17831564 17864188 17897094 17930552 
3141.740 17965016 18000240 18035572 18070078 18103172 18134814 18165700 
3145.116 18197106 18230762 18267772 18308724 18353516 18401426 18451242 
3148.491 18502064 18552896 18602936 18651528 18698120 18741986 18782740 
3151.866 18820488 18855508 18888764 18920948 18952618 18984254 19016204 
3155.241 19048816 19082952 19119828 19160202 19205014 19253950 19306046 
3158.617 19359430 19412128 19462754 19510922 19557884 19605094 19654494 
3161.992 19707816 19765410 19826828 19891168 19957112 20023762 20090282 
3165.367 20156222 20221444 20285910 20349624 20413034 20476244 20539846 
3168.742 20604116 20668712 20732688 20795078 20854624 20910042 20961118 
3172.118 21008308 21052822 21096056 21138948 21182120 21225714 21269416 
3175.493 21312914 21356280 21399716 21443820 21489424 21537158 21587650 
3178.868 21641000 21696518 21753924 21812244 21870502 21928140 21984740 
3182.243 22040404 22096008 22152386 22211144 22273152 22339214 22408776 
3185.619 22481734 22556626 22632646 22709096 22785736 22862564 22940000 
3188.994 23018534 23098268 23179380 23261906 23345428 23430398 23516364 
3192.369 23603606 23692512 23783326 23876224 23971242 24068278 24166806 
3195.744 24266128 24365438 24463718 24560584 24656066 24750520 24844608 
3199.120 24939240 25034844 25131624 25229622 25328732 25428950 25530670 
3202.495 25634240 25740508 25849756 25962022 26077022 26194026 26311838 
3205.870 26429292 26545476 26659154 26770006 26877998 26983584 27088206 
3209.245 27193878 27302326 27414862 27531732 27651706 27772422 27891190 
3212.621 28005644 28114968 28219760 28322276 28425914 28533572 28647242 
3215.996 28767454 28893118 29021794 29151074 29278482 29402626 29522906 
3219.371 29639992 29754800 29868898 29983730 30100408 30219496 30340712 
3222.746 30463314 30586236 30708372 30829194 30948692 31067552 31186658 
3226.122 31306792 31428274 31550900 31673628 31795572 31916018 32034502 
3229.497 32151480 32267742 32384426 32502000 32621104 32741528 32862630 
3232.872 32983370 33102646 33219304 33332452 33441588 33547458 33651096 
3236.247 33754472 33858984 33966100 34075720 34187152 34298796 34409428 
3239.623 34518332 34626044 34733888 34843484 34956228 35072060 35189932 
3242.998 35307872 35424404 35538632 35651524 35765200 35882036 36004304 
3246.373 36132948 36267640 36406808 36548432 36690828 36832980 36974852 
3249.748 37116920 37259932 37404544 37550724 37698432 37847024 37996032 
3253.124 38145192 38294516 38444148 38594692 38746996 38901568 39058980 
3256.499 39218956 39380984 39543904 39706856 39868776 40029520 40189596 
3259.874 40349948 40511820 40676112 40842908 41011920 41182264 41352828 
3263.249 41523128 41692548 41861156 42028700 42194444 42357988 42518636 
3266.625 42676596 42832680 42988712 43146952 43309724 43478812 43654748 
3270.000 43837096 44024616 44215372 44407648 44599568 44790024 44978248 
3273.375 45164356 45348624 45532016 45715672 45900800 46088148 46278008 
3276.750 46470236 46664544 46860488 47058216 47258328 47461712 47668996 
3280.125 47880600 48096116 48314892 48535776 48758180 48982072 49207972 
3283.501 49436736 49669596 49907004 50149712 50397652 50650536 50907704 
3286.876 51168272 51431116 51695316 51959488 52223676 52488396 52754732 
3290.251 53024796 53300492 53582624 53871544 54166320 54465840 54769484 
3293.626 55077544 55390644 55710640 56038072 56372952 56713644 57057892 
3297.002 57403164 57748452 58093896 58441060 58792444 59149888 59514384 
3300.377 59885660 60263108 60645536 61032684 61425064 61823760 62230088 
3303.752 62645332 63070396 63505732 63951528 64407848 64874804 65351932 
3307.127 65838336 66333004 66834772 67343080 67858176 68381104 68913392 
3310.503 69456408 70010528 70575112 71148928 71730744 72320072 72917336 
3313.878 73523776 74140776 74768840 75408264 76058416 76718880 77389496 
3317.253 78071256 78765416 79472616 80192456 80922864 81660192 82400440 
3320.628 83140280 83878120 84614120 85349672 86086712 86826832 87570160 
3324.004 88316024 89062352 89807520 90548952 91284488 92011784 92729016 
3327.379 93434152 94125960 94803168 95465088 96110560 96738168 97346112 
3330.754 97932112 98493888 99030208 99539936 100022648 100477720 100903824 
3334.129 101298096 101657760 101980008 102263032 102507608 102715752 
3337.022 102890024 103033280 103145992 103227184 103274296 103283960 
3339.916 103252904 103179360 103062184 102901192 102697072 102450384 
3342.809 102161536 101830984 101458952 101045256 100588768 100087816 
3345.702 99540064 98943480 98297768 97603936 96866072 96089680 95280720 
3349.077 94445464 93588552 92712768 91819472 90909256 89982480 89039536 
3352.452 88081216 87108336 86122472 85125416 84119592 83108584 82096480 
3355.827 81088328 80089000 79102112 78130392 77175288 76237320 75316272 
3359.203 74411960 73524480 72653576 71799536 70962240 70141856 69338416 
3362.578 68552480 67784768 67035900 66306332 65596068 64904780 64231716 
3365.953 63576608 62939772 62321948 61724560 61148320 60592888 60057144 
3369.328 59538100 59032540 58537280 58050004 57569024 57094052 56625076 
3372.704 56162528 55706608 55257792 54816280 54382992 53958200 53542556 
3376.079 53135472 52736028 52342148 51951872 51563548 51176656 50791896 
3379.454 50411048 50036036 49668372 49308736 48956256 48609588 48266712 
3382.829 47925996 47586652 47248208 46911128 46575936 46243140 45912696 
3386.205 45584860 45259588 44937280 44618072 44303064 43992276 43686660 
3389.580 43385836 43089136 42795932 42504528 42214232 41924208 41634704 
3392.955 41346268 41060060 40776952 40497488 40221400 39947956 39676324 
3396.330 39405764 39136312 38868552 38604148 38344240 38089704 37840628 
3399.706 37595992 37354636 37115188 36877124 36640532 36406124 36174648 
3403.081 35946032 35719440 35493832 35267620 35040092 34811208 34581696 
3406.456 34352800 34125748 33900536 33677160 33454362 33231572 33008218 
3409.831 32784872 32562886 32343480 32127536 31915556 31706814 31500198 
3413.207 31295002 31090544 30887178 30685934 30487698 30293742 30104422 
3416.582 29919832 29739012 29560960 29384190 29207420 29029516 28849634 
3419.957 28666886 28481314 28293170 28103196 27912778 27723466 27536782 
3423.332 27354232 27176486 27003892 26836372 26673316 26513600 26356654 
3426.708 26202264 26050424 25901594 25756258 25614382 25475786 25339268 
3430.083 25203462 25067206 24930046 24791914 24654350 24519070 24387904 
3433.458 24262134 24141832 24025622 23911932 23798130 23682330 23563588 
3436.833 23441520 23317176 23191650 23066574 22942446 22819540 22696912 
3440.208 22572680 22444888 22311866 22172612 22027926 21879666 21730236 
3443.584 21582216 21436720 21292592 21147400 20997214 20838528 20669266 
3446.959 20490520 20305666 20120056 19938830 19765584 19601490 19445564 
3450.334 19295100 19147182 18999970 18852636 18705282 18558738 18413456 
3453.709 18269500 18125868 17982178 17838434 17695152 17553468 17414660 
3457.085 17279170 17147170 17018072 16891524 16767116 16645188 16525805 
3460.460 16409449 16295396 16182920 16070781 15957607 15843259 15727704 
3463.835 15611254 15494457 15377037 15258553 15138385 15016432 14893759 
3467.210 14772218 14654446 14542462 14437222 14338170 14243387 14150267 
3470.586 14056997 13962343 13865761 13767797 13668659 13568210 13466145 
3473.961 13361881 13255149 13147454 13040228 12936169 12837699 12746518 
3477.336 12662316 12584815 12511489 12440391 12368862 12294924 12217011 
3480.711 12134206 12047227 11956893 11865864 11776690 11691655 11612047 
3484.087 11538136 11468627 11401474 11334606 11266149 11194846 11120428 
3487.462 11042454 10959839 10871803 10776890 10674629 10565670 10451511 
3490.837 10335075 10219314 10106196 9996600 9890386 9786096 9682206 9577864 
3494.695 9471957 9364687 9256394 9147350 9038096 8929682 8823189 8720508 
3498.552 8623190 8532215 8447542 8367782 8290504 8212935 8132679 8048118 
3502.409 7958983 7865312 7768254 7668318 7566920 7465850 7367163 7273720 
3506.267 7188315 7112156 7045304 6985096 6927622 6867868 6801457 6726409 
3510.124 6643231 6554687 6464412 6376241 6293063 6215682 6144162 6077022 
3513.982 6013454 5951742 5891114 5830394 5769011 5706595 5643417 5580080 
3517.839 5518497 5460681 5408408 5363186 5325113 5293182 5266048 5241164 
3521.697 5216549 5190393 5161589 5129033 5092221 5050618 5003624 4951138 
3525.554 4892727 4828092 4758006 4682975 4604708 4525451 4447481 4372804 
3529.411 4302893 4238211 4178525 4122860 4070681 4021552 3975872 3934176 
3533.269 3896362 3861794 3828766 3794471 3756201 3712254 3661995 3606731 
3537.126 3549069 3491614 3436973 3386846 3342168 3303638 3271721 3246883 
3540.984 3229592 3219677 3216273 3217241 3219811 3220545 3216172 3203956 
3544.841 3181458 3147314 3100592 3041695 2972598 2896673 2819062 2745231 
3548.698 2679215 2623176 2576443 2535447 2495556 2451935 2401522 2344353 
3552.556 2282594 2220378 2161501 2108425 2061614 2020368 1982554 1946940 
3556.413 1912493 1878981 1846137 1813862 1780823 1745891 1708034 1666954 
3560.271 1623583 1580483 1540546 1507860 1486049 1478303 1486049 1509024 
3564.128 1544104 1584374 1620490 1640678 1632596 1588398 1504868 1387415 
3567.986 1247098 1098389 954181 823398 709714 612550 528743 454472 386017 
3572.325 321751 260942 203358 149294 98883 52023 8349 -32105 -69675 -104624 
3577.147 -138014 -171070 -205448 -242639 -283667 -328300 -375544 -423379 
3581.004 -468659 -507548 -536804 -552159 -550570 -529920 -491199 -437314 
3584.862 -375080 -314361 -266547 -242473 -250388 -292143 -363394 -453599 
3588.719 -549941 -640042 -715271 -772098 -811423 -837549 -855969 -873032 
3592.577 -893698 -921407 -957511 -1001612 -1052188 -1106756 -1163267 
3595.952 -1219474 -1273691 -1324532 -1370875 -1411797 -1447827 -1479859 
3599.327 -1510205 -1541109 -1575082 -1612816 -1653451 -1693785 -1729198 
3602.702 -1754972 -1766852 -1762364 -1741111 -1705369 -1659161 -1608326 
3606.078 -1560127 -1522389 -1501686 -1502775 -1527011 -1570856 -1627241 
3609.453 -1687580 -1743950 -1792096 -1832021 -1867588 -1905263 -1949235 
3612.828 -2001580 -2059162 -2115055 -2160226 -2187590 -2193524 -2179249 
3616.203 -2150763 -2116440 -2087225 -2072946 -2081091 -2115616 -2175490 
3619.579 -2254970 -2344685 -2434315 -2514472 -2577816 -2620963 -2642864 
3622.954 -2644379 -2626924 -2591913 -2539442 -2469536 -2382714 -2282064 
3626.329 -2174501 -2072551 -1993137 -1955568 -1975194 -2055864 -2186403 
3629.704 -2342246 -2496814 -2631337 -2737272 -2816715 -2876790 -2925798 
3633.080 -2970029 -3012840 -3054233 -3092364 -3125163 -3152434 -3174834 
3636.455 -3194865 -3214698 -3236241 -3259558 -3283926 -3308161 -3331244 
3639.830 -3352418 -3372080 -3389998 -3406206 -3418731 -3424648 -3419914 
3643.205 -3399828 -3360079 -3298296 -3214139 -3110722 -2993920 -2873400 
3646.581 -2760748 -2668287 -2606636 -2583086 -2600049 -2655675 -2744121 
3649.956 -2857238 -2984508 -3114176 -3234596 -3335189 -3408868 -3453083 
3653.331 -3470044 -3466133 -3452130 -3441315 -3445753 -3473233 -3524672 
3656.706 -3593751 -3668963 -3738709 -3795339 -3836296 -3863029 -3879580 
3660.082 -3890220 -3898364 -3905161 -3910842 -3913831 -3913010 -3906902 
3663.457 -3895146 -3876658 -3850746 -3816393 -3772182 -3717783 -3653620 
3666.832 -3582151 -3508337 -3440099 -3386875 -3358830 -3363104 -3399663 
3670.207 -3458277 -3522075 -3570550 -3587540 -3567166 -3513070 -3438093 
3673.583 -3361592 -3307108 -3296191 -3341108 -3438192 -3566936 -3700470 
3676.958 -3815703 -3902436 -3961999 -4002316 -4031863 -4057205 -4081200 
3680.333 -4103520 -4121867 -4134733 -4141264 -4141625 -4135718 -4122031 
3683.708 -4097710 -4059372 -4005239 -3936093 -3856920 -3775171 -3700996 
3687.083 -3644124 -3611266 -3604825 -3621945 -3656281 -3700175 -3748367 
3690.459 -3797802 -3847101 -3894785 -3938490 -3974607 -4000675 -4014825 
3693.834 -4018108 -4013610 -4005239 -3996933 -3990925 -3986886 -3982552 
3697.209 -3974672 -3960095 -3937669 -3908478 -3876001 -3845525 -3822797 
3700.584 -3813305 -3819874 -3842799 -3878530 -3921251 -3964199 -4000839 
3703.960 -4026052 -4037542 -4034029 -4015744 -3983899 -3940395 -3887035 
3707.335 -3826706 -3762952 -3700175 -3643795 -3600027 -3573738 -3569663 
3710.710 -3589545 -3632558 -3694688 -3769357 -3848546 -3923813 -3988560 
3714.085 -4038133 -4069810 -4083366 -4080379 -4063508 -4036524 -4003498 
3717.461 -3968238 -3933926 -3901812 -3872421 -3845525 -3820466 -3797080 
3720.836 -3775204 -3754773 -3734767 -3713710 -3689924 -3662293 -3631736 
3724.211 -3601243 -3575578 -3560133 -3559410 -3573935 -3600027 -3630061 
3727.586 -3654737 -3666302 -3660092 -3636665 -3600520 -3557865 -3514351 
3730.962 -3473430 -3434280 -3393286 -3345843 -3290963 -3232787 -3182728 
3734.337 -3156282 -3167367 -3224730 -3326377 -3457981 -3597957 -3725274 
3737.712 -3825096 -3890516 -3922269 -3923911 -3899251 -3850878 -3780755 
3741.087 -3692158 -3591286 -3489766 -3405022 -3356561 -3361953 -3426588 
3744.463 -3537325 -3662096 -3766335 -3828019 -3842175 -3816984 -3767912 
3747.838 -3711114 -3659632 -3622405 -3603905 -3604431 -3622701 -3657464 
3751.213 -3707829 -3772051 -3845360 -3919774 -3985179 -4032585 -4057599 
3754.588 -4060422 -4045453 -4018731 -3987018 -3955892 -3928377 -3907000 
3757.964 -3893602 -3890417 -3899907 -3923255 -3959274 -4002710 -4045978 
3761.339 -4080346 -4099450 -4100992 -4087207 -4063934 -4037542 -4014529 
3764.714 -3997786 -3987609 -3980780 -3973852 -3964626 -3953627 -3943382 
3768.089 -3937472 -3939869 -3952609 -3975231 -4004976 -4037771 -4070007 
3771.465 -4098432 -4121769 -4139787 -4153112 -4161907 -4166731 -4167322 
3774.840 -4163056 -4153046 -4137096 -4115303 -4089767 -4063770 -4042171 
3778.215 -4029762 -4030582 -4044895 -4070236 -4100960 -4130499 -4153013 
3781.590 -4166502 -4171359 -4171293 -4170801 -4174017 -4183402 -4199417 
3784.966 -4219663 -4241287 -4260974 -4276362 -4285745 -4289288 -4287188 
3788.341 -4281119 -4272818 -4264419 -4257594 -4253755 -4252377 -4251688 
3791.716 -4248932 -4241254 -4226226 -4204076 -4176642 -4147729 -4121244 
3795.091 -4100894 -4086911 -4077425 -4067315 -4051362 -4025363 -3988987 
3798.467 -3945320 -3901648 -3867495 -3852454 -3863948 -3903355 -3963280 
3801.842 -4029236 -4084122 -4115303 -4118126 -4097120 -4061801 -4026019 
3805.217 -4003597 -4004582 -4033898 -4088224 -4156788 -4224126 -4278166 
3808.592 -4311892 -4325277 -4322128 -4306971 -4283021 -4250999 -4209491 
3811.968 -4156853 -4093148 -4021653 -3949424 -3885557 -3840073 -3820170 
3815.343 -3826738 -3851994 -3880927 -3897642 -3889793 -3854162 -3796062 
3818.718 -3727737 -3664593 -3623522 -3618494 -3655295 -3728263 -3820728 
3822.093 -3911400 -3981699 -4021554 -4030746 -4015547 -3985835 -3951033 
3825.469 -3918887 -3894161 -3877446 -3866214 -3856724 -3845098 -3829629 
3828.844 -3810119 -3788211 -3766270 -3746363 -3729807 -3716404 -3705004 
3832.219 -3693867 -3680660 -3664035 -3643500 -3619677 -3594737 -3571471 
3835.594 -3553330 -3543471 -3543733 -3553955 -3571963 -3594277 -3616589 
3838.969 -3636665 -3653159 -3667123 -3680528 -3696232 -3715779 -3741337 
3842.345 -3773201 -3811794 -3855673 -3902731 -3949227 -3990563 -4021489 
3845.720 -4038330 -4038330 -4021456 -3988823 -3942759 -3884933 -3815703 
3849.095 -3734570 -3641101 -3536043 -3424681 -3317729 -3230880 -3185162 
3852.470 -3199273 -3281295 -3420473 -3588263 -3749254 -3876066 -3958454 
3855.846 -4000117 -4011870 -4005796 -3990891 -3971882 -3950179 -3924798 
3859.221 -3894226 -3857282 -3814488 -3767682 -3719623 -3673793 -3634004 
3862.596 -3604332 -3588986 -3590991 -3610805 -3644978 -3684931 -3719229 
3865.971 -3736574 -3730267 -3699419 -3651254 -3597431 -3552936 -3531475 
3869.347 -3539987 -3575940 -3627235 -3678261 -3715615 -3733650 -3735227 
3872.722 -3728394 -3723270 -3727277 -3743078 -3767781 -3794190 -3812878 
3876.097 -3816885 -3802368 -3769982 -3723697 -3670540 -3619382 -3579160 
3879.472 -3557438 -3558358 -3580245 -3615734 -3653620 -3683222 -3696594 
3882.848 -3691764 -3672971 -3650071 -3635712 -3640772 -3671230 -3723270 
3886.223 -3785682 -3841780 -3877380 -3885393 -3865886 -3825523 -3774974 
3889.598 -3726653 -3690614 -3674713 -3680758 -3706384 -3745148 -3789493 
3892.973 -3832913 -3869991 -3897247 -3912123 -3912845 -3898495 -3869400 
3896.349 -3827264 -3775073 -3716995 -3657628 -3600717 -3549090 -3503768 
3899.724 -3464917 -3431585 -3403575 -3381910 -3368496 -3367214 -3381384 
3903.099 -3413701 -3464095 -3530062 -3605548 -3682992 -3755265 -3816228 
3906.474 -3863062 -3895704 -3915669 -3925881 -3929624 -3929986 -3929067 
3909.850 -3928147 -3927720 -3927162 -3925323 -3919938 -3908938 -3890122 
3913.225 -3862405 -3825983 -3783055 -3737592 -3694590 -3658942 -3634727 
3916.600 -3623358 -3624048 -3633905 -3649414 -3666926 -3684044 -3698696 
3919.975 -3709570 -3715024 -3713710 -3704708 -3688512 -3667715 -3646982 
3923.351 -3631835 -3627498 -3636501 -3658384 -3688840 -3721331 -3749386 
3926.726 -3768175 -3775336 -3771722 -3759240 -3741075 -3719623 -3697645 
3930.101 -3677440 -3661735 -3653455 -3656347 -3672249 -3701554 -3741535 
3933.476 -3786964 -3831304 -3868612 -3894883 -3909201 -3912418 -3908380 
3936.852 -3900269 -3890975 -3881846 -3872717 -3862241 -3848907 -3831961 
3940.227 -3812024 -3790905 -3772281 -3759240 -3755035 -3760686 -3775336 
3943.602 -3795635 -3816885 -3833833 -3842437 -3840598 -3828808 -3810382 
3946.977 -3789952 -3772905 -3763872 -3765481 -3777832 -3799084 -3825622 
3950.353 -3853669 -3879383 -3900367 -3914750 -3922631 -3924699 -3922335 
3953.728 -3917574 -3912090 -3907296 -3903979 -3901516 -3899284 -3896000 
3957.103 -3890943 -3883718 -3874917 -3865853 -3858103 -3852750 -3850812 
3960.478 -3852651 -3858136 -3867233 -3879252 -3893799 -3909463 -3924896 
3963.854 -3938490 -3948143 -3953331 -3953266 -3948964 -3941675 -3933007 
3967.229 -3924075 -3915472 -3907000 -3898265 -3889202 -3879646 -3870418 
3970.604 -3862208 -3855311 -3849696 -3844769 -3839580 -3833012 -3825195 
3973.979 -3816524 -3808116 -3801646 -3798361 -3799084 -3803485 -3810973 
3977.354 -3819513 -3827198 -3832552 -3833307 -3829366 -3820695 -3808740 
3980.730 -3795832 -3784763 -3777635 -3776124 -3780000 -3787883 -3797638 
3984.105 -3806638 -3813141 -3816130 -3815703 -3812681 -3808116 -3803715 
3987.480 -3799905 -3797802 -3798000 -3800726 -3806014 -3813568 -3822009 
3990.855 -3829990 -3835935 -3838201 -3836591 -3831632 -3824341 -3816327 
3994.231 -3809101 -3803386 -3799609 -3798328 -3799478 -3803452 -3810612 
3997.606 -3820892 -3833471 -3847265 -3860566 -3871042 -3877906 -3880828 
##END=
