
##TITLE=Z404_2_b
##JCAMP-DX=5.01  $$ Nicolet v. 1
##DATATYPE=INFRARED SPECTRUM
##ORIGIN=UniL
##OWNER=Nicolet
##LONGDATE=2011/09/21
##TIME=11:08:22
##SPECTROMETER/DATA SYSTEM=Nicolet iS5
##DATA PROCESSING=
Ratio against background
%Transmittance->Absorbance
Truncated
ElementMultiply or ElementDivide
##COMMENTS=
Number of sample scans: 32
Collection length: 51.15 sec
Sample gain: 2.0
Background collected on: Mer Sep 21 11:00:40 2011 (GMT+02:00);
Number of background scans: 32
Background gain: 2.0
Sample spacing:  1.000
Number of scan points: 12415
Resolution points: 8192
Number of FFT points: 65536
Apodization: N-B fort;
Phase correction: Mertz;
Laser frequency: 15798.0 cm-1
Number of rejected sample scans: 0
Number of rejected background scans: 0
Bench serial number: ASB1000141;
##RESOLUTION=4.000
##XUNITS=1/CM
##YUNITS=ABSORBANCE
##FIRSTX=649.893372
##LASTX=4000.122314
##FIRSTY=0.106234
##MAXX=4000.122314
##MINX=649.893372
##MAXY=0.253565
##MINY=-0.003557
##XFACTOR=1.000000
##YFACTOR=1.000000E-009
##NPOINTS=6950
##DELTAX=0.482117
##ZPD=6100
##XYDATA=(X++(Y..Y))
649.893 106234032 105890352 105617536 105422528 105290640 105198048 
652.786 105120928 105050360 104991840 104959552 104962928 105002256 
655.679 105064032 105131144 105190832 105240696 105286544 105337264 
658.571 105393216 105444912 105475408 105470048 105424728 105351152 
661.464 105271640 105209704 105184792 105205568 105273408 105388400 
664.357 105552600 105767232 106022544 106285240 106483896 106504768 
667.250 106229336 105583944 104596520 103392664 102134912 100949472 99886888 
670.624 98936944 98051568 97176040 96266368 95302264 94287512 93239568 
673.999 92175952 91106024 90031232 88950096 87867960 86800168 85769384 
677.374 84797872 83901352 83081904 82332872 81641752 80999240 80400776 
680.749 79847936 79342696 78885032 78470136 78089424 77733808 77398408 
684.124 77082520 76789224 76521752 76279344 76056680 75847072 75643960 
687.498 75445944 75257240 75084176 74931896 74800368 74682176 74565832 
690.873 74441496 74304696 74159480 74017064 73889664 73785864 73706344 
694.248 73643296 73584104 73518320 73438504 73344416 73240352 73131528 
697.623 73020024 72905496 72784104 72652592 72510208 72359056 72203072 
700.998 72045960 71889848 71734304 71579048 71425568 71277376 71141480 
704.373 71023536 70926624 70847984 70780040 70713280 70639584 70556056 
707.747 70465392 70376080 70298400 70242344 70217680 70234984 70307400 
711.122 70453856 70695848 71051368 71528456 72114768 72772544 73437328 
714.497 74031720 74474608 74696032 74655304 74341416 73775296 73002384 
717.872 72088832 71114392 70161688 69321312 68679608 68305008 68241696 
721.247 68486216 68980104 69599584 70178472 70537384 70509784 69994256 
724.621 68973312 67520824 65776996 63918508 62118292 60496440 59117536 
727.996 57987668 57073800 56326324 55699492 55163880 54703932 54313296 
731.371 53985624 53709568 53469248 53247860 53031608 52813404 52591676 
734.746 52368276 52145172 51922668 51699944 51477516 51258004 51046612 
738.121 50849072 50668260 50503120 50348796 50198172 50045072 49887048 
741.496 49725024 49562400 49402432 49246712 49094580 48945168 48797776 
744.870 48653948 48516140 48386852 48266044 48151532 48038528 47923000 
748.245 47802656 47678352 47552384 47427600 47303732 47178136 47045812 
751.620 46902492 46746452 46580696 46410684 46242808 46082732 45933284 
754.995 45795304 45670176 45559764 45467520 45396736 45348368 45320376 
758.370 45307764 45305264 45310080 45324316 45354032 45406888 45489372 
761.744 45602596 45743204 45904628 46082144 46276900 46499444 46769920 
765.119 47119408 47587356 48215540 49046652 50110740 51412504 52914856 
768.494 54529624 56123164 57519316 58547896 59083068 59078548 58593696 
771.869 57783916 56870440 56059520 55499104 55228972 55174792 55168660 
775.244 55003040 54509152 53592032 52267172 50641680 48887316 47185816 
778.619 45677280 44451804 43532688 42893788 42479312 42229500 42095868 
781.993 42044500 42058992 42131676 42258604 42436020 42658832 42921588 
785.368 43220736 43554776 43924412 44333224 44786280 45290696 45855688 
788.743 46492328 47212744 48029792 48955700 50002096 51179716 52499872 
792.118 53974484 55616216 57437468 59447432 61649244 64035340 66586232 
795.493 69267912 72029888 74813160 77550400 80176632 82646136 84943424 
798.867 87099424 89190016 91338872 93691728 96375520 99472312 102969232 
802.242 106739880 110518896 113937568 116588424 118065792 118090488 
805.135 116568880 113627712 109585400 104882688 99997792 95302064 91021728 
808.510 87206784 83760208 80497400 77224488 73816256 70237904 66553324 
811.885 62883272 59374300 56150044 53283896 50804000 48696016 46923384 
815.259 45439260 44199968 43168584 42312076 41602944 41018252 40538992 
818.634 40152960 39853376 39636792 39500248 39438704 39444584 39509900 
822.009 39628660 39799956 40027736 40319736 40684956 41129228 41655492 
825.384 42262220 42943860 43690140 44485792 45310524 46136780 46935896 
828.759 47682864 48363780 48983892 49572128 50182960 50887028 51767952 
832.133 52912160 54389148 56242816 58468616 61002748 63700564 66337480 
835.508 68645416 70317600 71083128 70771424 69339040 66897424 63677116 
838.883 59998480 56185608 52512808 49189600 46325888 43953228 42045416 
842.258 40545684 39386824 38502868 37839036 37347304 36984376 36716176 
845.633 36514448 36361088 36248404 36176052 36147456 36164848 36227372 
849.008 36330068 36466444 36630440 36817904 37027316 37257980 37509688 
852.382 37781812 38074436 38389124 38729756 39101832 39510480 39959040 
855.757 40448352 40978632 41551492 42173304 42855868 43617120 44479000 
859.132 45463728 46595520 47900172 49404584 51139828 53132888 55397156 
862.507 57916676 60631892 63432908 66148684 68579016 70513640 71758696 
865.882 72187032 71750208 70493960 68542584 66087104 63352780 60546984 
869.256 57854584 55409884 53286480 51514076 50084784 48969944 48130060 
872.631 47525992 47123800 46892968 46808004 46847460 46991756 47226852 
876.006 47545140 47945752 48435524 49025320 49727216 50547456 51482180 
879.381 52512024 53602792 54703108 55749780 56681024 57438716 57983996 
882.756 58305072 58420248 58375940 58233304 58062196 57921896 57852656 
886.131 57876012 57994296 58200156 58482420 58833612 59250060 59730360 
889.505 60271404 60865576 61498276 62151740 62805920 63441576 64043828 
892.880 64599312 65096812 65526748 65880632 66152312 66339688 66444160 
896.255 66469908 66422416 66307724 66133208 65908512 65648824 65373696 
899.630 65105200 64865188 64668372 64519808 64414188 64338788 64278236 
903.005 64219652 64157888 64095744 64043828 64016296 64030120 64102276 
906.379 64247772 64481452 64815560 65258732 65816164 66488600 67273512 
909.754 68167920 69170568 70283784 71513848 72868464 74354976 75978880 
913.129 77743440 79653568 81719936 83960728 86404408 89087040 92043808 
916.504 95305936 98890760 102797104 106996816 111428464 115995272 120544840 
919.879 124876056 128753928 131908104 134096368 135147584 135002880 
922.771 133754728 131648120 129076600 126495064 124388048 123205144 
925.664 123261200 124719664 127541456 131496776 136158800 140959088 
928.557 145309536 148626496 150462096 150575024 148920320 145639040 
931.450 140983152 135272576 128822968 121917680 114822376 107762184 
934.342 100935304 94524544 88672776 83490312 79052424 75391904 72513416 
937.717 70400320 69024152 68347480 68319088 68871416 69900368 71261128 
941.092 72782808 74260184 75491480 76311648 76600008 76311216 75473344 
944.467 74182944 72578376 70813776 69043848 67388080 65928416 64708756 
947.841 63737012 62998524 62465816 62110380 61905180 61827160 61857076 
951.216 61976028 62165392 62408660 62691680 63004924 63344688 63710460 
954.591 64102924 64521812 64964496 65426848 65904892 66396864 66903336 
957.966 67426584 67968168 68527304 69100136 69680912 70264344 70847360 
961.341 71430368 72015880 72606424 73202816 73803264 74404208 75002848 
964.716 75598376 76193168 76791712 77397688 78013240 78638120 79271016 
968.090 79911504 80562008 81228128 81916584 82633400 83381416 84160168 
971.465 84967520 85801888 86664512 87560112 88494808 89474432 90501528 
974.840 91575568 92693824 93854728 95058296 96307600 97605800 98952968 
978.215 100344024 101768488 103210160 104652256 106078680 107474360 
981.108 108824864 110114936 111326160 112440616 113443704 114327592 
984.000 115094984 115758000 116335272 116845568 117306416 117732256 
986.893 118134760 118527320 118925248 119344040 119798600 120297640 
989.786 120842776 121428824 122047344 122691096 123356008 124042304 
992.678 124751104 125481008 126226336 126976696 127719520 128444688 
995.571 129145864 129820872 130468744 131087376 131671088 132212368 
998.464 132705200 133148760 133549960 133922160 134282176 134644656 
1001.356 135021200 135419104 135844096 136303712 136807872 137367824 
1004.249 137993232 138688272 139450352 140272784 141148720 142075488 
1007.142 143057696 144105008 145228432 146435872 147728320 149100304 
1010.035 150542224 152044336 153596784 155188384 156803648 158417664 
1012.927 159998128 161511792 162929856 164239584 165447488 166579120 
1015.820 167671072 168762672 169891248 171086448 172372704 173772608 
1018.713 175306704 176992944 178843088 180858768 183031984 185348384 
1021.605 187795872 190369808 193077680 195934400 198957440 202156864 
1024.498 205531648 209067888 212745584 216543968 220442080 224417872 
1027.391 228440320 232457648 236398656 240171856 243669392 246788112 
1030.284 249427232 251491600 252897824 253564928 253422704 252427104 
1033.177 250569344 247888768 244468576 240432752 235924848 231085072 
1036.070 226055648 220965632 215930928 211067856 206480480 202259200 
1038.963 198484288 195213840 192488896 190336416 188765344 187763520 
1041.856 187283648 187237200 187474736 187785312 187932176 187659472 
1044.750 186746320 185058080 182556000 179311936 175478656 171272016 
1047.643 166921360 162630000 158574592 154875360 151598256 148765072 
1050.536 146356816 144327552 142612928 141146976 139868848 138728064 
1053.429 137691280 136735696 135845088 135005552 134200528 133410768 
1056.322 132618008 131804464 130956160 130062120 129110616 128089208 
1059.215 126985136 125787752 124493864 123110104 121654784 120154080 
1062.108 118636904 117132424 115664624 114252800 112913744 111660592 
1065.001 110503088 109444352 108476872 107579576 106717680 105851072 
1067.894 104937528 103944584 102856976 101677520 100426856 99136192 97844320 
1071.269 96589560 95403080 94310776 93327632 92458520 91698568 91034432 
1074.645 90447208 89914696 89417760 88941280 88474984 88013368 87552608 
1078.020 87087968 86614112 86125704 85620080 85100024 84575064 84060440 
1081.395 83572960 83130248 82746584 82432408 82196480 82046728 81990896 
1084.770 82037800 82194928 82467424 82857808 83366120 83991320 84732304 
1088.146 85587848 86553888 87619736 88767472 89968704 91189080 92396544 
1091.521 93565120 94681960 95748152 96775136 97777712 98766544 99744160 
1094.896 100703152 101630544 102512976 103345040 104134216 104904920 
1097.789 105693560 106542712 107491296 108557392 109727120 110942792 
1100.682 112109784 113097408 113759536 113971720 113643592 112746056 
1103.575 111313528 109440040 107258664 104910024 102535752 100251224 
1106.468 98135544 96237704 94573448 93133416 91889928 90805720 89840240 
1109.844 88951600 88104800 87269888 86421744 85541560 84612912 83623048 
1113.219 82563992 81434312 80241280 79000200 77734168 76469952 75232224 
1116.594 74043272 72918896 71868848 70898768 70011384 69206904 68483960 
1119.969 67838656 67263608 66747980 66279120 65843544 65427004 65016368 
1123.344 64596928 64150744 63657628 63094072 62436472 61667424 60778256 
1126.720 59773968 58671632 57500744 56297244 55096128 53930212 52823432 
1130.095 51788856 50830336 49943244 49117660 48340480 47599228 46883520 
1133.470 46186384 45505380 44842336 44202168 43591776 43018232 42488376 
1136.845 42007564 41579860 41208896 40897844 40648972 40464320 40344096 
1140.221 40287164 40291088 40353116 40470428 40641476 40865516 41141612 
1143.596 41467640 41839300 42249984 42691404 43155152 43633352 44119636 
1146.971 44609224 45097520 45581068 46056940 46523896 46982896 47437428 
1150.346 47893176 48355000 48826952 49310108 49803352 50303704 50808508 
1153.722 51316024 51825440 52336052 52845960 53350428 53843000 54315364 
1157.097 54758168 55163616 55523768 55830668 56076108 56250772 56344584 
1160.472 56348696 56256092 56062048 55765188 55365768 54865756 54268240 
1163.847 53578128 52802292 51949816 51032752 50064072 49056964 48024720 
1167.223 46979240 45931588 44892636 43873312 42884428 41937092 41040684 
1170.598 40203372 39431124 38727580 38095456 37536492 37052464 36645004 
1173.973 36315080 36062768 35886968 35786104 35758836 35805820 35930084 
1177.348 36136620 36432172 36823492 37316868 37918500 38635036 39474884 
1180.724 40449516 41571620 42854988 44312124 45951992 47779868 49796888 
1184.099 51999636 54376944 56906320 59551436 62252916 64929360 67485760 
1187.474 69810168 71792504 73338688 74371928 74848704 74759792 74131848 
1190.849 73021200 71506888 69685744 67652568 65497964 63303628 61131728 
1194.225 59031136 57036768 55168504 53436120 51840264 50375216 49030736 
1197.600 47795072 46657388 45608448 44641612 43753388 42941448 42204340 
1200.975 41540044 40945172 40415404 39945452 39529896 39163652 38841632 
1204.350 38557616 38304144 38071472 37847820 37621680 37382988 37124856 
1207.726 36845240 36546196 36232880 35911804 35590240 35275312 34973972 
1211.101 34694764 34446876 34240640 34086788 33994692 33971296 34021280 
1214.476 34146896 34348712 34626548 34979212 35404488 35898160 36454912 
1217.851 37068056 37731212 38439912 39192484 39989192 40832100 41723256 
1221.227 42664716 43657828 44704808 45808964 46974588 48206176 49506584 
1224.602 50874512 52303576 53782580 55295952 56823680 58344180 59832944 
1227.977 61262652 62606364 63838324 64937324 65891548 66699260 67370432 
1231.352 67923528 68386328 68793880 69184904 69606784 70111952 70753800 
1234.728 71589632 72671472 74041776 75734760 77771576 80162648 82909184 
1238.103 86003872 89430136 93157936 97145208 101333280 105648472 110014608 
1241.478 114351776 118584352 122648024 126482112 130029392 133236824 
1244.371 136049488 138414432 140283856 141611360 142355824 142483280 
1247.264 141966912 140796064 138979152 136546672 133545488 130030648 
1250.157 126058296 121674696 116918864 111828464 106445960 100830056 
1253.050 95060272 89228008 83439712 77805024 72419184 67367760 62713272 
1256.426 58489584 54707164 51352048 48393780 45788896 43490312 41453168 
1259.801 39634468 37999428 36520932 35177608 33955352 32844656 31838178 
1263.176 30930226 30114258 29382950 28728478 28143284 27620350 27153984 
1266.551 26739032 26370350 26042226 25748842 25485096 25248164 25037966 
1269.927 24857448 24711552 24605886 24545298 24533094 24571874 24663888 
1273.302 24812504 25022242 25297718 25642502 26056864 26536530 27070326 
1276.677 27639806 28219794 28776588 29270860 29663616 29918200 30008938 
1280.052 29926896 29681286 29298542 28814756 28272906 27710578 27156170 
1283.427 26628714 26137088 25683732 25268814 24892642 24556166 24260908 
1286.803 24008010 23797466 23628868 23501640 23415990 23371652 23367490 
1290.178 23399486 23460860 23543194 23637964 23739720 23847346 23964274 
1293.553 24096962 24251868 24434588 24648562 24895870 25178954 25501434 
1296.928 25868536 26286140 26759682 27293012 27889600 28552434 29285002 
1300.304 30089754 30965774 31904072 32883536 33872988 34828800 35703572 
1303.679 36455488 37050732 37471724 37718348 37806576 37764500 37627208 
1307.054 37434848 37224516 37028288 36871680 36769580 36726848 36739756 
1310.429 36799040 36892024 37006424 37132764 37263396 37391760 37511744 
1313.805 37615864 37695904 37744624 37755644 37725212 37650804 37530676 
1317.180 37362760 37145104 36876660 36559856 36201404 35813736 35411932 
1320.555 35011608 34626652 34265668 33933032 33630256 33357746 33117094 
1323.930 32911882 32746316 32625392 32553316 32533708 32570172 32667362 
1327.306 32829858 33061274 33361078 33723460 34135284 34579752 35039120 
1330.681 35497428 35944300 36374524 36785988 37177444 37545736 37885492 
1334.056 38189804 38452144 38667888 38835796 38957848 39038536 39083488 
1337.431 39099912 39096940 39085192 39078232 39090992 39137148 39227984 
1340.807 39370316 39566188 39814588 40112876 40457480 40844328 41268028 
1344.182 41722528 42201160 42699444 43216124 43753388 44314324 44898548 
1347.557 45496108 46084796 46626840 47073208 47373976 47482296 47366144 
1350.932 47014428 46438008 45669032 44754136 43752912 42725912 41729056 
1354.308 40812696 40013060 39352684 38841416 38477416 38251312 38150260 
1357.683 38162412 38277688 38486756 38780580 39146828 39570404 40036204 
1361.058 40530588 41045856 41581756 42144308 42741596 43378260 44051536 
1364.433 44749104 45449380 46120936 46726932 47226816 47576560 47739484 
1367.809 47689780 47419504 46940660 46283092 45488676 44598352 43650168 
1371.184 42673196 41685760 40702132 39736480 38806160 37936112 37154056 
1374.559 36483416 35937572 35514864 35202112 34979680 34830988 34748532 
1377.934 34737224 34814580 35009024 35360456 35913384 36717040 37818288 
1381.310 39245900 40995204 43006668 45165384 47291064 49162180 50560220 
1384.685 51274748 51150900 50118884 48218060 45612500 42560476 39383304 
1388.060 36366852 33707632 31502586 29753240 28405962 27382570 26608070 
1391.435 26018340 25562052 25203076 24914536 24677986 24484506 24332284 
1394.811 24225276 24169258 24168102 24220966 24322472 24462738 24630010 
1398.186 24813278 25003112 25195140 25390940 25596668 25820674 26069318 
1401.561 26344966 26644568 26960420 27281546 27598072 27902108 28189954 
1404.936 28461324 28718070 28962074 29195476 29421452 29646200 29878516 
1408.312 30130346 30412884 30733622 31094922 31493754 31924612 32382072 
1411.687 32864488 33372812 33909064 34472488 35058448 35658608 36265444 
1415.062 36876300 37496752 38140600 38827572 39577804 40405404 41313324 
1418.437 42288624 43302584 44316344 45289488 46188192 46987324 47671880 
1421.813 48237536 48692792 49064308 49397452 49756536 50205684 50793944 
1425.188 51543924 52447788 53479028 54603340 55793180 57026380 58284120 
1428.563 59549348 60802344 62026320 63213668 64374140 65534912 66731600 
1431.938 68002152 69372976 70856368 72452888 74160936 75987168 77948296 
1435.313 80069600 82372240 84858496 87498824 90241352 93034600 95838376 
1438.689 98626096 101367464 104018384 106500072 108699728 110494664 
1441.582 111754312 112367952 112263888 111407520 109810312 107527072 
1444.475 104661904 101356008 97767120 94071064 90429872 86983272 83850344 
1447.850 81107696 78783648 76851024 75242152 73866848 72641160 71516656 
1451.225 70489440 69600792 68912696 68486296 68351736 68496424 68864384 
1454.601 69367296 69906328 70374760 70690816 70825320 70821848 70781400 
1457.976 70815064 71012688 71420056 72052616 72910984 73984768 75252632 
1461.351 76675032 78195888 79731200 81166728 82378576 83239400 83659048 
1464.726 83618312 83182608 82482368 81661744 80855208 80158336 79625952 
1468.102 79284896 79132848 79139688 79239488 79332712 79290664 78965344 
1471.477 78238688 77067608 75523104 73773608 72028480 70466096 69184448 
1474.852 68217384 67561160 67201416 67128544 67335728 67807896 68513296 
1478.227 69401000 70410912 71477000 72542984 73571616 74545136 75469840 
1481.603 76369840 77284608 78259560 79345552 80602544 82095360 83892424 
1484.978 86055088 88617752 91566408 94815040 98210440 101517088 104436480 
1488.353 106657064 107863640 107808600 106378056 103625968 99781600 95177664 
1491.728 90178672 85079584 80064664 75235808 70621384 66223888 62064928 
1495.104 58196140 54707808 51711252 49299604 47518596 46355380 45758300 
1498.479 45656112 45980432 46676200 47695104 48990380 50515032 52212504 
1501.854 54020484 55876488 57701904 59403932 60869276 61932464 62383872 
1505.229 61985468 60533192 57979300 54519148 50556088 46513124 42677072 
1508.604 39155968 35935556 32962818 30196478 27621022 25251394 23115286 
1511.980 21232360 19609184 18233698 17082204 16126279 15337322 14687279 
1515.355 14144790 13677926 13261025 12879985 12539658 12258044 12055232 
1518.730 11939285 11899440 11904581 11914730 11894059 11831949 11749524 
1522.105 11690565 11695604 11779891 11932747 12127085 12336067 12541363 
1525.481 12741195 12946684 13174435 13434907 13727578 14043102 14371938 
1528.856 14711134 15067713 15455313 15886871 16367644 16892076 17443840 
1532.231 18000760 18545012 19069208 19581074 20095626 20628264 21184450 
1535.606 21760020 22343262 22921034 23483766 24021876 24526926 24987250 
1538.982 25385460 25699868 25913974 26027698 26060734 26044268 26008700 
1542.357 25967720 25917842 25840964 25716848 25534396 25300704 25040880 
1545.732 24789984 24578044 24417378 24302464 24214660 24133704 24046320 
1549.107 23953596 23869154 23813076 23800128 23833308 23904966 24002792 
1552.483 24117698 24248538 24403078 24592912 24827204 25106488 25421468 
1555.858 25754150 26083356 26381266 26611208 26729940 26695232 26493844 
1559.233 26162846 25782594 25433202 25158344 24963948 24828398 24718706 
1562.608 24597644 24433292 24204956 23909412 23562748 23194550 22837070 
1565.984 22509476 22212644 21929324 21633094 21297080 20904894 20457732 
1569.359 19976540 19494842 19045840 18653638 18328976 18071632 17874788 
1572.734 17726938 17612502 17509034 17389172 17225490 16998326 16709469 
1576.109 16386500 16074942 15814565 15624409 15498680 15417959 15359084 
1579.485 15304611 15246953 15186490 15128607 15078553 15038761 15007686 
1582.860 14982888 14961899 14944820 14932337 14922872 14910974 14887279 
1586.235 14840579 14763613 14656228 14527079 14391597 14267595 14172416 
1589.610 14118057 14112546 14161324 14267799 14433317 14653075 14914094 
1592.986 15191465 15450747 15656972 15778417 15796972 15711626 15537483 
1596.361 15300904 15030907 14756278 14499911 14279818 14112307 14011550 
1599.736 13989820 14055970 14213053 14459007 14788331 15194759 15673013 
1603.111 16216969 16817536 17458050 18111910 18745756 19319730 19793848 
1606.487 20135502 20320388 20338374 20192492 19897932 19477308 18956322 
1609.862 18363886 17729560 17083546 16457902 15878657 15363238 14917626 
1613.237 14535542 14201310 13894429 13594602 13284836 12956652 12613774 
1616.612 12272701 11958868 11696931 11504145 11386372 11338721 11348992 
1619.988 11400624 11476043 11558552 11637095 11708300 11778154 11858099 
1623.363 11960776 12094411 12259885 12453075 12668422 12902035 13151552 
1626.738 13414642 13686440 13958067 14218085 14457260 14671548 14864751 
1630.113 15045828 15225883 15412123 15606376 15802538 15989818 16153859 
1633.489 16278367 16347757 16349271 16276648 16134877 15941383 15722448 
1636.864 15502251 15296957 15110424 14937378 14766013 14583100 14378822 
1640.239 14149891 13902571 13649306 13406201 13186048 12993351 12823706 
1643.614 12664841 12499621 12309001 12077683 11797220 11470089 11111080 
1646.990 10745404 10403555 10111487 9887233 9738010 9660691 9643312 9664723 
1650.847 9695250 9691895 9603676 9390452 9050546 8640530 8246298 7933134 
1654.704 7716512 7576159 7480311 7402483 7327128 7248283 7167598 7089860 
1658.562 7019711 6958260 6902878 6848008 6787053 6713924 6623044 6512271 
1662.419 6382360 6239312 6093252 5957721 5845842 5766392 5722341 5710590 
1666.277 5722140 5743762 5760549 5759878 5732447 5675844 5594445 5497524 
1670.134 5396129 5300628 5219366 5157096 5115220 5090276 5074017 5052697 
1673.991 5009825 4932404 4817438 4677047 4533755 4411932 4326050 4277126 
1677.849 4255744 4248417 4244167 4239048 4237709 4250357 4286930 4350079 
1681.706 4430978 4507138 4547416 4519692 4405472 4215694 3991154 3782973 
1685.564 3624071 3522979 3468935 3444854 3433800 3423948 3408118 3383207 
1689.421 3349080 3307978 3265845 3230760 3211766 3217374 3251157 3310482 
1693.279 3384475 3456344 3506344 3517935 3487539 3429692 3373255 3344606 
1697.136 3357261 3406182 3472542 3526687 3537076 3480158 3353020 3181525 
1700.993 3007629 2869089 2781044 2738929 2727359 2728560 2725992 2706787 
1704.851 2664279 2598875 2518117 2432776 2353448 2287158 2236164 2198765 
1708.708 2171391 2150912 2136061 2128136 2130767 2147815 2182447 2234899 
1712.566 2302214 2379133 2460033 2539747 2614042 2679782 2731827 2762737 
1716.423 2763104 2724258 2645344 2535214 2413484 2301381 2216215 2165797 
1720.281 2149380 2160402 2189806 2229570 2273201 2316804 2358311 2397225 
1724.138 2433709 2468463 2503254 2540713 2583709 2634476 2692818 2755835 
1727.995 2817861 2872458 2915587 2946910 2970463 2992182 3016604 3042096 
1731.853 3059013 3048602 2988745 2861651 2667313 2429244 2188874 1984950 
1735.710 1837453 1747055 1701315 1682986 1675236 1664859 1644071 1611078 
1739.568 1569974 1528609 1495425 1476208 1473249 1485218 1508791 1539249 
1743.425 1572369 1605159 1637419 1670480 1706504 1747621 1793399 1841845 
1747.282 1888532 1928468 1957291 1971570 1968474 1945508 1900246 1831330 
1751.140 1741267 1637485 1531501 1436713 1364280 1319743 1301863 1303193 
1754.997 1312365 1316619 1306350 1278800 1238525 1195729 1160212 1137987 
1758.855 1128585 1126127 1121343 1104634 1069457 1013360 939570 855534 
1762.712 771083 695709 636839 599576 585375 592774 616233 648154 679414 
1767.052 702247 713398 715323 714360 717513 728266 744264 757474 756744 
1771.391 732482 682666 614209 540951 476795 430226 401969 387343 379683 
1775.731 375139 372752 375073 384690 402466 425317 447473 462001 464190 
1780.071 453609 434969 415699 402599 399680 406546 419447 432747 441669 
1784.410 443493 438054 427374 414870 405053 402035 410293 433145 472416 
1788.750 526952 591314 656616 710676 741011 738755 701284 634250 549809 
1793.089 462764 385453 324072 279907 250366 232099 221988 218010 218839 
1797.429 224010 232464 243504 255969 268203 278448 284250 283554 274602 
1801.769 257196 232663 204319 176507 153271 137395 130368 131263 138224 
1806.108 149128 162320 177004 192882 209126 224408 237072 244962 246620 
1810.448 241846 231403 216982 200440 183468 166828 151846 139682 132059 
1814.787 130733 136699 149957 168917 191291 214629 237868 261174 286206 
1819.127 314953 348809 388239 433344 483495 538198 596888 657611 716982 
1823.467 769789 810186 834254 841989 839267 834719 838570 857028 890727 
1827.806 933659 975633 1005422 1014987 1002865 975268 943721 919680 910848 
1832.146 920245 945813 983470 1028704 1078326 1130512 1184632 1240286 
1836.003 1297144 1354841 1413875 1475577 1542341 1617032 1702346 1800253 
1839.861 1911595 2036347 2173556 2321734 2477727 2636510 2791849 2936936 
1843.718 3066654 3179890 3280101 3373022 3463691 3553779 3640443 3716999 
1847.575 3775586 3809980 3817601 3800487 3763420 3712387 3651603 3582142 
1851.433 3502470 3410590 3305174 3187266 3060581 2929163 2796684 2665480 
1855.290 2536581 2410385 2288823 2174455 2070803 1979891 1901378 1831530 
1859.148 1765386 1698055 1626444 1551286 1475311 1402672 1336228 1277471 
1863.005 1225633 1180512 1142372 1113371 1096296 1093008 1102076 1119649 
1866.863 1137621 1147953 1143967 1123469 1088191 1044347 998946 957468 
1870.720 922967 896438 876782 863303 854704 849359 845010 839034 828544 
1875.060 811879 788975 761225 731220 700786 670719 640190 608137 572933 
1879.399 534947 495769 457324 421304 388040 355839 322812 287665 251195 
1883.739 216584 188242 170508 165270 172264 187778 207170 225137 237437 
1888.078 240686 233293 215192 188341 156884 126921 104749 95038 100308 
1892.418 118934 146145 175480 200606 218607 229712 237072 244531 254908 
1896.758 267905 281233 292208 298905 301889 303448 306067 311041 317871 
1901.097 324138 327985 329344 330273 334915 347052 368175 396132 426578 
1905.437 454007 474805 488604 496664 502304 506682 509469 508009 500313 
1909.776 486016 467905 450923 440110 438319 445914 459978 477923 498290 
1914.116 521975 550838 586338 625922 663253 688872 694481 676295 638232 
1918.456 590717 546392 515308 501508 502038 509768 516701 517563 510962 
1922.795 498887 484690 471521 460144 450259 441370 434604 431486 434339 
1927.135 442996 455102 465583 469995 465948 455069 442498 434306 435035 
1931.474 445715 463328 483263 501872 518061 533454 550506 570677 592210 
1935.814 611023 622670 624561 618788 611023 608900 617659 639128 669757 
1940.154 703408 733411 755450 768229 773705 773705 770453 764577 756744 
1944.493 748944 745725 752230 772743 808892 856962 909553 957966 995492 
1948.833 1019072 1031128 1036077 1038767 1042852 1049263 1057433 1068295 
1952.690 1081913 1100316 1123768 1149947 1173402 1187987 1188187 1172006 
1956.548 1143169 1109218 1077861 1056238 1046207 1046140 1051920 1060157 
1960.405 1069590 1082146 1099851 1123204 1150478 1178850 1204700 1228357 
1964.262 1251351 1277139 1306317 1337325 1363483 1378374 1376945 1359860 
1968.120 1332905 1304522 1280993 1265773 1255605 1245570 1231813 1215698 
1971.977 1202340 1200912 1217326 1252016 1298141 1346000 1387481 1421022 
1975.835 1453036 1493331 1551486 1628240 1715785 1799355 1864439 1902809 
1979.692 1914324 1905870 1887933 1867867 1848533 1828236 1803214 1771740 
1983.550 1736476 1702213 1673773 1653982 1640446 1628073 1611644 1588863 
1987.407 1562592 1539282 1526115 1526879 1540778 1562359 1584440 1602199 
1991.264 1613972 1622020 1631632 1646000 1666289 1691036 1717182 1741932 
1995.122 1765153 1786878 1806775 1823411 1833526 1833659 1823777 1805211 
1998.979 1784682 1768114 1760595 1761726 1767016 1768813 1760296 1738672 
2002.837 1705772 1665923 1626078 1589861 1557804 1529407 1503571 1481362 
2006.694 1467764 1467199 1481727 1507561 1537852 1562160 1575495 1577856 
2010.552 1575495 1578155 1594616 1626743 1671311 1719477 1763523 1799921 
2014.409 1831031 1863640 1906503 1963049 2031719 2105961 2177085 2238896 
2018.266 2290022 2332060 2367206 2396592 2418348 2428611 2424912 2408119 
2022.124 2383731 2360477 2346951 2347185 2360744 2382532 2406654 2427311 
2025.981 2443672 2457733 2473028 2492523 2517417 2547079 2581176 2619375 
2029.839 2663679 2714456 2771207 2829834 2885166 2931999 2968127 2995551 
2033.696 3020374 3048602 3084540 3128825 3176719 3222982 3263442 3297528 
2037.553 3327377 3358229 3393425 3432832 3474279 3512825 3543857 3565371 
2041.411 3577932 3582142 3579369 3568645 3548167 3517969 3479122 3437574 
2045.268 3400772 3377162 3372421 3388549 3422211 3467131 3517401 3566741 
2049.126 3610406 3646625 3672454 3686656 3688694 3680274 3665504 3650768 
2052.983 3642415 3644854 3658387 3679538 3701393 3719205 3729297 3733074 
2056.841 3734377 3738354 3747244 3761215 3776857 3790794 3800788 3806972 
2060.698 3811752 3818069 3826694 3835352 3839731 3835886 3821713 3799785 
2064.555 3775319 3753828 3738956 3730400 3723683 3712521 3692470 3661995 
2068.413 3623771 3583411 3546062 3515530 3492316 3475482 3462957 3454574 
2072.270 3451601 3456511 3470839 3493752 3521877 3550171 3573556 3588823 
2076.128 3595472 3595405 3590494 3582977 3573556 3562464 3549703 3536608 
2079.985 3525184 3518403 3518804 3527322 3542955 3563534 3585984 3607767 
2083.843 3627245 3643651 3656849 3666941 3674158 3678502 3681075 3682847 
2087.700 3684651 3686689 3688160 3687224 3682679 3673022 3658988 3642415 
2091.557 3626176 3612578 3603891 3599982 3600383 3604693 3612578 3624004 
2095.415 3639675 3658754 3679672 3699956 3716999 3729231 3737586 3744069 
2099.272 3750921 3759443 3769269 3778494 3785279 3789357 3793000 3800487 
2103.130 3817301 3846450 3888706 3940830 3998143 4055631 4110116 4161530 
2106.987 4212114 4264110 4318520 4374411 4429237 4479886 4525351 4566434 
2110.844 4605914 4646971 4691147 4738309 4785678 4829935 4867998 4898390 
2114.702 4921747 4939978 4955796 4971280 4988407 5008249 5031947 5060474 
2118.559 5094601 5134129 5178221 5224765 5271716 5317130 5360637 5402604 
2122.417 5443905 5484974 5525007 5563131 5598305 5630628 5662249 5696020 
2126.274 5735737 5783584 5839864 5901997 5966153 6027900 6083675 6131930 
2130.132 6172627 6206674 6236084 6262371 6287213 6313133 6342450 6376678 
2133.989 6416322 6459737 6503392 6543755 6577797 6605382 6629168 6653358 
2137.846 6682563 6719376 6763393 6811925 6861405 6908399 6949978 6985197 
2141.704 7011764 7026816 7026681 7008329 6971257 6919980 6862751 6809434 
2145.561 6768037 6742696 6729841 6722775 6711703 6688620 6650431 6597813 
2149.419 6533025 6459737 6378662 6288222 6187953 6078366 5962257 5847219 
2153.276 5739027 5641202 5553902 5473968 5397874 5326925 5268128 5232277 
2157.134 5231975 5273695 5353659 5456688 5562057 5649493 5706226 5730298 
2160.991 5727411 5707536 5678866 5647311 5614785 5582798 5552828 5527524 
2164.848 5508732 5496014 5483934 5465647 5432162 5378450 5303948 5213765 
2168.706 5115723 5018372 4928014 4846754 4774086 4708263 4647808 4593156 
2172.563 4544938 4503957 4469073 4438041 4408250 4377155 4344825 4311627 
2176.421 4277260 4240353 4196590 4141258 4072320 3992224 3908364 3832243 
2180.278 3773681 3739156 3728729 3734177 3744771 3750419 3745974 3731370 
2184.135 3711652 3691702 3674760 3661260 3647527 3628983 3604392 3573222 
2187.993 3538112 3503071 3470705 3442717 3420976 3406783 3402141 3409020 
2191.850 3428891 3458915 3495188 3530562 3557754 3572954 3575828 3569012 
2195.708 3557654 3546096 3536642 3529961 3525217 3522378 3523313 3529994 
2199.565 3543724 3562565 3581774 3593501 3591897 3573122 3538846 3495055 
2203.423 3450031 3409989 3378231 3353955 3333253 3312686 3291285 3270853 
2207.280 3255830 3250556 3257032 3273958 3297862 3323838 3348546 3369849 
2211.137 3387948 3403243 3416234 3426386 3433967 3439010 3442984 3448027 
2214.995 3455943 3466998 3479389 3490044 3495555 3493952 3485969 3474546 
2218.852 3463224 3454807 3450232 3448295 3446190 3442083 3435470 3427154 
2222.710 3419673 3414664 3412527 3412727 3414263 3415766 3417402 3419673 
2226.567 3423714 3430394 3438810 3447794 3456043 3463190 3469035 3475415 
2230.425 3482462 3489911 3496791 3501501 3503038 3503038 3503639 3508282 
2234.282 3519038 3536207 3557186 3579269 3599648 3617489 3634296 3653040 
2238.139 3675729 3703264 3732907 3759978 3780266 3790961 3792165 3787151 
2241.997 3780734 3777090 3779497 3788555 3803362 3823652 3848322 3876637 
2245.854 3908097 3940729 3972060 3999346 4020782 4035932 4046166 4053925 
2249.712 4060915 4067704 4072588 4073524 4068373 4057704 4043925 4031986 
2253.569 4026334 4029979 4042822 4061952 4082855 4101152 4114330 4121823 
2257.427 4125035 4125971 4126239 4126941 4128279 4130152 4131892 4133497 
2261.284 4134233 4133363 4129751 4122693 4111989 4099646 4088241 4081183 
2265.141 4080682 4087739 4101118 4117909 4135504 4151361 4164273 4174677 
2268.999 4182539 4187892 4190368 4189230 4183911 4174477 4162065 4148183 
2272.856 4134668 4122191 4111119 4101988 4095265 4092622 4096335 4107875 
2276.714 4127744 4154371 4184045 4211813 4234063 4247948 4253603 4253067 
2280.571 4249353 4245271 4243230 4244033 4247647 4253636 4261466 4270132 
2284.428 4278933 4286429 4291582 4293757 4293355 4291950 4291716 4294928 
2288.286 4302558 4314170 4327790 4340809 4351719 4359551 4365006 4370227 
2292.143 4376753 4385489 4396535 4409220 4422509 4436267 4451029 4467600 
2296.001 4486916 4508477 4531076 4552203 4569615 4581871 4589070 4592586 
2299.858 4594662 4597776 4603904 4613850 4628150 4646402 4668439 4693626 
2303.716 4721661 4751910 4784136 4817974 4853657 4891219 4931331 4974364 
2307.573 5020350 5068989 5119981 5172889 5228252 5286641 5348896 5415051 
2311.430 5484370 5554976 5624250 5690112 5751484 5808600 5863305 5917480 
2315.288 5972704 6029782 6088380 6147388 6205699 6262774 6318882 6374829 
2319.145 6431119 6488123 6545134 6600942 6653964 6702113 6743336 6775374 
2323.003 6796039 6803746 6797688 6779850 6753633 6724760 6699993 6685322 
2326.860 6685053 6700767 6730716 6770326 6814146 6856524 6892913 6920889 
2330.718 6939675 6950011 6953917 6954085 6953816 6956408 6965061 6981695 
2334.575 7007521 7041700 7082349 7127380 7174336 7221633 7268599 7314727 
2338.432 7359614 7402820 7443367 7480244 7513146 7542241 7568370 7591838 
2342.290 7611833 7625389 7627378 7611530 7571708 7504246 7409696 7294038 
2346.147 7168744 7048570 6949001 6885036 6867026 6900421 6985466 7117241 
2350.005 7286390 7480379 7686496 7892170 8087949 8268316 8431831 8578782 
2353.862 8711143 8829951 8935804 9028895 9109959 9180717 9243667 9301820 
2357.719 9357069 9410327 9460950 9507888 9549852 9586400 9617125 9642431 
2361.577 9661640 9674244 9679529 9677022 9667738 9653543 9637078 9620309 
2365.434 9604252 9588229 9570480 9548565 9521368 9488212 9450081 9407889 
2369.292 9362621 9313906 9261336 9203662 9139973 9070136 8994423 8913448 
2373.149 8828328 8739777 8648844 8556646 8464874 8375686 8291314 8213408 
2377.007 8142740 8079408 8023276 7974102 7932290 7898918 7875400 7862309 
2380.864 7859543 7865649 7878910 7896725 7917713 7940828 7966002 7993136 
2384.721 8022364 8052742 8083325 8112930 8141120 8168062 8194533 8221411 
2388.579 8249101 8277029 8304182 8328972 8350589 8368390 8382477 8393624 
2392.436 8402239 8408657 8412947 8415447 8416528 8417271 8418927 8422136 
2396.294 8427879 8435683 8445244 8456022 8468320 8483287 8502445 8527552 
2400.151 8559586 8598857 8644856 8696506 8753166 8814194 8879357 8948860 
2404.009 9022230 9098793 9177975 9259000 9341665 9426140 9513070 9603134 
2407.866 9696673 9793688 9894183 9997718 10104908 10216057 10331274 10450187 
2411.723 10571204 10692424 10811572 10926675 11036914 11142015 11242210 
2415.099 11337326 11426069 11507004 11578357 11638525 11687775 11727158 
2418.474 11758988 11785338 11808115 11828169 11846250 11862663 11878598 
2421.849 11895727 11915684 11939557 11967520 11998584 12031182 12064635 
2425.224 12099011 12136183 12178741 12229620 12290867 12363407 12446972 
2428.600 12540784 12644542 12758529 12883194 13019503 13167126 13324980 
2431.975 13490753 13662231 13837574 14016101 14198194 14384611 14575972 
2435.350 14772183 14972634 15176710 15383800 15594665 15810408 16032755 
2438.725 16262854 16500887 16746040 16996638 17250726 17507066 17764732 
2442.101 18023588 18283634 18545044 18807444 19070350 19333448 19596394 
2445.476 19859464 20123146 20387856 20653630 20920368 21187338 21453186 
2448.851 21716478 21975538 22228860 22475524 22715172 22947894 23174908 
2452.226 23397388 23616482 23833028 24047300 24258666 24465962 24667570 
2455.602 24861728 25046952 25221300 25383106 25529968 25660110 25771658 
2458.977 25863084 25933916 25983724 26013132 26022668 26012992 25985342 
2462.352 25940986 25882074 25811216 25731788 25647316 25561806 25478314 
2465.727 25400424 25330838 25272712 25229200 25203496 25198862 25217614 
2469.103 25261824 25331962 25427896 25549190 25694350 25862274 26051480 
2472.478 26260444 26487044 26729200 26983970 27248274 27519130 27793014 
2475.853 28066400 28335892 28597694 28848606 29085420 29305596 29507124 
2479.228 29688700 29848736 29986254 30100160 30189766 30254914 30296194 
2482.604 30315272 30313816 30294098 30258324 30208024 30144978 30070828 
2485.979 29986892 29894630 29795218 29689552 29577950 29460706 29337784 
2489.354 29209438 29076068 28937990 28795176 28647172 28492776 28329880 
2492.729 28156508 27970270 27769560 27552704 27318594 27066166 26794604 
2496.104 26503776 26194274 25867972 25528140 25178146 24821768 24462142 
2499.480 24100534 23737060 23370672 23000016 22624616 22245216 21864088 
2502.855 21485002 21112404 20750310 20402302 20070710 19756464 19459392 
2506.230 19178312 18911362 18656198 18411244 18175028 17947472 17729250 
2509.605 17521728 17326408 17144620 16976516 16820980 16676277 16540537 
2512.981 16412478 16291577 16178792 16075252 15982185 15899999 15828207 
2516.356 15765980 15712004 15665352 15626023 15594252 15570555 15555581 
2519.731 15549537 15552456 15564442 15585769 15616612 15657282 15707573 
2523.106 15766220 15831163 15899966 15969707 16038463 16104307 16165826 
2526.482 16222093 16271625 16312769 16343972 16363755 16371703 16367918 
2529.857 16353572 16330142 16299007 16261477 16218001 16168647 16113626 
2533.232 16052319 15984798 15911169 15831988 15748559 15662743 15577218 
2536.607 15495108 15419160 15351258 15291706 15239677 15192563 15147855 
2539.983 15103390 15058040 15012419 14967387 14924621 14885118 14848876 
2543.358 14815344 14783291 14751787 14720080 14688205 14656366 14624940 
2546.733 14594099 14564048 14535096 14507242 14481034 14456439 14433214 
2550.108 14410504 14387248 14362280 14334711 14305158 14274511 14244209 
2553.484 14215963 14190765 14168958 14149754 14132262 14115490 14098924 
2556.859 14082461 14066408 14051179 14036668 14022672 14008539 13993139 
2560.234 13974799 13952182 13923817 13888579 13846262 13797520 13743857 
2563.609 13687740 13631526 13577543 13527395 13481627 13440273 13402989 
2566.985 13369842 13341243 13317976 13300894 13289824 13284221 13282684 
2570.360 13283230 13285178 13287979 13292523 13299936 13311827 13328806 
2573.735 13350879 13377053 13406064 13436547 13467273 13497247 13526233 
2577.110 13553887 13580244 13606261 13633134 13662026 13694955 13732947 
2580.486 13776279 13824370 13876058 13929497 13983627 14037935 14092386 
2583.861 14147632 14204151 14262116 14321355 14381665 14442771 14504912 
2587.236 14568263 14633370 14699721 14766802 14833653 14899280 14963477 
2590.611 15026653 15090046 15154990 15222451 15292324 15364062 15436018 
2593.987 15506818 15575569 15641652 15705168 15765980 15823843 15878450 
2597.362 15929077 15975963 16019484 16060913 16102141 16144814 16190039 
2600.737 16238673 16290957 16347069 16407523 16473010 16544323 16621880 
2604.112 16705580 16794118 16886426 16980824 17076310 17172886 17271104 
2607.488 17372410 17478230 17589420 17706368 17828870 17955484 18084654 
2610.863 18214694 18343804 18470082 18593010 18711890 18826510 18937424 
2614.238 19045146 19149882 19251422 19349350 19442792 19531404 19614938 
2617.613 19693878 19768948 19841118 19911008 19978934 20044580 20107668 
2620.989 20167674 20224290 20277474 20327436 20374486 20418728 20460406 
2624.364 20499724 20536962 20572918 20608426 20644596 20682264 20721986 
2627.739 20763898 20807730 20852746 20898010 20942690 20985808 21027018 
2631.114 21066144 21103466 21139330 21174256 21208178 21240918 21271852 
2634.490 21300318 21325826 21348100 21367868 21386036 21404032 21423074 
2637.865 21443784 21466170 21489982 21514944 21540676 21567730 21596458 
2641.240 21627488 21661444 21698154 21737448 21778726 21821858 21866842 
2644.615 21914094 21964420 22018096 22075474 22136418 22200716 22268164 
2647.990 22338796 22413068 22491018 22572400 22656732 22742894 22829878 
2651.366 22916632 23002986 23089112 23175362 23262572 23351092 23441098 
2654.741 23532700 23625998 23721452 23819518 23920896 24025798 24133916 
2658.116 24244826 24357342 24470238 24583058 24695802 24808648 24922258 
2661.491 25037090 25153148 25270710 25389394 25509094 25629918 25752110 
2664.867 25875956 26001314 26127586 26254038 26379504 26503036 26623852 
2668.242 26741920 26857730 26972088 27086406 27202202 27320744 27443272 
2671.617 27570744 27703478 27841234 27983592 28129568 28278070 28428282 
2674.992 28579504 28731026 28882742 29034014 29184278 29333388 29481200 
2678.368 29627824 29774424 29921926 30071930 30225498 30383708 30546810 
2681.743 30714986 30888388 31067196 31251882 31442810 31640414 31844846 
2685.118 32055724 32272450 32494180 32720380 32950592 33185184 33424624 
2688.493 33669784 33921456 34180164 34445656 34717308 34994008 35274484 
2691.869 35557800 35843568 36132192 36424860 36723204 37028508 37341348 
2695.244 37661536 37988036 38319196 38653800 38991268 39331720 39675632 
2698.619 40023852 40376712 40734008 41094880 41458128 41822956 42188964 
2701.994 42555836 42923852 43293136 43662736 44031624 44398176 44760344 
2705.370 45116744 45466116 45807452 46139768 46462272 46773648 47073432 
2708.745 47360748 47635052 47896472 48144832 48380484 48603436 48814420 
2712.120 49014192 49203888 49384868 49558052 49723988 49882064 50030644 
2715.495 50166892 50288192 50392108 50477292 50543020 50589816 50618332 
2718.871 50630096 50626748 50610776 50585052 50553332 50520056 50489164 
2722.246 50464860 50450348 50448076 50459912 50487564 50531968 50593984 
2725.621 50674220 50772680 50888596 51021460 51170320 51334592 51514264 
2728.996 51708936 51918408 52141660 52376760 52621340 52872676 53128508 
2732.372 53386812 53646580 53907292 54168160 54428432 54686572 54941064 
2735.747 55190292 55432692 55667548 55894052 56111776 56320364 56519280 
2739.122 56708584 56888492 57060120 57225316 57386452 57546136 57707128 
2742.497 57871924 58042732 58221748 58410624 58610764 58823476 59049128 
2745.873 59287808 59538440 59799748 60069240 60343812 60620008 60893288 
2749.248 61158584 61410984 61645540 61858260 62046732 62209668 62347304 
2752.623 62460844 62551872 62622176 62673500 62707148 62723688 62722960 
2755.998 62704048 62664816 62602848 62514520 62397184 62248444 62067028 
2759.374 61852416 61605484 61327516 61019644 60683636 60321544 59935748 
2762.749 59529472 59106832 58672276 58231032 57788380 57348792 56917272 
2766.124 56497884 56094280 55710188 55348528 55011764 54702016 54420584 
2769.499 54168200 53945444 53752240 53588248 53452948 53345224 53263820 
2772.875 53206812 53171496 53155020 53154044 53164944 53183816 53206476 
2776.250 53229060 53247528 53258276 53257976 53244044 53214004 53166140 
2779.625 53098552 53010380 52901196 52771572 52623432 52459680 52284588 
2783.000 52102468 51917776 51734732 51556388 51384604 51220348 51063124 
2786.375 50911356 50762288 50612600 50457828 50294328 50118620 49928340 
2789.751 49722944 49502792 49269800 49026396 48775824 48520844 48264528 
2793.126 48009808 47759860 47518152 47288144 47073504 46877540 46703320 
2796.501 46552920 46428052 46329764 46257808 46212108 46191580 46195044 
2799.876 46221468 46269528 46338204 46426760 46534440 46660412 46803612 
2803.252 46962144 47134440 47317960 47510428 47709156 47912420 48118104 
2806.627 48324372 48529328 48730712 48926184 49113132 49288840 49450328 
2810.002 49594676 49718932 49820820 49898120 49948784 49972128 49967148 
2813.377 49934024 49873032 49785516 49672976 49538556 49386280 49221184 
2816.753 49049396 48877824 48713288 48562488 48431672 48326408 48251496 
2820.128 48210692 48207136 48241832 48314856 48424488 48567156 48739016 
2823.503 48935080 49150380 49379672 49618296 49860508 50100996 50333912 
2826.878 50553632 50755024 50934272 51089136 51218632 51323592 51405420 
2830.254 51466252 51508296 51534372 51546872 51548960 51543812 51534484 
2833.629 51524188 51516020 51512664 51516688 51530232 51555268 51593588 
2837.004 51646388 51715212 51801512 51907884 52037288 52195048 52387752 
2840.379 52623284 52911112 53260896 53682196 54185348 54779740 55476216 
2843.755 56285588 57218628 58285256 59491168 60835008 62303472 63867688 
2847.130 65482980 67083104 68589576 69917416 70978592 71701984 72038216 
2850.505 71967504 71502984 70687704 69589512 68284232 66853592 65374500 
2853.880 63907996 62504268 61198332 60009928 58948964 58015276 57201880 
2857.256 56496752 55884668 55350296 54877068 54450780 54059096 53691456 
2860.631 53339568 52996792 52657580 52317740 51974016 51624300 51267288 
2864.006 50903196 50533640 50162096 49793804 49435808 49096248 48783576 
2867.381 48505952 48269640 48078796 47935540 47839608 47788640 47778872 
2870.757 47805284 47860512 47936616 48023984 48112552 48192960 48257864 
2874.132 48302152 48324300 48325444 48309076 48279528 48241092 48197588 
2877.507 48151644 48105224 48059436 48014992 47972508 47932508 47895584 
2880.882 47862620 47834764 47813788 47801396 47799440 47809276 47831728 
2884.258 47867208 47915784 47977204 48051628 48139168 48239756 48352964 
2887.633 48477312 48610368 48749876 48893100 49037860 49182884 49327516 
2891.008 49471712 49615400 49758724 49901876 50045000 50189060 50335480 
2894.383 50485852 50642084 50805864 50978460 51160928 51354248 51559668 
2897.759 51778252 52011028 52258836 52521336 52797648 53086644 53386960 
2901.134 53698432 54021572 54357904 54709456 55078484 55467368 55878112 
2904.509 56313800 56779232 57280356 57826156 58427300 59096240 59847584 
2907.884 60696628 61658716 62749260 63979784 65355516 66871376 68509024 
2911.260 70233032 71989216 73713104 75326952 76750544 77914552 78760016 
2914.635 79250664 79375432 79148744 78606952 77800312 76791040 75640168 
2918.010 74402408 73126152 71846608 70588128 69366440 68188112 67054300 
2921.385 65961816 64904928 63877360 62873892 61891500 60930424 59993720 
2924.760 59086636 58215764 57386904 56604504 55870272 55183592 54541500 
2928.136 53939556 53372124 52833832 52319120 51823724 51344664 50880548 
2931.511 50432372 50002760 49595900 49216764 48870076 48560084 48289596 
2934.886 48060216 47871464 47722212 47609688 47529980 47478824 47451252 
2938.261 47442232 47447960 47465408 47492832 47530352 47577892 47635976 
2941.637 47704088 47780724 47863024 47947680 48029536 48103448 48162820 
2945.012 48200472 48209320 48182816 48116328 48008660 47863024 47687524 
2948.387 47493276 47294792 47107112 46942656 46811772 46720108 46669156 
2951.762 46656428 46676056 46720436 46780512 46847680 46913896 46972928 
2955.138 47020260 47053676 47072100 47075572 47064824 47040972 47005344 
2958.513 46959748 46906812 46849524 46791548 46736416 46686860 46645100 
2961.888 46611972 46587920 46572468 46565240 46565276 46571952 46583904 
2965.263 46599728 46617840 46636616 46654800 46671664 46686860 46700292 
2968.639 46712320 46723244 46733464 46743276 46753352 46764608 46777708 
2972.014 46793352 46811772 46832732 46855652 46880124 46905812 46933056 
2975.389 46962072 46993196 47025652 47057368 47085136 47104452 47109916 
2978.764 47096288 47059472 46996520 46906848 46791916 46655320 46501728 
2982.140 46337172 46167516 45997744 45831424 45669804 45512292 45356092 
2985.515 45197188 45031396 44854496 44663752 44457856 44236764 44001372 
2988.890 43752768 43491336 43216308 42925680 42616324 42285412 41931032 
2992.265 41553756 41156400 40744744 40326244 39908112 39496908 39096504 
2995.641 38707696 38328500 37955132 37583056 37208164 36827352 36439488 
2999.016 36044808 35644800 35241852 34839100 34439772 34047152 33664200 
3002.391 33293206 32935362 32590960 32259282 31938628 31627442 31324346 
3005.766 31028688 30740486 30460436 30189446 29928104 29676710 29435068 
3009.142 29202848 28979216 28763560 28555088 28352940 28156296 27964404 
3012.517 27776342 27591574 27409602 27230178 27053400 26879408 26708656 
3015.892 26541424 26378378 26220142 26067348 25920410 25779218 25643064 
3019.267 25510780 25380928 25252308 25124252 24997112 24872008 24750870 
3022.643 24635798 24529240 24432590 24347528 24275344 24216902 24173392 
3026.018 24145544 24133704 24136962 24153634 24180188 24211754 24242794 
3029.393 24267110 24278148 24271104 24241706 24187616 24108590 24006048 
3032.768 23882526 23741714 23587516 23423578 23253552 23080516 22907272 
3036.144 22736120 22568840 22406684 22250236 22099634 21954522 21814612 
3039.519 21679694 21549624 21424882 21305712 21191826 21083188 20979166 
3042.894 20878924 20781938 20687962 20596716 20508408 20423174 20340560 
3046.269 20260254 20182080 20105898 20032400 19962386 19896856 19836746 
3049.645 19782126 19732574 19686944 19644474 19603950 19564990 19527246 
3053.020 19490336 19453570 19416458 19377966 19337640 19295760 19253398 
3056.395 19212148 19174088 19140984 19113802 19092958 19078002 19068100 
3059.770 19062248 19059618 19059480 19061210 19064394 19069104 19075784 
3063.146 19085618 19099848 19119828 19146350 19179040 19216754 19257276 
3066.521 19298496 19337986 19374364 19406446 19433680 19455684 19471520 
3069.896 19480634 19482124 19475610 19461262 19439780 19412266 19379976 
3073.271 19344258 19306220 19267252 19228772 19192650 19160062 19132326 
3076.646 19109196 19089634 19071632 19052728 19031022 19005510 18976258 
3080.022 18944486 18912124 18880976 18852496 18827342 18805576 18786374 
3083.397 18769040 18752364 18735308 18717010 18697292 18676362 18655298 
3086.772 18635964 18619814 18608538 18602936 18602866 18607292 18615212 
3090.147 18624690 18635136 18646306 18658308 18671798 18687364 18705282 
3093.523 18725518 18747660 18771220 18795784 18821044 18847098 18874298 
3096.898 18903264 18934758 18969474 19007378 19048296 19090880 19133746 
3100.273 19175264 19214190 19250556 19285054 19319174 19354164 19390958 
3103.648 19429522 19468920 19508184 19546274 19583084 19619446 19656158 
3107.024 19694226 19733440 19772866 19811256 19847186 19880276 19911426 
3110.399 19942334 19975082 20011826 20053464 20100588 20152578 20208462 
3113.774 20267648 20328826 20391120 20452694 20511500 20565380 20612596 
3117.149 20652380 20685564 20713818 20739466 20764316 20789550 20814926 
3120.525 20840092 20864254 20887338 20909938 20932990 20957432 20984034 
3123.900 21012482 21042214 21072822 21104300 21137104 21172482 21211206 
3127.275 21253410 21298126 21343540 21386942 21426728 21461748 21492176 
3130.650 21519366 21545410 21572222 21601264 21633618 21669142 21707664 
3134.026 21748768 21791862 21836876 21883742 21932320 21982682 22034548 
3137.401 22087188 22139730 22191544 22241554 22289404 22335412 22379994 
3140.776 22424442 22469732 22516456 22564478 22613376 22661932 22709342 
3144.151 22755358 22800088 22844440 22889284 22935180 22982688 23031950 
3147.527 23082894 23135450 23190110 23247330 23307144 23369274 23432636 
3150.902 23495554 23556522 23614558 23668964 23720474 23769956 23818642 
3154.277 23867474 23916834 23967180 24018304 24070800 24124948 24181380 
3157.652 24240412 24302114 24365578 24429786 24493340 24555430 24616230 
3161.028 24676232 24736524 24798578 24863378 24931274 25002132 25075104 
3164.403 25149354 25223794 25297576 25370178 25441564 25512116 25582188 
3167.778 25652660 25724090 25796554 25870152 25943906 26017002 26088528 
3171.153 26157498 26223626 26287232 26348944 26409680 26470106 26530824 
3174.529 26591514 26652108 26711546 26769302 26824774 26878140 26929606 
3177.904 26980762 27033370 27088910 27148514 27212750 27281192 27352468 
3181.279 27424956 27496820 27566894 27635216 27702100 27769454 27839114 
3184.654 27912744 27991296 28075484 28164248 28256428 28350640 28445194 
3188.030 28538880 28631350 28722920 28814436 28907036 29001602 29098388 
3191.405 29197816 29298578 29399966 29501096 29601504 29701082 29800188 
3194.780 29899244 29998644 30098420 30198504 30298504 30398634 30499106 
3198.155 30600422 30703288 30807992 30914252 31021856 31130302 31239170 
3201.531 31348456 31458802 31570498 31684250 31800422 31918906 32039814 
3204.906 32162826 32287582 32413666 32540422 32666720 32791264 32912810 
3208.281 33030882 33145770 33258938 33372168 33487394 33605592 33726648 
3211.656 33849240 33971620 34091916 34209416 34324400 34437944 34552024 
3215.031 34668104 34787264 34909800 35035708 35164208 35294428 35425412 
3218.407 35555928 35684436 35810068 35931884 36050172 36166292 36282372 
3221.782 36400608 36523060 36650228 36781624 36915868 37050984 37184880 
3225.157 37316832 37446440 37574136 37700708 37826748 37952996 38079720 
3228.532 38207240 38335412 38464636 38594840 38725480 38856160 38986372 
3231.908 39115756 39244268 39371840 39498104 39622484 39744212 39862164 
3235.283 39976220 40087004 40196284 40306248 40419368 40536956 40659232 
3238.658 40785144 40913060 41041452 41169696 41297764 41426488 41556376 
3242.033 41687184 41817884 41947492 42074836 42200212 42325220 42452352 
3245.409 42584084 42722476 42867748 43018924 43173740 43329964 43485628 
3248.784 43640060 43793412 43946192 44099208 44253088 44408016 44564060 
3252.159 44721300 44880068 45040620 45203436 45368672 45536284 45706464 
3255.534 45878960 46053184 46228800 46404676 46579844 46753244 46924120 
3258.910 47092264 47258696 47424640 47591464 47760228 47930988 48103040 
3262.285 48275376 48446636 48616224 48784464 48952028 49119772 49288432 
3265.660 49458048 49628028 49797852 49967072 50135728 50304004 50472492 
3269.035 50641304 50810596 50979948 51148964 51317332 51485276 51652956 
3272.411 51821148 51990040 52159852 52330260 52500920 52670824 52839560 
3275.786 53006676 53171756 53334996 53497092 53658952 53822332 53989600 
3279.161 54162040 54340820 54526208 54716788 54910684 55105720 55300280 
3282.536 55493644 55686572 55880032 56075808 56275024 56478564 56686388 
3285.912 56897820 57112004 57327808 57544280 57760600 57975892 58190188 
3289.287 58403952 58618232 58834520 59054444 59278960 59509144 59744616 
3292.662 59985428 60231136 60481812 60737552 60998824 61265096 61535536 
3296.037 61808480 62082280 62355684 62628640 62902428 63178912 63460328 
3299.413 63747720 64040720 64337948 64637960 64938984 65240756 65544740 
3302.788 65852752 66167316 66490688 66823876 67166712 67518808 67878432 
3306.163 68244560 68616112 68992536 69373944 69760864 70154520 70556400 
3309.538 70967976 71390256 71823232 72266344 72717856 73175912 73639600 
3312.914 74108696 74584048 75067248 75560160 76063744 76578192 77103216 
3316.289 77637800 78181480 78733912 79295168 79864976 80442808 81027712 
3319.664 81617840 82211744 82808048 83406472 84006960 84609448 85214064 
3323.039 85820416 86427736 87035608 87643248 88249960 88854672 89455784 
3326.415 90050672 90636920 91212336 91775592 92326624 92866416 93395536 
3329.790 93914040 94420392 94911664 95384144 95834528 96259784 96658512 
3333.165 97029608 97372400 97685584 97968232 98219456 98438976 98628712 
3336.540 98790544 98927008 99039776 99128608 99191352 99225120 99226456 
3339.916 99192560 99122448 99015728 98873080 98695168 98482784 98236280 
3343.291 97955824 97642064 97294704 96913616 96497240 96043264 95549384 
3346.666 95013880 94436944 93821008 93170504 92490664 91787216 91064712 
3350.041 90325624 89571256 88801944 88017672 87219176 86407152 85583080 
3353.417 84748328 83904896 83054424 82199368 81343112 80488824 79640432 
3356.792 78800728 77971880 77154984 76350360 75557872 74777024 74008192 
3360.167 73251608 72507776 71777296 71060576 70357688 69669176 68995488 
3363.542 68337280 67695272 67070036 66461644 65869728 65293892 64733752 
3366.917 64189344 63661008 63149096 62653556 62173992 61708860 61256012 
3370.293 60813588 60379148 59951268 59529056 59112336 58701520 58297228 
3373.668 57899936 57510200 57128408 56754156 56386872 56025516 55668868 
3377.043 55315556 54964644 54616036 54270044 53927848 53590384 53258500 
3380.418 52932596 52612324 52296548 51984288 51674564 51366372 51059808 
3383.794 50754540 50450944 50149416 49850364 49553856 49260744 48971388 
3387.169 48686048 48404928 48127952 47854296 47583552 47314964 47047804 
3390.544 46781840 46516964 46253720 45992620 45734812 45481056 45231936 
3393.919 44987512 44747120 44509100 44271876 44033564 43793192 43550820 
3397.295 43307340 43065280 42826720 42593404 42366100 42144492 41927312 
3400.670 41712604 41498992 41285152 41070768 40855904 40640564 40425004 
3404.045 40209444 39994056 39779076 39565140 39352616 39141680 38932444 
3407.420 38724068 38515904 38307256 38098132 37889000 37680404 37473276 
3410.796 37267584 37063036 36858912 36653872 36447884 36241236 36034980 
3414.171 35830868 35630736 35435084 35244552 35058408 34875436 34694372 
3417.546 34514316 34334300 34154248 33974016 33793400 33612216 33430458 
3420.921 33248026 33065208 32882500 32700338 32519426 32340590 32164038 
3424.297 31990272 31819530 31651996 31487626 31326662 31169354 31015520 
3427.672 30865760 30719504 30576316 30435486 30295768 30156272 30016430 
3431.047 29876314 29736706 29599092 29464924 29335160 29210184 29089034 
3434.422 28970254 28852182 28733114 28612204 28489346 28364682 28238818 
3437.798 28111822 27983770 27854024 27722302 27587938 27450474 27309736 
3441.173 27165870 27018666 26868550 26716128 26561820 26406158 26249286 
3444.548 26090324 25927972 25760794 25587284 25407064 25221406 25032526 
3447.923 24843694 24657504 24475426 24297348 24122216 23948132 23773982 
3451.299 23599514 23425746 23254146 23086528 22923584 22765170 22610166 
3454.674 22457310 22305694 22154722 22004258 21854820 21706514 21559478 
3458.049 21413118 21267606 21123014 20979478 20837278 20697034 20557946 
3461.424 20420012 20283098 20146746 20011582 19878402 19747240 19618094 
3464.800 19490128 19361752 19231612 19099432 18965494 18831562 18700058 
3468.175 18572812 18451034 18334990 18223712 18115986 18010844 17907416 
3471.550 17805084 17703228 17600944 17496960 17390380 17281066 17169508 
3474.925 17058012 16948540 16843300 16743906 16650386 16561361 16475488 
3478.301 16390525 16304959 16217381 16126452 16031072 15930556 15825389 
3481.676 15716402 15606582 15499778 15399352 15307769 15225471 15150668 
3485.051 15079582 15007857 14931858 14848910 14758712 14661472 14558121 
3488.426 14449964 14337074 14220208 14099711 13976441 13851736 13727134 
3491.802 13603150 13479781 13357132 13233527 13108522 12982392 12855412 
3495.177 12728741 12603506 12480592 12359929 12242128 12127324 12016091 
3498.552 11909759 11808864 11712896 11620658 11529324 11435423 11336170 
3501.927 11229357 11115023 10994467 10870717 10746526 10625120 10508739 
3505.302 10398838 10296123 10200555 10111012 10025997 9943201 9860253 
3508.678 9774778 9685661 9592498 9496882 9401151 9307236 9216997 9131175 
3512.535 9049295 8970304 8892851 8816088 8739101 8662399 8585744 8509574 
3516.393 8434095 8359541 8285776 8213745 8144327 8078261 8016964 7960839 
3520.250 7909581 7862613 7817944 7773719 7727980 7679345 7626839 7570629 
3524.107 7511090 7448693 7383744 7315907 7244677 7169350 7089792 7006511 
3527.965 6921495 6836496 6753667 6674421 6599495 6528383 6460948 6396719 
3531.822 6336264 6280255 6229631 6184222 6142986 6104038 6064086 6020778 
3535.680 5972166 5917884 5858537 5796109 5732044 5668022 5605420 5545143 
3539.537 5489068 5439241 5397572 5365534 5343059 5328568 5318740 5309885 
3543.395 5297408 5277183 5247032 5205047 5150525 5084175 5007646 4924193 
3547.252 4838110 4754623 4678252 4611908 4555953 4507606 4462344 4414944 
3551.109 4361124 4299345 4230984 4159423 4089545 4025264 3968448 3919331 
3554.967 3876403 3837491 3800889 3765158 3729197 3691936 3652806 3610039 
3558.824 3562832 3510987 3455175 3397365 3340365 3287045 3240741 3204189 
3562.682 3179456 3167173 3166906 3175217 3186031 3191372 3181225 3146246 
3566.539 3081504 2986576 2868255 2736995 2605108 2481892 2373137 2279630 
3570.396 2199431 2128869 2064644 2003957 1945575 1888765 1832894 1777430 
3574.254 1721806 1665723 1609382 1553813 1499847 1448481 1399847 1353046 
3578.111 1306981 1260257 1212142 1162671 1113072 1064973 1020998 983935 
3581.969 955808 938873 934523 942891 962151 989415 1018806 1043151 1054710 
3586.308 1046273 1013293 955708 877845 788311 696937 613180 543672 491291 
3590.648 455434 432382 417225 403992 386879 362007 327156 282228 229281 
3594.988 171568 111676 52586 -4241 -58046 -108964 -157258 -203925 -249626 
3599.327 -295190 -341709 -389415 -437049 -483553 -525486 -559770 -583529 
3603.185 -594713 -592694 -578267 -554475 -525221 -495998 -473028 -462139 
3607.042 -468494 -494177 -538392 -595738 -658106 -716925 -765979 -802956 
3610.899 -830306 -853819 -880769 -916017 -961379 -1013480 -1065607 -1109863 
3614.757 -1140366 -1155006 -1156196 -1150049 -1143803 -1146017 -1163003 
3618.132 -1198823 -1254067 -1325820 -1408329 -1493695 -1574224 -1643746 
3621.507 -1697844 -1734874 -1755038 -1759262 -1748966 -1724412 -1685467 
3624.883 -1631797 -1564518 -1487487 -1408824 -1341214 -1300615 -1302697 
3628.258 -1357102 -1460938 -1598323 -1744016 -1874747 -1977931 -2051313 
3631.633 -2101569 -2138399 -2171402 -2206546 -2245806 -2287602 -2328503 
3635.008 -2365051 -2395796 -2420839 -2442190 -2462222 -2482714 -2504325 
3638.384 -2527089 -2550279 -2573337 -2595932 -2617867 -2638714 -2657947 
3641.759 -2673194 -2681657 -2679714 -2663249 -2628834 -2574984 -2501789 
3645.134 -2412601 -2313376 -2212842 -2121353 -2049368 -2005703 -1995610 
3648.509 -2021236 -2080267 -2167611 -2276066 -2395961 -2516119 -2625541 
3651.885 -2714454 -2776782 -2811514 -2822279 -2816551 -2805358 -2800551 
3655.260 -2811481 -2842688 -2891865 -2951007 -3009978 -3060155 -3097661 
3658.635 -3123749 -3141940 -3156513 -3170722 -3185656 -3200358 -3213153 
3662.010 -3221901 -3225716 -3224368 -3218612 -3208811 -3194833 -3175656 
3665.385 -3149440 -3114604 -3070519 -3017875 -2960518 -2904306 -2857929 
3668.761 -2830508 -2829323 -2855328 -2900357 -2950185 -2986878 -2996453 
3672.136 -2974175 -2923692 -2857567 -2793934 -2753702 -2755283 -2807366 
3675.511 -2903483 -3022481 -3139736 -3235813 -3303919 -3347750 -3376091 
3678.886 -3397559 -3417745 -3438389 -3458178 -3474252 -3485230 -3490226 
3682.262 -3489931 -3484770 -3473726 -3454628 -3424845 -3382634 -3329139 
3685.637 -3268831 -3207496 -3153289 -3113649 -3092496 -3090983 -3106215 
3689.012 -3133453 -3167927 -3206805 -3248573 -3292081 -3335880 -3377274 
3692.387 -3412090 -3438192 -3454004 -3460381 -3460348 -3457093 -3453642 
3695.763 -3451768 -3450486 -3447594 -3440559 -3426752 -3405581 -3378491 
3699.138 -3349393 -3323188 -3305596 -3301814 -3314080 -3341864 -3380661 
3702.513 -3423596 -3463503 -3494072 -3511229 -3514351 -3503998 -3482174 
3705.888 -3451144 -3413142 -3369219 -3321215 -3270837 -3220717 -3175031 
3709.264 -3138388 -3115393 -3110360 -3125755 -3161414 -3214435 -3279157 
3712.639 -3348342 -3413635 -3467842 -3506135 -3525625 -3526775 -3512149 
3716.014 -3486381 -3454694 -3422676 -3394239 -3371521 -3354260 -3340582 
3719.389 -3328416 -3316184 -3302932 -3289154 -3275277 -3260972 -3245317 
3722.765 -3226834 -3204700 -3179900 -3155559 -3136019 -3126413 -3130427 
3726.140 -3147796 -3174736 -3203647 -3226308 -3235813 -3229104 -3206640 
3729.515 -3172861 -3133355 -3093318 -3055680 -3020408 -2984574 -2944788 
3732.890 -2900719 -2855098 -2816979 -2798049 -2808847 -2855592 -2936033 
3736.266 -3038505 -3145493 -3240976 -3313060 -3357087 -3373921 -3366589 
3739.641 -3338116 -3290502 -3225026 -3144309 -3053970 -2964467 -2891075 
3743.016 -2851576 -2861221 -2923889 -3026463 -3138749 -3228676 -3276724 
3746.391 -3278795 -3243838 -3187103 -3124802 -3070058 -3032484 -3016460 
3749.767 -3021428 -3044790 -3083218 -3133848 -3194471 -3260972 -3326838 
3753.142 -3384409 -3427015 -3451045 -3457061 -3448514 -3430171 -3407159 
3756.517 -3383390 -3360934 -3341568 -3326871 -3319308 -3321577 -3335189 
3759.892 -3359553 -3390064 -3420112 -3442301 -3451177 -3445325 -3427311 
3763.268 -3402556 -3376979 -3355641 -3340648 -3331342 -3324470 -3316611 
3766.643 -3306484 -3295336 -3286096 -3282840 -3289056 -3306056 -3332723 
3770.018 -3365406 -3399203 -3430500 -3455516 -3473233 -3483455 -3486874 
3773.393 -3484737 -3478065 -3467875 -3454530 -3437929 -3417909 -3394272 
3776.769 -3368332 -3342489 -3320360 -3306418 -3304642 -3315526 -3337162 
3780.144 -3364419 -3390853 -3410611 -3421854 -3424648 -3422873 -3421394 
3783.519 -3424484 -3434609 -3451965 -3474186 -3497523 -3518821 -3535517 
3786.894 -3546100 -3550931 -3550602 -3546198 -3539231 -3531409 -3524080 
3790.270 -3518788 -3515535 -3513596 -3510933 -3505116 -3493612 -3475731 
3793.645 -3452163 -3425108 -3398118 -3374283 -3355147 -3340220 -3326377 
3797.020 -3309443 -3286326 -3256170 -3220816 -3185985 -3159506 -3149276 
3800.395 -3161348 -3196872 -3248738 -3304412 -3349131 -3372441 -3371521 
3803.771 -3351268 -3321182 -3293692 -3280440 -3289220 -3322366 -3375006 
3807.146 -3435891 -3491443 -3531935 -3553396 -3557405 -3548499 -3530325 
3810.521 -3504721 -3470800 -3426325 -3369154 -3300170 -3224072 -3149243 
3813.896 -3086113 -3045185 -3033043 -3049363 -3084666 -3122564 -3147072 
3817.271 -3145986 -3117301 -3067097 -3008168 -2955253 -2924054 -2926555 
3820.647 -2966738 -3037880 -3123288 -3202989 -3260478 -3288036 -3286326 
3824.022 -3263109 -3228643 -3192300 -3161874 -3141578 -3130822 -3125887 
3827.397 -3121841 -3113715 -3098747 -3077428 -3051469 -3024521 -3000205 
3830.772 -2980987 -2967495 -2959333 -2953838 -2947190 -2936395 -2919018 
3834.148 -2894432 -2864019 -2831628 -2802296 -2781786 -2774280 -2781885 
3837.523 -2803119 -2833373 -2866092 -2895880 -2918919 -2935112 -2946301 
3840.898 -2956503 -2968416 -2985495 -3008596 -3037946 -3072131 -3108715 
3844.273 -3144506 -3175920 -3199043 -3211113 -3210291 -3195885 -3168025 
3847.649 -3127236 -3073579 -3006786 -2926357 -2833339 -2730555 -2625738 
3851.024 -2531141 -2463309 -2441333 -2480441 -2583383 -2734111 -2902002 
3854.399 -3052785 -3163585 -3228643 -3255085 -3255809 -3243015 -3225256 
3857.774 -3206180 -3185985 -3162861 -3134473 -3099569 -3058675 -3013630 
3861.150 -2967495 -2923692 -2886006 -2858028 -2843314 -2843808 -2859213 
3864.525 -2885183 -2913258 -2933466 -2936790 -2918557 -2880542 -2831595 
3867.900 -2783267 -2749587 -2741553 -2762460 -2806214 -2859213 -2905787 
3871.275 -2935375 -2945545 -2941859 -2933664 -2930669 -2938403 -2956997 
3874.651 -2981086 -3002607 -3012445 -3005897 -2981579 -2942451 -2894136 
3878.026 -2843314 -2797589 -2763777 -2746656 -2747842 -2765127 -2791728 
3881.401 -2818526 -2837323 -2842787 -2834360 -2816781 -2799004 -2791827 
3884.776 -2803942 -2838508 -2890351 -2948078 -2996618 -3024126 -3026167 
3888.152 -3004713 -2967297 -2924350 -2886928 -2863163 -2858324 -2872017 
3891.527 -2900357 -2936428 -2973254 -3005075 -3027976 -3039493 -3038407 
3894.902 -3024258 -2997572 -2959696 -2913620 -2862735 -2810987 -2761867 
3898.277 -2718043 -2680702 -2649813 -2624652 -2604396 -2588620 -2578442 
3901.653 -2575082 -2580813 -2597908 -2627220 -2668452 -2719525 -2776123 
3905.028 -2832549 -2883998 -2925995 -2956602 -2975985 -2985923 -2989346 
3908.403 -2989675 -2989773 -2991682 -2995828 -3001653 -3007082 -3009978 
3911.778 -3007444 -2997309 -2978256 -2950020 -2913653 -2872017 -2828863 
3915.154 -2788568 -2755381 -2732926 -2722093 -2722587 -2731642 -2746228 
3918.529 -2762921 -2779218 -2793045 -2803251 -2809045 -2809670 -2804765 
3921.904 -2795021 -2782049 -2768683 -2758674 -2755250 -2759925 -2772930 
3925.279 -2791597 -2811843 -2829422 -2840845 -2843873 -2838574 -2825505 
3928.655 -2806477 -2783498 -2759464 -2737536 -2721435 -2714652 -2720118 
3932.030 -2739051 -2770098 -2809111 -2850556 -2888211 -2917175 -2934849 
3935.405 -2941595 -2939226 -2931393 -2921256 -2910988 -2901311 -2891536 
3938.780 -2880443 -2866751 -2850621 -2832714 -2815925 -2803086 -2797062 
3942.156 -2799794 -2810757 -2828138 -2847889 -2865434 -2876625 -2878962 
3945.531 -2871886 -2856974 -2837685 -2817933 -2801473 -2790938 -2787547 
3948.906 -2790741 -2798872 -2810197 -2822674 -2834459 -2844696 -2852465 
3952.281 -2857764 -2860595 -2861813 -2862142 -2862603 -2863656 -2865467 
3955.656 -2867310 -2868034 -2866652 -2862636 -2856579 -2849371 -2842853 
3959.032 -2838277 -2836631 -2837652 -2840779 -2844992 -2849733 -2854868 
3962.407 -2860431 -2866816 -2873893 -2881102 -2887191 -2891075 -2891503 
3965.782 -2887948 -2880707 -2870141 -2857304 -2843248 -2828698 -2814510 
3969.157 -2801638 -2790905 -2782971 -2777835 -2775267 -2774016 -2773028 
3972.533 -2771185 -2767695 -2763217 -2758476 -2754690 -2752978 -2753636 
3975.908 -2756632 -2761143 -2766082 -2770197 -2772831 -2773654 -2772074 
3979.283 -2768551 -2763316 -2757192 -2751233 -2746459 -2743100 -2741652 
3982.658 -2741158 -2740466 -2738721 -2735330 -2730654 -2725715 -2722225 
3986.034 -2721040 -2722456 -2726077 -2730589 -2734968 -2738458 -2741059 
3989.409 -2743495 -2746953 -2751266 -2756468 -2761374 -2764699 -2765489 
3992.784 -2763777 -2760221 -2756369 -2753636 -2752912 -2754723 -2758904 
3996.159 -2764864 -2772107 -2780304 -2788798 -2797128 -2804403 -2809868 
3999.535 -2812337 -2812041 -2809308 
##END=
