
##TITLE=Z404_1_e
##JCAMP-DX=5.01  $$ Nicolet v. 1
##DATATYPE=INFRARED SPECTRUM
##ORIGIN=UniL
##OWNER=Nicolet
##LONGDATE=2011/09/21
##TIME=10:53:49
##SPECTROMETER/DATA SYSTEM=Nicolet iS5
##DATA PROCESSING=
Ratio against background
%Transmittance->Absorbance
Truncated
ElementMultiply or ElementDivide
##COMMENTS=
Number of sample scans: 32
Collection length: 51.15 sec
Sample gain: 2.0
Background collected on: Mer Sep 21 10:38:25 2011 (GMT+02:00);
Number of background scans: 32
Background gain: 2.0
Sample spacing:  1.000
Number of scan points: 12415
Resolution points: 8192
Number of FFT points: 65536
Apodization: N-B fort;
Phase correction: Mertz;
Laser frequency: 15798.0 cm-1
Number of rejected sample scans: 0
Number of rejected background scans: 0
Bench serial number: ASB1000141;
##RESOLUTION=4.000
##XUNITS=1/CM
##YUNITS=ABSORBANCE
##FIRSTX=649.893372
##LASTX=4000.122314
##FIRSTY=0.104964
##MAXX=4000.122314
##MINX=649.893372
##MAXY=0.216031
##MINY=-0.000409
##XFACTOR=1.000000
##YFACTOR=1.000000E-009
##NPOINTS=6950
##DELTAX=0.482117
##ZPD=6100
##XYDATA=(X++(Y..Y))
649.893 104963656 103642200 102537728 101642600 100930576 100371824 99949784 
653.268 99669672 99553112 99624872 99890936 100326696 100878168 101480920 
656.643 102078616 102642088 103172048 103688304 104210024 104740552 
659.536 105262520 105745976 106165656 106511376 106793088 107035400 
662.428 107268368 107517440 107798616 108122736 108497504 108928408 
665.321 109413144 109932696 110438864 110848816 111069944 111036568 
668.214 110757344 110316720 109834424 109410248 109086024 108855424 
671.107 108679088 108511616 108316624 108079640 107806304 107511456 
673.999 107204672 106882080 106526960 106121144 105657096 105144520 
676.892 104606000 104066584 103542856 103034496 102528880 102010008 
679.785 101470752 100917744 100367824 99837888 99335848 98854440 98376768 
683.159 97883256 97364104 96823664 96278320 95746376 95239296 94756304 
686.534 94285960 93815368 93337368 92855824 92383880 91937256 91524592 
689.909 91143384 90780848 90421344 90052832 89671696 89283200 88896056 
693.284 88516744 88145920 87778448 87408168 87032016 86653104 86278808 
696.659 85916024 85568152 85232088 84901400 84569800 84236072 83905768 
700.034 83589592 83297760 83036128 82804928 82599008 82412576 82241528 
703.408 82085472 81945040 81818808 81700456 81579216 81443424 81286776 
706.783 81112808 80935440 80774272 80649456 80574024 80549688 80570992 
710.158 80630312 80726816 80871848 81089008 81408136 81855336 82438056 
713.533 83135544 83890984 84621608 85224312 85594256 85653296 85359880 
716.908 84725376 83811048 82726304 81609928 80598000 79819344 79368224 
720.282 79292856 79595464 80226608 81091400 82044088 82911592 83515288 
723.657 83685752 83312728 82364672 80904344 79073976 77068120 75092328 
727.032 73302248 71789728 70572616 69611408 68836000 68176248 67585008 
730.407 67038372 66531388 66065812 65639460 65242908 64864532 64495252 
733.782 64132884 63780604 63441148 63111080 62779048 62428668 62047192 
737.156 61632444 61194824 60752340 60323104 59916424 59529320 59149736 
740.531 58764336 58367680 57966048 57574544 57209024 56879120 56583064 
743.906 56309048 56042252 55771704 55495416 55219000 54950768 54695480 
747.281 54452208 54216168 53982696 53752988 53534236 53336944 53168088 
750.656 53025804 52898912 52770600 52628144 52468276 52299988 52139452 
754.031 52003372 51900300 51827716 51775004 51730552 51688672 51651760 
757.405 51627768 51623920 51641348 51674600 51715696 51761232 51817860 
760.780 51901088 52030488 52217772 52462072 52748784 53058788 53378828 
764.155 53712720 54081724 54520988 55066788 55743564 56561400 57515948 
767.530 58594912 59784232 61072460 62453000 63930452 65531716 67325208 
770.905 69444312 72074120 75426512 79675704 84855272 90769696 96915480 
774.279 102559552 106782336 108706880 107790288 103947616 97635176 89667016 
777.654 81068080 72782264 65472996 59529888 55028424 51829472 49672788 
781.029 48283412 47435952 46961888 46760400 46768628 46939036 47236792 
784.404 47638640 48138724 48750212 49498452 50410116 51501840 52779728 
787.779 54244176 55900872 57769724 59887632 62298272 65049620 68181984 
791.154 71728248 75723672 80211144 85243296 90875432 97140272 104020864 
794.528 111413256 119121368 126843256 134167400 140640944 145772272 
797.421 149085968 150220640 148956944 145286864 139418736 131764784 
800.314 122874232 113316152 103665720 94407256 85888488 78353096 71913744 
803.689 66580324 62291576 58941148 56407248 54565504 53312028 52564716 
807.063 52259660 52350072 52790692 53523252 54472940 55536228 56586088 
810.438 57496204 58145184 58440228 58331712 57808668 56898840 55653804 
813.813 54146804 52459268 50671648 48866812 47116824 45479180 43997704 
817.188 42695532 41578440 40638964 39863288 39236800 38748592 38393252 
820.563 38168964 38075920 38115640 38291260 38611788 39092660 39758668 
823.938 40639872 41763416 43148456 44793256 46670632 48716996 50833948 
827.312 52893448 54731784 56179836 57081584 57313440 56821340 55630000 
830.687 53846972 51634036 49187856 46709408 44358728 42256304 40469812 
834.062 39016420 37878044 37011004 36362168 35870848 35479124 35138948 
837.437 34811708 34476396 34129372 33782156 33454470 33166192 32931362 
840.812 32753464 32627284 32543138 32492608 32471898 32481790 32525140 
844.186 32603566 32715056 32854840 33018190 33203532 33413604 33654960 
847.561 33934176 34254300 34614132 35009056 35434900 35891140 36382916 
850.936 36918896 37508964 38159228 38870800 39640964 40466972 41349436 
854.311 42295892 43317996 44430732 45647828 46979756 48435044 50023284 
857.686 51757088 53656252 55746088 58054356 60612124 63450544 66599556 
861.060 70089600 73944304 78170816 82743464 87589704 92581000 97519896 
864.435 102173064 106290528 109632136 112025344 113377408 113695728 
867.328 113078528 111701600 109786120 107542176 105156888 102759408 
870.221 100408904 98110376 95827712 93512272 91118864 88624288 86031944 
873.596 83369088 80679936 78016568 75440032 73011560 70793848 68852928 
876.970 67247672 66028736 65234208 64881460 64970724 65484984 66397516 
880.345 67673824 69273896 71152920 73251336 75491440 77782792 80015936 
883.720 82081112 83885960 85358944 86465128 87205448 87613088 87744456 
887.095 87668392 87461536 87190744 86908104 86645016 86406304 86172528 
890.470 85904080 85555040 85078824 84438448 83613288 82594960 81384952 
893.844 79988008 78407896 76645544 74699576 72568048 70251808 67757232 
897.219 65099656 62305236 59412404 56475924 53559608 50734020 48071764 
900.594 45632152 43459108 41575924 39982872 38663400 37589524 36732292 
903.969 36065076 35567364 35225108 35025576 34956336 35003744 35154036 
907.344 35396796 35726276 36142236 36647492 37244624 37933796 38712512 
910.719 39577296 40526840 41563596 42692900 43920932 45250136 46678636 
914.093 48201064 49813904 51521168 53339116 55294896 57426272 59774500 
917.468 62376836 65266788 68468720 71995584 75842928 79978656 84334920 
920.843 88791088 93185488 97333584 101045800 104184296 106690656 108613432 
924.218 110103408 111404728 112830816 114694640 117299864 120893848 
927.110 125620944 131505240 138404048 146008912 153789184 161030352 
930.003 166940048 170671200 171531520 169133008 163460864 154919152 
932.896 144231568 132353720 120233008 108691216 98373688 89646528 82655672 
936.271 77365816 73620368 71201440 69876672 69449168 69744792 70607816 
939.646 71888208 73396440 74896536 76128336 76804088 76673176 75574952 
943.020 73459056 70411264 66628180 62396192 58016220 53756964 49832784 
946.395 46365152 43397848 40913824 38860836 37172248 35782904 34641368 
949.770 33705700 32942514 32325954 31832508 31442952 31142906 30921868 
953.145 30772780 30690166 30668046 30698308 30772138 30879706 31012672 
956.520 31165722 31335566 31521148 31722318 31938948 32170746 32417200 
959.894 32678578 32955452 33249028 33559948 33887892 34230600 34584780 
963.269 34946820 35314268 35686668 36065724 36454588 36856208 37272348 
966.644 37702444 38144216 38594300 39050060 39510228 39975456 40447952 
970.019 40930392 41425612 41935848 42463204 43009560 43576900 44167172 
973.394 44781284 45419400 46080224 46762136 47464152 48187144 48934560 
976.768 49711092 50521804 51370396 52258092 53183444 54142976 55133256 
980.143 56151932 57197308 58268280 59363780 60481204 61617856 62771924 
983.518 63943692 65137000 66358680 67617144 68919952 70272880 71680208 
986.893 73145520 74673992 76274208 77956856 79734816 81619320 83618552 
990.268 85736928 87975792 90334680 92811968 95403872 98102488 100891200 
993.643 103745024 106629824 109503656 112325512 115055944 117659696 
996.535 120108472 122376256 124438704 126274896 127866056 129198104 
999.428 130262168 131052032 131562024 131785888 131718072 131358656 
1002.321 130718944 129827800 128730360 127484832 126159520 124819912 
1005.213 123526696 122336336 121295752 120448288 119833960 119485112 
1008.106 119427744 119677904 120240520 121111352 122278504 123726624 
1010.999 125435056 127377168 129519936 131815776 134206160 136627216 
1013.891 139009408 141293056 143434272 145406416 147203504 148838080 
1016.784 150340480 151753264 153130832 154535168 156021056 157630496 
1019.677 159379792 161254256 163209120 165179184 167100240 168918880 
1022.570 170609632 172178496 173659568 175105776 176575488 178130864 
1025.462 179825728 181702288 183789456 186094672 188600384 191259088 
1028.355 194001104 196740464 199383456 201851152 204080544 206031008 
1031.249 207685088 209044720 210131536 210984448 211664368 212247040 
1034.142 212806384 213404016 214063952 214760560 215410240 215883744 
1037.035 216030960 215690512 214728336 213051872 210614352 207426224 
1039.928 203551696 199111328 194261008 189186896 184084912 179119952 
1042.821 174421888 170066592 166070160 162402544 158998944 155783616 
1045.714 152677792 149615728 146553840 143469440 140365312 137266880 
1048.607 134220288 131282296 128507048 125938728 123595880 121469400 
1051.500 119522888 117705840 115963160 114247288 112528800 110794464 
1054.393 109042616 107275456 105490616 103676528 101813968 99877840 97843656 
1057.768 95695112 93426800 91048984 88586456 86081464 83586616 81158944 
1061.144 78858016 76733504 74822136 73147256 71716912 70528720 69573640 
1064.519 68841288 68321920 68007768 67892272 67968752 68229592 68666448 
1067.894 69271456 70037664 70960600 72035560 73255688 74609624 76078552 
1071.269 77636888 79256232 80905184 82555688 84184784 85773624 87309512 
1074.645 88784864 90197312 91548080 92840312 94074816 95245944 96337672 
1078.020 97324224 98178080 98876912 99417496 99821960 100143272 100458296 
1081.395 100851664 101411824 102213224 103307584 104726760 106479328 
1084.288 108554288 110921912 113538576 116350304 119294016 122311432 
1087.181 125352576 128377768 131358608 134264528 137047488 139635440 
1090.074 141921120 143769680 145049136 145642256 145479408 144555600 
1092.967 142934256 140740528 138134080 135304928 132435424 129677656 
1095.860 127152432 124927344 123019304 121398496 119998072 118724784 
1098.753 117466800 116116600 114574784 112759200 110620112 108139904 
1101.646 105339248 102272720 99027048 95708784 92422368 89268176 86325016 
1105.022 83642216 81246344 79140832 77313552 75742368 74400632 73261456 
1108.397 72295688 71474856 70770328 70150272 69582904 69034408 68467280 
1111.772 67844888 67129320 66285104 65285848 64116216 62776364 61281460 
1115.147 59660752 57951660 56191828 54419348 52666336 50958488 49318980 
1118.523 47767740 46322980 45004012 43828960 42814468 41975556 41321776 
1121.898 40855612 40569512 40444824 40448972 40535644 40653372 40746748 
1125.273 40767344 40684776 40488940 40192904 39826356 39429708 39042160 
1128.648 38691576 38393000 38145376 37936980 37748668 37561344 37358104 
1132.024 37124788 36850616 36526448 36143676 35695120 35175164 34580832 
1135.399 33912072 33172630 32369788 31513420 30616882 29696894 28770676 
1138.774 27857980 26978118 26147432 25380296 24686650 24072586 23541270 
1142.149 23093584 22729556 22448550 22249086 22128572 22082690 22105282 
1145.525 22188998 22324144 22500508 22705326 22923478 23138770 23333366 
1148.900 23490482 23597626 23647166 23638244 23575482 23468552 23329658 
1152.275 23171376 23006410 22846396 22700718 22577286 22480898 22413172 
1155.650 22372390 22354492 22354354 22367436 22391228 22425490 22471512 
1159.026 22530590 22603044 22687102 22779208 22874300 22966828 23051830 
1162.401 23124094 23179346 23214122 23226462 23217164 23189412 23149954 
1165.776 23107250 23069826 23044912 23037470 23049978 23084046 23141460 
1169.151 23225098 23339170 23487650 23673722 23898698 24162182 24463228 
1172.527 24801630 25179268 25599692 26067524 26586336 27158428 27784290 
1175.902 28463448 29195794 29982382 30825492 31727344 32689366 33711788 
1179.277 34794048 35936204 37140592 38412256 39756960 41179824 42683032 
1182.652 44265088 45922896 47654504 49462616 51356936 53353728 55471960 
1186.028 57730780 60142948 62710820 65421648 68243944 71127464 73994864 
1189.403 76748808 79279136 81465168 83202880 84417200 85073216 85183104 
1192.778 84801096 84013832 82915712 81600608 80146864 78604408 76999600 
1196.153 75336408 73605928 71795080 69897880 67921512 65890432 63844732 
1199.529 61832928 59909312 58122760 56510676 55099248 53899528 52910328 
1202.904 52120736 51513332 51066364 50753724 50548232 50419792 50337224 
1206.279 50272752 50201556 50105344 49973688 49801756 49589584 49338948 
1209.654 49052920 48734824 48389072 48022500 47644556 47266976 46904264 
1213.030 46571768 46285012 46060996 45916748 45869864 45939028 46140948 
1216.405 46490332 46998768 47674284 48522252 49547468 50754688 52149652 
1219.780 53738028 55523200 57505812 59682952 62050476 64604656 67344512 
1223.155 70271872 73389888 76698760 80193808 83861080 87678528 91616072 
1226.531 95631760 99674888 103679896 107560088 111216480 114534064 117389256 
1229.906 119670344 121277440 122136656 122211376 121505872 120075400 
1232.799 118022088 115504688 112721272 109882008 107214000 104923400 
1235.692 103181120 102134112 101888544 102519104 104079472 106600648 
1238.585 110093496 114542480 119902696 126086160 132949992 140312816 
1241.478 147935616 155529696 162793712 169394416 175004976 179352304 
1244.371 182222528 183507456 183213872 181462400 178464016 174480672 
1247.264 169822864 164799904 159697808 154779808 150235712 146171024 
1250.157 142592736 139404528 136421440 133392752 130073296 126250880 
1253.050 121796480 116692008 111023608 104963560 98717840 92510840 86539128 
1256.426 80940992 75805496 71162320 66995992 63260392 59895048 56839392 
1259.801 54036280 51442156 49026396 46768816 44658576 42689320 40855868 
1263.176 39151940 37569152 36097336 34727248 33451822 32267456 31173414 
1266.551 30170656 29259058 28436206 27697050 27035592 26446724 25927584 
1269.927 25477894 25098484 24789106 24547050 24366734 24240412 24160396 
1273.302 24120708 24116472 24144036 24198756 24273942 24362004 24455234 
1276.677 24548066 24638568 24728316 24821662 24923134 25037336 25168420 
1280.052 25319740 25495286 25698320 25928992 26182274 26446054 26702280 
1283.427 26928654 27106086 27222802 27278052 27282216 27253884 27216172 
1286.803 27190066 27193066 27237868 27332142 27480300 27683842 27940798 
1290.178 28245396 28587996 28957540 29342746 29735428 30132228 30533018 
1293.553 30939122 31350806 31765412 32177490 32580886 32970752 33345260 
1296.928 33705880 34056008 34398632 34735684 35067964 35396400 35723072 
1300.304 36052332 36388716 36735324 37090608 37447596 37794284 38115532 
1303.679 38397412 38627036 38795364 38895588 38922624 38873592 38748124 
1307.054 38550952 38292636 37989956 37664612 37337992 37028616 36750072 
1310.429 36508572 36305968 36140976 36011684 35915688 35849648 35808632 
1313.805 35785060 35769340 35752284 35725736 35683716 35622140 35537588 
1317.180 35425880 35282208 35103200 34888256 34641868 34373996 34097004 
1320.555 33823772 33564460 33324476 33106294 32911594 32743458 32609068 
1323.930 32519388 32486644 32523352 32640680 32847046 33149850 33554078 
1327.306 34059772 34657836 35325628 36026304 36705648 37304376 37766668 
1330.681 38048000 38127540 38009556 37722356 37309068 36822120 36315728 
1334.056 35836084 35423072 35108052 34912208 34848328 34920392 35125440 
1337.431 35455360 35901652 36458732 37125544 37905560 38803588 39823084 
1340.807 40962248 42212044 43553492 44957488 46382072 47767960 49045684 
1344.182 50138296 50968284 51477144 51628028 51411796 50843148 49954544 
1347.557 48788096 47386612 45795560 44061876 42232968 40364640 38516336 
1350.932 36745020 35105536 33638492 32366362 31294648 30413630 29705020 
1354.308 29146362 28717220 28399098 28174220 28026886 27942708 27911118 
1357.683 27928184 27996208 28122640 28314672 28575790 28902254 29284754 
1361.058 29711088 30172930 30669754 31211826 31817998 32510712 33315744 
1364.433 34257884 35360596 36647312 38135100 39827444 41700752 43698716 
1367.809 45726532 47653652 49344928 50671872 51536276 51889060 51726668 
1371.184 51090964 50053212 48713548 47186960 45586588 44027884 42607808 
1374.559 41393940 40423368 39700720 39209528 38924580 38826520 38908888 
1377.934 39183056 39676356 40430604 41501324 42946240 44820920 47161144 
1381.310 49960120 53142028 56539664 59916424 62963664 65357284 66825224 
1384.685 67157280 66256000 64151512 61023112 57183360 53018840 48945320 
1388.060 45288016 42236000 39847092 38072848 36812384 35948440 35381520 
1391.435 35033268 34845852 34780908 34808984 34905636 35052444 35235564 
1394.811 35448996 35694764 35982420 36323332 36725476 37188996 37702916 
1398.186 38245884 38787788 39300524 39766220 40182180 40560052 40918704 
1401.561 41276884 41646920 42032932 42432916 42842916 43260008 43684608 
1404.936 44119856 44569420 45035988 45519504 46020176 46538940 47078748 
1408.312 47642816 48231944 48842228 49463880 50083852 50691088 51279668 
1411.687 51851276 52412236 52969504 53524676 54073764 54607736 55119188 
1415.062 55605028 56068344 56514000 56942472 57342740 57692860 57964308 
1418.437 58138256 58220880 58251756 58291280 58393716 58593092 58893336 
1421.813 59277748 59721156 60205252 60727076 61302028 61958296 62727436 
1425.188 63635992 64698672 65922328 67308872 68858096 70561624 72393704 
1428.563 74307168 76226336 78057176 79711928 81121712 82257264 83132856 
1431.938 83803168 84348800 84856400 85416016 86108776 87009016 88194672 
1435.313 89740944 91713336 94150408 97041240 100329624 103935240 107772328 
1438.689 111754360 115772184 119687192 123296896 126346512 128588128 
1441.582 129797008 129835352 128674520 126382904 123102496 119006296 
1444.475 114289272 109132064 103684312 98080936 92439056 86881664 81564064 
1447.850 76658752 72331544 68706232 65827772 63668796 62153540 61196460 
1451.225 60723380 60682264 61041912 61776504 62860036 64272628 66001348 
1454.601 68050824 70443448 73191056 76262472 79548224 82861784 85997968 
1457.976 88809464 91244760 93323360 95096528 96619944 97943496 99111040 
1461.351 100159752 101115592 101983192 102737408 103329272 103695456 
1464.244 103788440 103602408 103182552 102607384 101951472 101266384 
1467.137 100569888 99856696 99113168 98325648 97476768 96533280 95432888 
1470.512 94080656 92360520 90183600 87540728 84541288 81386632 78299360 
1473.888 75441688 72875752 70589728 68543600 66713944 65117440 63808008 
1477.263 62848620 62294408 62172312 62483416 63219420 64376644 65964440 
1480.638 68003384 70513720 73502776 76957784 80850616 85149320 89828464 
1484.013 94881688 100313712 106120680 112273496 118679144 125151856 
1486.906 131426888 137141408 141869984 145196496 146742992 146268272 
1489.800 143742736 139386000 133635896 127022432 120070504 113165768 
1492.693 106520528 100225104 94270600 88613440 83230856 78138328 73401384 
1496.068 69117648 65378508 62232188 59668580 57638904 56074600 54912940 
1499.443 54111632 53644180 53494920 53651192 54097560 54813836 55777132 
1502.818 56955316 58307156 59777772 61269216 62631168 63646236 64030388 
1506.194 63525140 62010692 59581236 56494712 53039696 49432836 45790884 
1509.569 42172940 38620120 35171212 31886422 28834336 26069670 23630722 
1512.944 21527794 19745958 18255572 17017900 15989129 15118143 14353684 
1516.319 13654024 12995638 12384271 11846965 11417836 11117334 10939552 
1519.695 10846867 10780559 10675172 10487660 10221994 9925743 9662521 
1523.070 9475918 9377722 9350230 9362656 9383714 9394752 9393364 9388488 
1526.927 9391400 9407585 9436400 9475614 9528412 9607707 9732691 9921166 
1530.785 10180949 10503241 10860932 11211778 11513910 11738324 11883740 
1534.160 11975524 12054994 12158944 12307978 12509340 12761020 13058871 
1537.535 13395300 13757298 14120933 14443422 14672267 14764231 14708255 
1540.910 14533623 14294440 14046285 13820333 13619184 13421545 13198002 
1544.286 12925656 12602381 12249797 11906694 11611979 11388719 11240203 
1547.661 11150445 11093676 11041129 10971596 10876730 10760485 10634866 
1551.036 10512236 10401383 10305352 10223249 10153068 10093716 10046680 
1554.411 10016977 10012773 10044680 10124442 10260397 10449611 10663932 
1557.787 10842417 10886888 10701865 10260499 9632369 8946256 8313977 7800469 
1561.644 7419571 7153518 6970785 6837640 6726005 6618234 6511162 6412725 
1565.501 6336835 6294508 6289970 6319285 6372004 6433238 6484759 6509749 
1569.359 6494513 6434549 6337440 6222774 6116976 6044867 6027665 6076485 
1573.216 6191751 6361951 6565014 6772446 6952974 7084269 7161603 7200746 
1577.074 7228304 7272305 7354795 7490088 7689497 7963842 8323366 8775717 
1580.931 9323452 9962899 10685089 11477539 12327000 13215354 14117407 
1584.306 14999214 15814634 16514825 17057700 17415004 17581828 17577792 
1587.682 17447806 17253002 17065694 16964836 17020414 17291964 17822346 
1591.057 18627802 19693254 20963032 22347168 23716098 24918150 25810266 
1594.432 26264844 26200996 25599586 24506170 23022934 21281630 19429938 
1597.807 17596388 15876664 14338410 13014655 11914253 11028145 10336908 
1601.183 9817039 9445949 9208401 9096594 9109790 9251148 9523841 9927370 
1605.040 10455211 11092384 11812746 12579256 13337724 14021645 14562164 
1608.415 14891016 14958058 14738933 14238217 13489625 12550776 11500062 
1611.791 10417096 9373828 8425852 7602392 6911395 6343055 5876807 5483431 
1615.648 5131111 4794287 4457624 4123094 3807574 3533936 3321500 3179689 
1619.505 3108668 3099891 3139438 3209330 3290550 3366243 3421477 3448295 
1623.363 3445255 3418805 3379967 3341935 3317227 3313320 3332018 3367245 
1627.220 3407016 3435537 3439578 3414430 3366009 3309480 3263442 3245314 
1631.078 3266079 3329914 3435136 3576429 3746342 3933440 4120318 4281275 
1634.935 4382946 4395731 4307979 4134534 3910604 3676531 3464526 3289782 
1638.792 3154423 3050905 2968428 2898108 2836804 2787580 2758336 2757235 
1642.650 2789748 2857049 2956251 3081070 3220712 3360099 3478588 3550271 
1646.507 3552409 3474713 3328078 3143176 2961855 2826832 2768640 2807556 
1650.365 2950179 3190838 3503539 3834917 4107941 4236974 4177990 3957381 
1654.222 3650568 3330649 3039660 2794617 2596642 2442106 2326864 2246722 
1658.080 2196933 2171924 2166196 2175054 2195001 2222643 2252218 2273268 
1661.937 2271836 2233800 2152577 2034150 1898582 1773737 1684882 1650058 
1665.794 1675270 1754973 1874455 2013577 2151145 2266307 2342621 2370405 
1669.652 2347051 2278997 2180582 2073233 1979591 1919915 1906736 1940117 
1673.509 2005422 2073167 2108858 2082955 1987846 1842444 1684284 1550821 
1677.367 1464506 1431460 1443362 1486282 1547894 1624116 1720142 1847601 
1681.224 2016340 2227272 2463631 2689850 2852112 2893805 2786213 2549679 
1685.082 2247355 1947838 1699219 1519797 1404600 1337757 1299072 1269994 
1688.939 1234338 1182306 1111809 1030032 951093 893051 874558 908524 1000108 
1693.279 1144066 1324164 1513978 1678696 1788675 1831264 1821548 1793000 
1697.136 1783718 1818986 1903474 2019835 2128103 2177152 2119013 1942114 
1700.993 1680957 1399880 1156093 981112 882659 849459 858954 880966 887108 
1705.333 856962 785589 684093 573066 473611 398785 352623 331102 327719 
1709.673 337501 360780 403295 473810 580332 726275 908856 1120114 1349756 
1714.012 1587134 1824442 2055289 2271170 2458500 2596942 2662179 2636976 
1717.870 2520283 2332860 2109024 1886269 1694063 1547396 1450310 1398118 
1721.727 1381365 1388213 1406395 1425410 1437145 1437743 1428103 1413709 
1725.584 1403371 1406130 1429698 1476940 1545068 1625712 1708633 1785181 
1729.442 1852327 1914357 1981921 2067207 2177518 2309442 2443505 2545812 
1733.299 2571576 2484392 2279230 1990542 1677432 1393963 1176591 1036475 
1737.157 967597 952653 968526 991607 1001370 988020 954181 912508 877812 
1741.496 860813 864764 885381 914799 945879 976563 1011101 1058563 1128419 
1745.836 1226895 1353744 1502740 1662530 1821381 1970039 2101000 2208023 
1749.693 2283360 2316038 2296018 2219079 2092776 1937121 1779559 1647530 
1753.551 1558968 1519664 1521759 1547429 1572668 1574863 1541211 1472119 
1757.408 1380833 1286211 1206261 1151807 1124300 1116527 1115165 1104402 
1761.266 1068295 996688 888834 754421 611256 480610 383496 333489 336374 
1765.605 387111 472018 570744 661925 731619 776328 804643 830536 867619 
1769.945 921805 988219 1052152 1094436 1099950 1063512 993798 907694 823896 
1774.284 754553 704371 673341 660100 664082 687146 731552 797605 881364 
1778.624 974504 1064741 1139249 1188353 1209152 1206029 1188585 1169116 
1782.481 1157023 1156624 1166624 1181176 1191708 1190546 1174365 1145329 
1786.339 1111378 1084172 1076267 1098688 1158053 1254442 1381000 1524519 
1790.196 1665990 1782653 1853525 1862609 1804878 1688807 1534062 1365244 
1794.054 1203636 1064375 954081 873064 816859 779216 754819 739485 731619 
1798.393 730756 736132 744961 751666 748181 726574 682003 614939 530800 
1802.733 439380 351396 275464 217148 178297 157746 153106 161956 183137 
1807.073 215524 257925 307625 360183 410061 452382 483263 500910 505588 
1811.412 498688 483164 462797 442166 426710 421669 431188 456528 495570 
1815.752 542477 589888 630766 660864 680277 692689 702943 714958 730789 
1820.091 750504 774203 803348 840894 890495 953085 1024884 1095931 1151940 
1824.431 1180013 1173501 1136724 1083342 1032091 1000009 994994 1015087 
1828.288 1047668 1076034 1082644 1057367 1000308 921606 836545 758902 699094 
1832.628 661759 647524 654592 680509 722359 776427 838702 904971 971781 
1836.968 1037372 1102409 1170113 1245204 1333636 1441367 1573100 1732883 
1840.825 1922477 2141022 2383131 2638410 2891704 3124453 3321233 3475014 
1844.682 3590160 3679405 3759477 3843775 3937954 4040213 4142897 4236839 
1848.540 4314438 4371532 4407781 4426057 4428835 4417622 4391748 4349745 
1852.397 4290310 4214021 4122927 4019980 3908231 3789190 3663265 3530696 
1856.255 3391989 3248720 3103462 2958753 2815927 2675014 2535247 2396258 
1860.112 2258979 2126105 2001494 1889264 1792235 1711760 1648494 1602731 
1863.969 1576060 1570806 1589029 1630767 1692832 1768480 1846969 1916686 
1867.827 1966577 1988479 1978992 1939684 1876718 1798690 1714887 1633794 
1871.684 1561927 1503738 1461015 1432990 1416368 1406528 1399515 1392268 
1875.542 1383725 1373887 1363150 1350221 1332406 1305818 1267601 1216661 
1879.399 1155063 1087162 1018009 952388 892022 836345 783132 729727 674635 
1883.739 618389 563312 513118 472251 445052 435035 444919 474838 521411 
1888.078 577114 631131 670719 686184 674868 642612 601368 566198 549876 
1892.418 558203 589357 634814 683994 726972 758205 777689 789240 797738 
1896.758 806833 817821 830735 845375 862407 883622 910715 944252 983039 
1901.097 1025216 1069059 1114334 1162737 1216296 1276474 1341314 1406163 
1904.955 1465403 1514544 1552151 1580283 1603396 1625379 1646732 1664460 
1908.812 1672775 1666322 1643539 1607254 1564188 1521792 1485451 1456826 
1912.669 1434286 1416335 1403038 1398451 1407891 1435882 1480963 1534627 
1916.527 1581614 1603762 1587699 1529806 1438441 1330578 1226330 1141242 
1920.384 1081714 1044845 1021330 998880 966733 918219 852048 771581 683363 
1924.724 594234 511559 440939 385917 348046 325465 314323 309118 305404 
1929.063 300828 296352 294761 299369 311571 329775 349340 364925 373117 
1933.403 373017 366484 357365 348511 340552 332594 322182 308090 292307 
1937.743 279409 275431 286306 314489 358956 414339 472450 524430 561620 
1942.082 577578 569019 537202 487841 429729 374277 332329 311505 315185 
1946.422 341282 382999 431851 480676 525558 566729 606245 646561 688142 
1950.761 728698 764478 792128 810684 821440 827316 831001 833590 833822 
1955.101 829175 817224 798004 773506 746919 722525 702778 689270 682799 
1959.441 684226 694547 714858 744264 779083 814070 843417 863701 876749 
1963.780 888469 907262 938408 982706 1033519 1080086 1111344 1121277 1111444 
1968.120 1089985 1067863 1052252 1045775 1045377 1045210 1041490 1034649 
1971.977 1029202 1032025 1046572 1072912 1105664 1139249 1169415 1197722 
1975.835 1229420 1270492 1322934 1382496 1438807 1479367 1496855 1489008 
1979.692 1460217 1417365 1366441 1309640 1246367 1175329 1097658 1019404 
1983.550 950661 901418 878376 881265 903145 933825 963080 985496 1001503 
1987.889 1016216 1036110 1065604 1105730 1155096 1209551 1266338 1323034 
1991.747 1378407 1431194 1479400 1522324 1560165 1595248 1631366 1672043 
1995.604 1717747 1764588 1805377 1832062 1838850 1825740 1799288 1769678 
1999.461 1746789 1736376 1738040 1745824 1752478 1751579 1742231 1726862 
2003.319 1709697 1693797 1678862 1663029 1643772 1621222 1599239 1583110 
2007.176 1576858 1579751 1584939 1582046 1562459 1523122 1470124 1413975 
2011.034 1368901 1344704 1344305 1363649 1394362 1429432 1465403 1503505 
2014.891 1547096 1598940 1658506 1722371 1784782 1843010 1896619 1948570 
2018.749 2000795 2052892 2100035 2135062 2151578 2147482 2127504 2100634 
2022.606 2078227 2068073 2071602 2083488 2095473 2098503 2086284 2057520 
2026.463 2013843 1958922 1897484 1834125 1773803 1722637 1686778 1670147 
2030.321 1673307 1690703 1714587 1735744 1749384 1756337 1764687 1783718 
2034.178 1820117 1873890 1937454 1999430 2049030 2081790 2100268 2112754 
2038.036 2129035 2155074 2192537 2237996 2286691 2335292 2384431 2435508 
2041.893 2490557 2547312 2600208 2639977 2659245 2654845 2629609 2591642 
2045.750 2550078 2513685 2485658 2465164 2448570 2431943 2412517 2389495 
2049.608 2362975 2332427 2296951 2255648 2208522 2157971 2108092 2063911 
2053.465 2029389 2005189 1988878 1976562 1964480 1951266 1938486 1929333 
2057.323 1927170 1932795 1944277 1957723 1969373 1977395 1982587 1987247 
2061.180 1994437 2005755 2020900 2038011 2055522 2072501 2089680 2108092 
2065.038 2127504 2145351 2158105 2161068 2152044 2131899 2104463 2075364 
2068.895 2048831 2026826 2007818 1989078 1967476 1941714 1913325 1884838 
2072.752 1858483 1835057 1812531 1787843 1758765 1724434 1686446 1648062 
2076.610 1611744 1578787 1548061 1517170 1484055 1448448 1412113 1377543 
2080.467 1347063 1321771 1300966 1283685 1269595 1260091 1257898 1265807 
2084.325 1284217 1310870 1340516 1366375 1382296 1385387 1375283 1354409 
2088.182 1325925 1292292 1254575 1213305 1169847 1126625 1087261 1055673 
2092.040 1034018 1022127 1017279 1015286 1013492 1010503 1007647 1007249 
2095.897 1010802 1017976 1026379 1032457 1033818 1029866 1022758 1015253 
2099.754 1009806 1007315 1006850 1007348 1008843 1012795 1022659 1041258 
2103.612 1069158 1103438 1138552 1168285 1189183 1201211 1208687 1218389 
2107.469 1236166 1265042 1303758 1348227 1393465 1435682 1473482 1507594 
2111.327 1539182 1569210 1596745 1620590 1639980 1655546 1670347 1687710 
2115.184 1710562 1740002 1775134 1814028 1854756 1897118 1942513 1992906 
2119.042 2049696 2112454 2178584 2245057 2308676 2368106 2423613 2476794 
2122.899 2528215 2577409 2621776 2658112 2684016 2699052 2704153 2701753 
2126.756 2693451 2679882 2659745 2631509 2593809 2546979 2493323 2435275 
2130.614 2375602 2316004 2256648 2197766 2140423 2086351 2038211 1998065 
2134.471 1965678 1938020 1911062 1881444 1848367 1814261 1784416 1763656 
2138.329 1753742 1751979 1751646 1745857 1729490 1702346 1668817 1635756 
2142.186 1609781 1594051 1587367 1586502 1587533 1588298 1589296 1592189 
2146.043 1597277 1602931 1604693 1598275 1580450 1552250 1518367 1484188 
2149.901 1454432 1430330 1409587 1389343 1367338 1344404 1323732 1309507 
2153.758 1303259 1302129 1299371 1288005 1264278 1230783 1197490 1178950 
2157.616 1188818 1233441 1310571 1410185 1517569 1619892 1708100 1779459 
2161.473 1833892 1875221 1907268 1935524 1965845 2003990 2054257 2116816 
2165.331 2187542 2257847 2319002 2363975 2390894 2403488 2408319 2411784 
2169.188 2416982 2422247 2422646 2413584 2392827 2363009 2330295 2301880 
2173.045 2282761 2273668 2271769 2272402 2271236 2266174 2257147 2244891 
2176.903 2228471 2205458 2171990 2126405 2070736 2011680 1959787 1924940 
2180.760 1913991 1927503 1961118 2005987 2054157 2100468 2142421 2180515 
2184.618 2215749 2247488 2274734 2295851 2310908 2322200 2332527 2346818 
2188.475 2367606 2395958 2431643 2474028 2523616 2581409 2647844 2721658 
2192.333 2797685 2868622 2926461 2965292 2983974 2986810 2981239 2975300 
2196.190 2974766 2981439 2993449 3006928 3018539 3026947 3032920 3038058 
2200.047 3043297 3048102 3050438 3048302 3040928 3029183 3015470 3002658 
2203.905 2992115 2983807 2977068 2970429 2964157 2959387 2957685 2960354 
2207.762 2967493 2977202 2987110 2995985 3002925 3009597 3017305 3027248 
2211.620 3038158 3048402 3055142 3057311 3056010 3054108 3055176 3061315 
2215.477 3072361 3085775 3098623 3108468 3115109 3120115 3125655 3133164 
2219.334 3141274 3147314 3148316 3142675 3131395 3118479 3108601 3105164 
2223.192 3108902 3116677 3123852 3125655 3119848 3106766 3089146 3069858 
2227.049 3051405 3034355 3018472 3003125 2988512 2975634 2965492 2958186 
2230.907 2952315 2945943 2937369 2926761 2916454 2910149 2911283 2921291 
2234.764 2937836 2956318 2971931 2981639 2986743 2991781 3002991 3026113 
2238.622 3062650 3110136 3162133 3211399 3251757 3279800 3295625 3301468 
2242.479 3300600 3296426 3292487 3290984 3294356 3304005 3320098 3340365 
2246.336 3360867 3376828 3384409 3382338 3372588 3359932 3349647 3345340 
2250.194 3347878 3355491 3364206 3371252 3375626 3378665 3383641 3393225 
2254.051 3408285 3427020 3445823 3460686 3468802 3469536 3464526 3456177 
2257.909 3446992 3438376 3430961 3425451 3422412 3422879 3427889 3438041 
2261.766 3452937 3471073 3491080 3511789 3533001 3555516 3580204 3607266 
2265.624 3636133 3665537 3693841 3720575 3745740 3770372 3795708 3821412 
2269.481 3846483 3869115 3887335 3900407 3909200 3915318 3920768 3926151 
2273.338 3931300 3934577 3934343 3930197 3922908 3914750 3908297 3905556 
2277.196 3907763 3914416 3925014 3939392 3957749 3980653 4008442 4040246 
2281.053 4073658 4106069 4134702 4158419 4177990 4195788 4214891 4237542 
2284.911 4264678 4296032 4330200 4365843 4401990 4438342 4474831 4511289 
2288.768 4547549 4583143 4618103 4652899 4688803 4727289 4768827 4813082 
2292.625 4858549 4903182 4945440 4984988 5022864 5061312 5102245 5146870 
2296.483 5194953 5245154 5295463 5344166 5389957 5432598 5471653 5507020 
2300.340 5538196 5565044 5587934 5608374 5627875 5648754 5672320 5698706 
2304.198 5726874 5755278 5782744 5809238 5835902 5864649 5897160 5934141 
2308.055 5975055 6018426 6062507 6106054 6148531 6190171 6230908 6270372 
2311.913 6307552 6341374 6371063 6397189 6421569 6446924 6475914 6510220 
2315.770 6550449 6596165 6646091 6699119 6753936 6809670 6864703 6917489 
2319.627 6966274 7009541 7047156 7079756 7108788 7135396 7159244 7178748 
2323.485 7191145 7193773 7185924 7168879 7147219 7126066 7110842 7105251 
2327.342 7110067 7123641 7142470 7162647 7181039 7195323 7204721 7209135 
2331.200 7208595 7203913 7196535 7188820 7183464 7183566 7191145 7206877 
2335.057 7229382 7256672 7286187 7316648 7348392 7382700 7421223 7464738 
2338.915 7512573 7562268 7611091 7656345 7696377 7730611 7759045 7781072 
2342.772 7794903 7797467 7785491 7756347 7709699 7648758 7579733 7511966 
2346.629 7455704 7420616 7415055 7443906 7509303 7609945 7741910 7898750 
2350.487 8071982 8253490 8435312 8611192 8777711 8933606 9079034 9215034 
2354.344 9342579 9462643 9576272 9684949 9790536 9894894 9999854 10106569 
2358.202 10215685 10328153 10444893 10567639 10697416 10833822 10974043 
2361.577 11112507 11242379 11356508 11450255 11522382 11575328 11613986 
2364.952 11644106 11670484 11695841 11720656 11743872 11763652 11777678 
2368.327 11783431 11777984 11758443 11722052 11667455 11594998 11507411 
2371.703 11409299 11305834 11202394 11102956 11011051 10929291 10860491 
2375.078 10807937 10774818 10763711 10775905 10810859 10866979 10941762 
2378.453 11033583 11141947 11267475 11410931 11572470 11750613 11941839 
2381.828 12141430 12343736 12543784 12737408 12921082 13092130 13248044 
2385.204 13386279 13504801 13602500 13678781 13734350 13769953 13786335 
2388.579 13783496 13761333 13719953 13659872 13582808 13491265 13387646 
2391.954 13273802 13150732 13018376 12876846 12727172 12571820 12415092 
2395.329 12261726 12116489 11983392 11864910 11762903 11678653 11613986 
2398.705 11570972 11551610 11556919 11586558 11638525 11710070 11798140 
2402.080 11900632 12016467 12145348 12287731 12443187 12610977 12790024 
2405.455 12979627 13180036 13391986 13617270 13857414 14112854 14383857 
2408.830 14669800 14970302 15284876 15613486 15954994 16307091 16665088 
2412.206 17023068 17373654 17709440 18024278 18313148 18572570 18799902 
2415.581 18993012 19149778 19269018 19350666 19396258 19408524 19391616 
2418.956 19349902 19287272 19206606 19110132 18999276 18875026 18738596 
2422.331 18591592 18435892 18273958 18109320 17945988 17788828 17642938 
2425.707 17513586 17404864 17320306 17261758 17230626 17227800 17254346 
2429.082 17311134 17398658 17516520 17662744 17834186 18027422 18239192 
2432.457 18467800 18713168 18976500 19259562 19563500 19888774 20235154 
2435.832 20602136 20989668 21398846 21831092 22288428 22771770 23281658 
2439.208 23817698 24379560 24967596 25582962 26227534 26903308 27611772 
2442.583 28353612 29128858 29937190 30777866 31650464 32553352 33483960 
2445.958 34438376 35412004 36399960 37398620 38405700 39420056 40440968 
2449.333 41466764 42493856 43517048 44529988 45526792 46502172 47452324 
2452.708 48373704 49262228 50112636 50917280 51666880 52351600 52960744 
2456.084 53483000 53908340 54227020 54429560 54509076 54460696 54282208 
2459.459 53973732 53537008 52974856 52290304 51487180 50570720 49547320 
2462.834 48426636 47220128 45940688 44602652 43219416 41804748 40372420 
2466.209 38935380 37507336 36102376 34732956 33411420 32147910 30950188 
2469.585 29824392 28774394 27802692 26910498 26097430 25361714 24699240 
2472.960 24103968 23568346 23083416 22641092 22234230 21857156 21505856 
2476.335 21177526 20869780 20580666 20308132 20050652 19806956 19575942 
2479.710 19356382 19146662 18944312 18747140 18553448 18362746 18176928 
2483.086 17998824 17832496 17680276 17543808 17421904 17311754 17210666 
2486.461 17116012 17027202 16944888 16870754 16806274 16752584 16709952 
2489.836 16678067 16656583 16645463 16644774 16654415 16673248 16699690 
2493.211 16731508 16766874 16804552 16844850 16889216 16938824 16994676 
2496.587 17056322 17122424 17190844 17259140 17325478 17388242 17446530 
2499.962 17499306 17545740 17585624 17619058 17647354 17672720 17697810 
2503.337 17725040 17755896 17790758 17828974 17869782 17912320 17956174 
2506.712 18001138 18046556 18091320 18133120 18169018 18196174 18212276 
2510.088 18216284 18207646 18187260 18155232 18111842 18057124 17990950 
2513.463 17913252 17824660 17725832 17618022 17502480 17380758 17254862 
2516.838 17127490 17001772 16881260 16769079 16666980 16575165 16492214 
2520.213 16415918 16344145 16275890 16211396 16152725 16102312 16062116 
2523.589 16033236 16015256 16006559 16004840 16007727 16013227 16019760 
2526.964 16026637 16034199 16043378 16055962 16074322 16100317 16135288 
2530.339 16179308 16230829 16287519 16346725 16406387 16465850 16525220 
2533.714 16586008 16649319 16715806 16785576 16858112 16933036 17010146 
2537.090 17089820 17172644 17259140 17349272 17442390 17538082 17635656 
2540.465 17734944 17836188 17939114 18043102 18146732 18248350 18346880 
2543.840 18442080 18535018 18628044 18723202 18821770 18923372 19026208 
2547.215 19127512 19224580 19316024 19401906 19483476 19561974 19638650 
2550.591 19713398 19785454 19853638 19917150 19975950 20030908 20083134 
2553.966 20133558 20182636 20230260 20275876 20318616 20357714 20392474 
2557.341 20421784 20444532 20459086 20463740 20457384 20439324 20409422 
2560.716 20368098 20315838 20253310 20180658 20098332 20007350 19909068 
2564.092 19805742 19700014 19594280 19490996 19392032 19298426 19211454 
2567.467 19132050 19060864 18998516 18945142 18900392 18863674 18834504 
2570.842 18812566 18798380 18792360 18795336 18808034 18830178 18861390 
2574.217 18900252 18945764 18996682 19051828 19110338 19171110 19233482 
2577.593 19296764 19360712 19425572 19492174 19561282 19633452 19708962 
2580.968 19787812 19869800 19955378 20045412 20140880 20242758 20351014 
2584.343 20464364 20580980 20697902 20813430 20926556 21037868 21148582 
2587.718 21259986 21372428 21485038 21596112 21703346 21805204 21900990 
2591.094 21991116 22076798 22159290 22239426 22318006 22395310 22472312 
2594.469 22550342 22630970 22716078 22806514 22902486 23003544 23108856 
2597.844 23218284 23332072 23451696 23578840 23714874 23860436 24015642 
2601.219 24179382 24350614 24528186 24711656 24900746 25095396 25295540 
2604.594 25501188 25712206 25928606 26150494 26377568 26609620 26845464 
2607.970 27083762 27322298 27559092 27792380 28020488 28241894 28454992 
2611.345 28657470 28846658 29020128 29175172 29309708 29422766 29513614 
2614.720 29582492 29629526 29655282 29660922 29647724 29618388 29575396 
2618.095 29522198 29461876 29396706 29328638 29259200 29189204 29119858 
2621.471 29051976 28986584 28924248 28865460 28810506 28759630 28714070 
2624.846 28675274 28645578 28627492 28622714 28632376 28655948 28692334 
2628.221 28739522 28796024 28860504 28932712 29012336 29099414 29193528 
2631.596 29293898 29399684 29509962 29624276 29742488 29864638 29990760 
2634.972 30121006 30255376 30393410 30535362 30681418 30831398 30985558 
2638.347 31143226 31303514 31464718 31625730 31784986 31941802 32095824 
2641.722 32247398 32396812 32544210 32689690 32832752 32972828 33109582 
2645.097 33242912 33372954 33500708 33627680 33755364 33886140 34021460 
2648.473 34162812 34310920 34465492 34626292 34792180 34962480 35137296 
2651.848 35316496 35501200 35692460 35891432 36099064 36316020 36542524 
2655.223 36779136 37025652 37282060 37547836 37822044 38103776 38391588 
2658.598 38684332 38981264 39281480 39584884 39890712 40198648 40507676 
2661.974 40817536 41127476 41437680 41748316 42059944 42372928 42687196 
2665.349 43002428 43318032 43633648 43949488 44266188 44585060 44907772 
2668.724 45235796 45570140 45911516 46260168 46615516 46977280 47344232 
2672.099 47715220 48088640 48462528 48835148 49204560 49569156 49927000 
2675.475 50276624 50616136 50944216 51259720 51562544 51853588 52135684 
2678.850 52412272 52687804 52967220 53254908 53555148 53871692 54207612 
2682.225 54565844 54948736 55357976 55794612 56258732 56749856 57266936 
2685.600 57808972 58374956 58963728 59574356 60205784 60856240 61524276 
2688.976 62208328 62907284 63620532 64347744 65089336 65845088 66615312 
2692.351 67400504 68200672 69016768 69849120 70698464 71564432 72446432 
2695.726 73343048 74252440 75172768 76103144 77042520 77990240 78945792 
2699.101 79908392 80876680 81849576 82825976 83805416 84787640 85771808 
2702.477 86755616 87735544 88706384 89661800 90594952 91499440 92369080 
2705.852 93198056 93980144 94708792 95377040 95978248 96507128 96959720 
2709.227 97333840 97628992 97845152 97982888 98042976 98026368 97935144 
2712.602 97771736 97538976 97238912 96872904 96440304 95940064 95370520 
2715.978 94731416 94023912 93251320 92418232 91529544 90590424 89606040 
2719.353 88581504 87522904 86437552 85333864 84221752 83110704 82009904 
2722.728 80927976 79871904 78848008 77861944 76918544 76021712 75175136 
2726.103 74380816 73640664 72955392 72325824 71752832 71236840 70778128 
2729.479 70376472 70031200 69741136 69504736 69320848 69188408 69106624 
2732.854 69074648 69091160 69153520 69259056 69404000 69584728 69798024 
2736.229 70040856 70310544 70603680 70916408 71243320 71579168 71917144 
2739.604 72251432 72576504 72887232 73179840 73451216 73699320 73923328 
2742.979 74124536 74305520 74470016 74622128 74765968 74904568 75040264 
2746.355 75174464 75308704 75444648 75584096 75728960 75880656 76039712 
2749.730 76205960 76378608 76557560 76743120 76937648 77144496 77367992 
2753.105 77612880 77884464 78186400 78523088 78897632 79312896 79770688 
2756.480 80271896 80815528 81399096 82018632 82668584 83342360 84032776 
2759.856 84731336 85428688 86115280 86780336 87413440 88005296 88546808 
2763.231 89029696 89447768 89794560 90065400 90256976 90368256 90400488 
2766.606 90357360 90245184 90071272 89843456 89570568 89260488 88921840 
2769.981 88563464 88193736 87821392 87454280 87098088 86757352 86434640 
2773.357 86131120 85847224 85583080 85338304 85111952 84902888 84708376 
2776.732 84524784 84347272 84170344 83986696 83788464 83567216 83313648 
2780.107 83019600 82678160 82285296 81840768 81347784 80813024 80244944 
2783.482 79653128 79047384 78436080 77826824 77226144 76638704 76068248 
2786.858 75516712 74984584 74471272 73975536 73496344 73033320 72586688 
2790.233 72157800 71747784 71357808 70987952 70637792 70306192 69991768 
2793.608 69692904 69407648 69133856 68868736 68608976 68350960 68090664 
2796.983 67824704 67550008 67264120 66964724 66649736 66317216 65965288 
2800.359 65592564 65198400 64782904 64346440 63889452 63412472 62915600 
2803.734 62399096 61863608 61310996 60744072 60166736 59583816 59000048 
2807.109 58420400 57849628 57292076 56752612 56235800 55746312 55287896 
2810.484 54863572 54475272 54123568 53808304 53528876 53284348 53073952 
2813.860 52896368 52750132 52632968 52542312 52475420 52430028 52405320 
2817.235 52401504 52419940 52463008 52533376 52633272 52764348 52927768 
2820.610 53123488 53351480 53610664 53899640 54216320 54558328 54923052 
2823.985 55307392 55708456 56122900 56546792 56975296 57402788 57822484 
2827.361 58227320 58609968 58963308 59281164 59557784 59788416 59969524 
2830.736 60098388 60173360 60194784 60164108 60084084 59958344 59791876 
2834.111 59589748 59357816 59102544 58830688 58548804 58263540 57979492 
2837.486 57699896 57426084 57157584 56893440 56632288 56373480 56117884 
2840.862 55866844 55622916 55388916 55168204 54963740 54779252 54618520 
2844.237 54485524 54384832 54320092 54293960 54306912 54356292 54436056 
2847.612 54535788 54641100 54735392 54799176 54814700 54766552 54644032 
2850.987 54443308 54167108 53825332 53431696 53003828 52560488 52119208 
2854.363 51696136 51305248 50956400 50656680 50409484 50214836 50069276 
2857.738 49966220 49897676 49853784 49824720 49801124 49774628 49738584 
2861.113 49687912 49619412 49532352 49427604 49308400 49178732 49043980 
2864.488 48909420 48779832 48659288 48551080 48457044 48378704 48316780 
2867.864 48271564 48243204 48232204 48238352 48261824 48302448 48359668 
2871.239 48431928 48516880 48611552 48712772 48817944 48925180 49034780 
2874.614 49148416 49269244 49401280 49548248 49713136 49897936 50103300 
2877.989 50328856 50573396 50835176 51112468 51402696 51703976 52014052 
2881.365 52330972 52653468 52980172 53309520 53640204 53969868 54296436 
2884.740 54617920 54932268 55238376 55535552 55823096 56100388 56366240 
2888.115 56619036 56857368 57080488 57288672 57483496 57667276 57843040 
2891.490 58013268 58180148 58345128 58508880 58672164 58835660 58999976 
2894.865 59165872 59334072 59505228 59680628 59861772 60051208 60251992 
2898.241 60466808 60697960 60945864 61209696 61486864 61773984 62068024 
2901.616 62366276 62666840 62968836 63271656 63574804 63877748 64180316 
2904.991 64482756 64785832 65090724 65398464 65710344 66026500 66346980 
2908.366 66670984 66998088 67327712 67659960 67994904 68332160 68670336 
2911.742 69007448 69339504 69661544 69966424 70246584 70492680 70695776 
2915.117 70847824 70942896 70978240 70955176 70879144 70758824 70604312 
2918.492 70426736 70236112 70040272 69845072 69653336 69466280 69283152 
2921.867 69102112 68921232 68737984 68550896 68358256 68159120 67952704 
2925.243 67738112 67513976 67278968 67031608 66770860 66496708 66210232 
2928.618 65913804 65610944 65306060 65004280 64710944 64431712 64172096 
2931.993 63937128 63731104 63557392 63418148 63314936 63248628 63220108 
2935.368 63230380 63280248 63370028 63499100 63664840 63863276 64088560 
2938.744 64334756 64595544 64866536 65144308 65427428 65715200 66007404 
2942.119 66303052 66599748 66892476 67173560 67432776 67657136 67832176 
2945.494 67944800 67984632 67946160 67830904 67647336 67410136 67136400 
2948.869 66844164 66548460 66257968 65974816 65693812 65404320 65091572 
2952.245 64740212 64337060 63873024 63344836 62755808 62115116 61435788 
2955.620 60732904 60021988 59315728 58624228 57954652 57310944 56695292 
2958.995 56108536 55550540 55020564 54517456 54039584 53585324 53153596 
2962.370 52743812 52356500 51993100 51655380 51345520 51065248 50816220 
2965.746 50599940 50417336 50269332 50156148 50076604 50027672 50003544 
2969.121 49997036 49998896 49999712 49991532 49968116 49926148 49865340 
2972.496 49787856 49698312 49602808 49509104 49425600 49359776 49317644 
2975.871 49301200 49307548 49326400 49342140 49334124 49278632 49154612 
2979.247 48945208 48641016 48241868 47756680 47202068 46598064 45967796 
2982.622 45333252 44712340 44119344 43563824 43050572 42581636 42157052 
2985.997 41776876 41442124 41155164 40918812 40734632 40600000 40505344 
2989.372 40431224 40350604 40229072 40029700 39722432 39287320 38720808 
2992.748 38036608 37264588 36445576 35620988 34829948 34101808 33451892 
2996.123 32884754 32394528 31969872 31596508 31261210 30952856 30662856 
2999.498 30385058 30115500 29851540 29591536 29335054 29081948 28832850 
3002.873 28587926 28347846 28113202 27885042 27664914 27454568 27256214 
3006.249 27071878 26902884 26749498 26611628 26487890 26376934 26277410 
3009.624 26188044 26108022 26036282 25972010 25914326 25862486 25816174 
3012.999 25775104 25739628 25709956 25686406 25669144 25658178 25654064 
3016.374 25657440 25669638 25691608 25724056 25766070 25815400 25868464 
3019.750 25920516 25966488 26002510 26025304 26033114 26025446 26002332 
3023.125 25965010 25914888 25854468 25786778 25715582 25644998 25578744 
3026.500 25520058 25470902 25431690 25402288 25380928 25365928 25355004 
3029.875 25345590 25335370 25321882 25302950 25277348 25244336 25204586 
3033.250 25159360 25110666 25060992 25012520 24967632 24928328 24896360 
3036.626 24873096 24859378 24855764 24861764 24876920 24899974 24929802 
3040.001 24965560 25006414 25052146 25102556 25157500 25216770 25280018 
3043.376 25346716 25416092 25487098 25558292 25628126 25694982 25757560 
3046.751 25815260 25868394 25917982 25965396 26011620 26057284 26101830 
3050.127 26143878 26181886 26214580 26241226 26261958 26277128 26287160 
3053.502 26292124 26291738 26285578 26273890 26257558 26238584 26219474 
3056.877 26202720 26190366 26183398 26181498 26183892 26189242 26196808 
3060.252 26205642 26215708 26227040 26239854 26254248 26270582 26289238 
3063.628 26310958 26336270 26365668 26399222 26436652 26476974 26519554 
3067.003 26563546 26608740 26655314 26703936 26755170 26809656 26867564 
3070.378 26929006 26993842 27061756 27132186 27204954 27279604 27355890 
3073.753 27433886 27513798 27596164 27681794 27770938 27863916 27960410 
3077.129 28059792 28160926 28263004 28365178 28466562 28566588 28664550 
3080.504 28759984 28852216 28941000 29026398 29108556 29188176 29265472 
3083.879 29340974 29414682 29486982 29558762 29631122 29706086 29785282 
3087.254 29870140 29960868 30056482 30155206 30255020 30354038 30451978 
3090.630 30549334 30647602 30748344 30852954 30961896 31074528 31189468 
3094.005 31305224 31420298 31533762 31645224 31754970 31863920 31973508 
3097.380 32085224 32201040 32321886 32448154 32579138 32713734 32849692 
3100.755 32985304 33119164 33250816 33380326 33508368 33635232 33761096 
3104.131 33885528 34008488 34129480 34249032 34367900 34487336 34608104 
3107.506 34731016 34855652 34981868 35108916 35236428 35364192 35492104 
3110.881 35620020 35748148 35876460 36005532 36135720 36268144 36403528 
3114.256 36542340 36684300 36828252 36972400 37114716 37253976 37389160 
3117.632 37520848 37649652 37776684 37902740 38028472 38153948 38279140 
3121.007 38404328 38529408 38654956 38780656 38906276 39030956 39154152 
3124.382 39274844 39392848 39508124 39621000 39731944 39841608 39950432 
3127.757 40059168 40168588 40279092 40391368 40505344 40620264 40734776 
3131.133 40847276 40956460 41061448 41162448 41260488 41356800 41452916 
3134.508 41549636 41647216 41745400 41843496 41940996 42037604 42133028 
3137.883 42227344 42320620 42412928 42503872 42593440 42681128 42766640 
3141.258 42849536 42929596 43007108 43082552 43156980 43232192 43309792 
3144.634 43390924 43476324 43565288 43656324 43747344 43836256 43921552 
3148.009 44002620 44079736 44153968 44226308 44297852 44369664 44441888 
3151.384 44514940 44588440 44662248 44735884 44808724 44880692 44951832 
3154.759 45022648 45094028 45166852 45241604 45318284 45396000 45473700 
3158.135 45550452 45625896 45700724 45776268 45854144 45935492 46020652 
3161.510 46109004 46199208 46289912 46380416 46470824 46562176 46655724 
3164.885 46752800 46853732 46957864 47063608 47168712 47270704 47367324 
3168.260 47457236 47539556 47614420 47682824 47745772 47804764 47860512 
3171.635 47912972 47961628 48005000 48042044 48071800 48094824 48111628 
3175.011 48124064 48133616 48141280 48147420 48151716 48154084 48155048 
3178.386 48155676 48157308 48161788 48170040 48182000 48196844 48213060 
3181.761 48229612 48245792 48262160 48279452 48299004 48321928 48348552 
3185.136 48378924 48412928 48450308 48491096 48535588 48583980 48636384 
3188.512 48692496 48751692 48813416 48877308 48942760 49009776 49078404 
3191.887 49148488 49220108 49293108 49367568 49443272 49519948 49596940 
3195.262 49673424 49748208 49820892 49891244 49960120 50028712 50098764 
3198.637 50171284 50246676 50324540 50404052 50484212 50564612 50645140 
3202.013 50726052 50807988 50890716 50973804 51057048 51140236 51224116 
3205.388 51310060 51399676 51493448 51591384 51691360 51790572 51886448 
3208.763 51977340 52062984 52145208 52226476 52308880 52393732 52480616 
3212.138 52568156 52654328 52737264 52816548 52892552 52966696 53040704 
3215.514 53116372 53194568 53275844 53359572 53444664 53529364 53611448 
3218.889 53688532 53759252 53822780 53879644 53931600 53980936 54029900 
3222.264 54079548 54130284 54181184 54230736 54277588 54320880 54360120 
3225.639 54395384 54426744 54454388 54478204 54498072 54514676 54528540 
3229.015 54540296 54550440 54558440 54563700 54564904 54561900 54554724 
3232.390 54545180 54534776 54525344 54517268 54509756 54500964 54488680 
3235.765 54471324 54448528 54420996 54390428 54358052 54324524 54289488 
3239.140 54252172 54211552 54167444 54120752 54072604 54024384 53977296 
3242.516 53930960 53885196 53838836 53791580 53743276 53694644 53646468 
3245.891 53599492 53553840 53509384 53465872 53422896 53380812 53340428 
3249.266 53302480 53268052 53237676 53211192 53188276 53167940 53149180 
3252.641 53130716 53111656 53091324 53069796 53047968 53027192 53009708 
3256.017 52997316 52991328 52991964 52997880 53007388 53017868 53027452 
3259.392 53034640 53039172 53041344 53041980 53042164 53043028 53045724 
3262.767 53051076 53060284 53073504 53090388 53109596 53129480 53147868 
3266.142 53163408 53175728 53186140 53196704 53209772 53227976 53252356 
3269.518 53283112 53319112 53358972 53400748 53443280 53484840 53525092 
3272.893 53563280 53599416 53633944 53667800 53701692 53736864 53773840 
3276.268 53813072 53854100 53896900 53941392 53988024 54037216 54089380 
3279.643 54144328 54200892 54257276 54311644 54362560 54409732 54454236 
3283.019 54497808 54542588 54589888 54640312 54693112 54746856 54800268 
3286.394 54851844 54900756 54946556 54988936 55027632 55062912 55095224 
3289.769 55125808 55155864 55186944 55219980 55255536 55293128 55332532 
3293.144 55373292 55415416 55459308 55505428 55553740 55603752 55653952 
3296.520 55702732 55748536 55790732 55829164 55864132 55896464 55925972 
3299.895 55952392 55975308 55994380 56010404 56024500 56038408 56053452 
3303.270 56070036 56087532 56104760 56120372 56133304 56143712 56151892 
3306.645 56158644 56164260 56168636 56171200 56171200 56168108 56161848 
3310.021 56152572 56140320 56124896 56105932 56082668 56055376 56025028 
3313.396 55993552 55963060 55935284 55910860 55889076 55867972 55845628 
3316.771 55820456 55791824 55760480 55727368 55693688 55659564 55625068 
3320.146 55588948 55550500 55508668 55463336 55414624 55362908 55308896 
3323.521 55252788 55195708 55138520 55081832 55026392 54972048 54918092 
3326.897 54863048 54805564 54744484 54679660 54611716 54541684 54470464 
3330.272 54398424 54325012 54248908 54169020 54084612 53995304 53901548 
3333.647 53803844 53702180 53596644 53486372 53371560 53252284 53129516 
3337.022 53005064 52880164 52756044 52633308 52511724 52390704 52269792 
3340.398 52148796 52027612 51906128 51783928 51660156 51533816 51404072 
3343.773 51270348 51132896 50991984 50848180 50701700 50552664 50401004 
3347.148 50247120 50091588 49935736 49780276 49626136 49472940 49320096 
3350.523 49166300 49010928 48854204 48697276 48542036 48390480 48243572 
3353.899 48101412 47962884 47826108 47689372 47551536 47412556 47273032 
3357.274 47134328 46997552 46863884 46733724 46607176 46483732 46362496 
3360.649 46242364 46121896 46000244 45876752 45751672 45626264 45501844 
3364.024 45380148 45262236 45148472 45038268 44930480 44823892 44717812 
3367.400 44611940 44506756 44402400 44299540 44197840 44097120 43996604 
3370.775 43895968 43794656 43692524 43589504 43485588 43380892 43275456 
3374.150 43169864 43065028 42961600 42860256 42760428 42661756 42562520 
3377.525 42461812 42359048 42254332 42149060 42045016 41943624 41846196 
3380.901 41752180 41660924 41570600 41479416 41385664 41288616 41187440 
3384.276 41082316 40973788 40862568 40750132 40637800 40526840 40418748 
3387.651 40313848 40212168 40112876 40014912 39916900 39817312 39714768 
3391.026 39608292 39497200 39381748 39262692 39142188 39022116 38904428 
3394.402 38790364 38678900 38567936 38454428 38335084 38207816 38072992 
3397.777 37932460 37789728 37648600 37512104 37381720 37257008 37136444 
3401.152 37018368 36900608 36781624 36660540 36536540 36409328 36278916 
3404.527 36145836 36011036 35875632 35740884 35606924 35473372 35339212 
3407.903 35203440 35065488 34926100 34786832 34649764 34516324 34386868 
3411.278 34260324 34134676 34007448 33876820 33742152 33603728 33462164 
3414.653 33318036 33171020 33020514 32865562 32705836 32541710 32373964 
3418.028 32203182 32029398 31851620 31667746 31476046 31275134 31065168 
3421.404 30847618 30624490 30398278 30170622 29942160 29712896 29481804 
3424.779 29248106 29011238 28770746 28527062 28280898 28033318 27786126 
3428.154 27541088 27299892 27063344 26831118 26601520 26372182 26140888 
3431.529 25906800 25670234 25433660 25199880 24971914 24751116 24537478 
3434.905 24329166 24124352 23921350 23719948 23521262 23326722 23138070 
3438.280 22955894 22780150 22609326 22441782 22276116 22110896 21945564 
3441.655 21779738 21613628 21447718 21283160 21121588 20964284 20812562 
3445.030 20666140 20523310 20380842 20234808 20082370 19922110 19754662 
3448.406 19583120 19410984 19241760 19077724 18920222 18769110 18624342 
3451.781 18485884 18354036 18229102 18110840 17998410 17890394 17784788 
3455.156 17679828 17574928 17469914 17364652 17259622 17154408 17048466 
3458.531 16940928 16831692 16721178 16610449 16500646 16392382 16285798 
3461.906 16179824 16073739 15966784 15859755 15754057 15651545 15553658 
3465.282 15460772 15372060 15285597 15199288 15111213 15020308 14926336 
3468.657 14829608 14730330 14629326 14527011 14424650 14323856 14225925 
3472.032 14132365 14043410 13958443 13875784 13793073 13709147 13622980 
3475.407 13535496 13448168 13363248 13282445 13206780 13136217 13069934 
3478.783 13006803 12945114 12882955 12818178 12748395 12671868 12587782 
3482.158 12496791 12401317 12304536 12210195 12121020 12038234 11961083 
3485.533 11887453 11814618 11739753 11660784 11576962 11488155 11394808 
3488.908 11298046 11199096 11099319 11000346 10903536 10810485 10721461 
3492.284 10636903 10555892 10477749 10401078 10325133 10248761 10170943 
3495.659 10090799 10007720 9921234 9832256 9742721 9655677 9574477 9502300 
3499.516 9440464 9388590 9344001 9302260 9258425 9207588 9145421 9069831 
3503.374 8980250 8878376 8767501 8652934 8540696 8436190 8344138 8265986 
3507.231 8200881 8144698 8091628 8035697 7972246 7899087 7816965 7728553 
3511.089 7637124 7545949 7457289 7371982 7290332 7212369 7138697 7069585 
3514.946 7005669 6946948 6892913 6842622 6795029 6749461 6705714 6664360 
3518.803 6626644 6593541 6566023 6544125 6527071 6513112 6499121 6482069 
3522.661 6458089 6424763 6380578 6326177 6264018 6197297 6129712 6063515 
3526.518 5999545 5936895 5874053 5809238 5741344 5670540 5597634 5523967 
3530.376 5451118 5380362 5313742 5253136 5201425 5160617 5132184 5114717 
3534.233 5104089 5094299 5077839 5048272 5002719 4941587 4869573 4792780 
3538.091 4718680 4652598 4597877 4555820 4526590 4509414 4503823 4509113 
3541.948 4524547 4547951 4576446 4605612 4629757 4643153 4639670 4613783 
3545.805 4561914 4482598 4378226 4254807 4122593 3993260 3877974 3785380 
3549.663 3718770 3676063 3650501 3632491 3612244 3582142 3538345 3481494 
3553.520 3414664 3342569 3270352 3202053 3140906 3089246 3048202 3018272 
3557.378 2998120 2985142 2975500 2965392 2951647 2933066 2910683 2887701 
3561.235 2868522 2858516 2862986 2886533 2932966 3004159 3098623 3210632 
3565.093 3328913 3436706 3512758 3538479 3499464 3393558 3229959 3028249 
3568.950 2812058 2601642 2413051 2254116 2126139 2026426 1949602 1890229 
3572.807 1843242 1804712 1771541 1741832 1713988 1687543 1662497 1639414 
3576.665 1618861 1600935 1585371 1570972 1555775 1538650 1518700 1496157 
3580.522 1472385 1449412 1430463 1418994 1419626 1437444 1476907 1541743 
3584.380 1632962 1747088 1874322 1999962 2103830 2165197 2168494 2107326 
3588.237 1988612 1829700 1655379 1490305 1352980 1254608 1197855 1178219 
3592.094 1185761 1208288 1233807 1251750 1254575 1239289 1205796 1156923 
3595.952 1097592 1034084 972711 919182 877812 849592 833125 823199 813771 
3600.292 798369 773108 737327 695012 653165 619352 601534 605150 633421 
3604.631 686582 762586 857028 962117 1067763 1161740 1230849 1264976 1260025 
3608.971 1220648 1158617 1089885 1030098 988385 966534 958730 955376 946012 
3613.310 924661 892387 856198 827515 816062 828478 864631 918750 979419 
3617.650 1031859 1061818 1056570 1009839 922635 803680 666704 527980 402466 
3621.990 301160 230210 192054 185888 210352 265219 351992 474141 633885 
3626.329 829673 1050624 1273516 1464805 1583476 1597809 1500147 1313097 
3630.187 1078990 842686 638265 481870 373315 302884 256035 218474 179855 
3634.526 136467 89835 44534 4870 -26870 -51818 -71961 -90015 -107307 -123506 
3639.348 -136358 -144274 -146030 -142751 -136457 -128673 -118073 -100384 
3643.205 -67521 -9012 84433 218640 393877 603524 834420 1067697 1283220 
3647.545 1461314 1586103 1647131 1639315 1562226 1420823 1226729 998946 
3651.402 760827 539027 355806 226231 155989 140676 166563 211479 251493 
3655.742 264854 239161 174982 84466 -14512 -106314 -180708 -233929 -267905 
3660.082 -287342 -297706 -303269 -307010 -310090 -312738 -313997 -312076 
3663.939 -304527 -287872 -257805 -210151 -140896 -47577 70183 208960 361178 
3668.279 513218 646196 740281 779946 762254 700521 622603 561753 544402 
3672.618 586105 685952 828245 980581 1100681 1148950 1101744 965637 773042 
3676.958 566696 379384 226563 108593 16733 -60100 -129667 -194453 -252143 
3681.297 -298203 -329260 -344159 -344722 -332935 -309759 -273799 -221543 
3685.155 -149077 -54833 59678 186816 314688 428402 513881 561686 569019 
3689.494 539790 480543 398321 298441 186186 67433 -50062 -158252 -249791 
3693.834 -319460 -366705 -393851 -406099 -408814 -406530 -400902 -390905 
3697.691 -373789 -346410 -307143 -257242 -200944 -145400 -99854 -72723 
3701.549 -70039 -92931 -137683 -195910 -256878 -310057 -346841 -361275 
3705.406 -350416 -313831 -252639 -169348 -66660 51261 179789 311803 438253 
3709.746 548084 629107 669890 663120 607672 509469 380910 238033 96397 
3714.085 -31476 -136590 -215052 -265521 -289263 -289528 -270223 -236446 
3717.943 -191869 -140233 -83224 -21834 43374 110946 178662 242675 298971 
3722.282 344797 379152 403329 419547 429198 431851 423792 399415 354513 
3726.622 288494 206838 120724 44932 -5533 -20277 5864 72006 172861 299999 
3731.444 444488 600140 762154 926985 1088856 1236830 1354043 1420424 1417532 
3735.783 1337525 1188419 994297 786419 594632 439745 330637 268302 249670 
3740.123 271154 331301 429861 566563 736166 924960 1108853 1253312 1323134 
3744.463 1300169 1195230 1045377 894412 778452 714261 703176 736298 798568 
3748.802 872865 941263 989979 1008843 992138 938474 849260 731220 595561 
3753.142 457888 334650 238332 176242 149062 152211 177270 214761 255969 
3757.481 293103 320325 332096 323243 289787 230309 148963 55569 -35551 
3761.821 -108301 -151462 -159577 -135993 -90214 -36909 9277 39298 51062 
3766.161 51393 49770 56165 74624 102628 130766 147305 141273 107997 50366 
3770.982 -22563 -98198 -165804 -218728 -254858 -275952 -285620 -287144 
3774.840 -281713 -268700 -245685 -210548 -163220 -107142 -48869 1590 34162 
3779.179 41717 22796 -17593 -69509 -120558 -161067 -185345 -193393 -189452 
3783.519 -180344 -173620 -174481 -185113 -204024 -227736 -252010 -273203 
3787.376 -289726 -301216 -308434 -312805 -315222 -317208 -318599 -319327 
3791.234 -318169 -313003 -300488 -277309 -240519 -188756 -123704 -49896 
3795.091 24784 91790 143991 178231 197324 209325 224673 251725 295291 352656 
3799.913 415368 468337 494774 484159 436064 363068 284283 220231 184363 
3804.253 181380 206905 249604 292871 317971 310676 265915 189435 95867 1789 
3809.074 -78884 -138875 -175740 -190478 -184881 -160140 -115854 -51255 34029 
3813.414 136865 249836 359752 450458 506782 521743 501607 464290 434471 
3817.754 433012 471388 548980 653994 764710 852081 890594 864166 775664 
3822.093 644670 500778 371425 273607 214164 190032 192750 209689 228618 
3826.433 240454 240321 229381 213137 199114 194308 203225 226928 262799 
3830.772 305901 350334 391622 428336 462432 497958 539956 591679 653696 
3835.112 723686 796111 864664 922502 964608 988551 994131 983205 958332 
3839.452 921905 876284 823266 765009 703541 640721 577081 512189 444455 
3843.791 372022 294860 215756 140312 76380 31809 13585 25348 68128 141240 
3848.613 243802 375438 536871 728997 949565 1190080 1433156 1648395 1797858 
3852.953 1845771 1775167 1600303 1362552 1111710 884286 697899 554321 446810 
3857.292 367545 311638 277519 266976 281763 321552 381938 455467 533222 
3861.632 606477 669259 718509 752861 771083 772179 756180 726640 691925 
3865.971 665509 661262 689602 753558 846637 951757 1044181 1100914 1106893 
3870.311 1063844 988286 904705 832660 780709 745359 714227 673441 612682 
3874.651 531132 438452 351727 288527 262103 279111 338032 431088 544070 
3878.990 660333 761325 831399 861875 854306 819714 775531 740812 730324 
3883.330 749409 793522 847102 888801 896903 858456 777025 670952 566232 
3887.669 486779 448336 454538 498290 563777 631695 682865 703109 687910 
3892.009 641451 574360 499020 427009 367446 326725 310079 321519 363931 
3896.349 438253 542444 671682 817124 967331 1110580 1235867 1336494 1410218 
3900.688 1459452 1488909 1503039 1503405 1488543 1453102 1391371 1299903 
3904.546 1180279 1039631 888834 740514 605748 490992 399714 330903 281896 
3908.885 248642 227557 215656 211148 213137 221756 238299 264788 304177 
3913.225 358492 428899 513118 605548 697866 779448 840761 876085 884618 
3917.564 871039 842255 806369 768494 731984 697733 666074 638962 619153 
3921.904 609530 611455 623134 639228 652037 653629 639029 608037 565966 
3926.244 520781 482434 458751 454405 470891 506251 556942 617195 680177 
3930.583 738257 782867 806336 803481 772876 718111 647258 570578 498887 
3934.923 439248 395634 367877 352556 345360 342873 343603 348411 360117 
3939.262 381573 414373 457988 508175 558302 600804 627747 634649 621309 
3943.602 593073 558402 527515 509502 509071 526620 557042 592442 624130 
3947.942 644172 648652 637303 613014 579901 542477 504095 466811 432050 
3952.281 401107 375106 355110 341978 334948 332826 333655 335446 336739 
3956.621 337402 337800 339259 343006 349605 359454 372155 386614 401637 
3960.960 415832 426943 433377 433874 428435 418353 406114 394971 387509 
3965.300 386116 390494 399979 412283 425583 438286 449563 459679 468668 
3969.640 476729 483761 489632 494276 498224 502071 506616 511990 517928 
3973.979 523203 526819 527914 526819 524132 521544 520350 521246 524961 
3978.319 531165 539757 550473 562881 576716 590783 603624 613346 618323 
3982.658 617825 612284 603325 593338 584181 577280 572768 570113 568355 
3986.998 566895 565867 565734 566829 569284 572535 574991 575654 573497 
3991.338 568289 560724 552231 544070 537501 533022 530534 529970 530767 
3995.677 532326 533985 535278 535776 535112 533487 531065 528610 526719 
4000.017 525492 525127 
##END=
