
##TITLE=Z404_3_b
##JCAMP-DX=5.01  $$ Nicolet v. 1
##DATATYPE=INFRARED SPECTRUM
##ORIGIN=UniL
##OWNER=Nicolet
##LONGDATE=2011/09/21
##TIME=13:39:31
##SPECTROMETER/DATA SYSTEM=Nicolet iS5
##DATA PROCESSING=
Ratio against background
%Transmittance->Absorbance
Truncated
ElementMultiply or ElementDivide
##COMMENTS=
Number of sample scans: 32
Collection length: 51.20 sec
Sample gain: 2.0
Background collected on: Mer Sep 21 13:36:06 2011 (GMT+02:00);
Number of background scans: 32
Background gain: 2.0
Sample spacing:  1.000
Number of scan points: 12415
Resolution points: 8192
Number of FFT points: 65536
Apodization: N-B fort;
Phase correction: Mertz;
Laser frequency: 15798.0 cm-1
Number of rejected sample scans: 0
Number of rejected background scans: 0
Bench serial number: ASB1000141;
##RESOLUTION=4.000
##XUNITS=1/CM
##YUNITS=ABSORBANCE
##FIRSTX=649.893372
##LASTX=4000.122314
##FIRSTY=0.097575
##MAXX=4000.122314
##MINX=649.893372
##MAXY=0.272971
##MINY=-0.003018
##XFACTOR=1.000000
##YFACTOR=1.000000E-009
##NPOINTS=6950
##DELTAX=0.482117
##ZPD=6100
##XYDATA=(X++(Y..Y))
649.893 97575360 97250352 96957896 96695192 96448704 96204704 95960560 
653.268 95730720 95543768 95430496 95408488 95472552 95593936 95733080 
656.643 95853992 95936632 95980768 95999416 96006600 96007880 95995568 
660.018 95955104 95873488 95747736 95588320 95414440 95249280 95111872 
663.393 95011320 94948152 94914920 94897360 94871592 94802048 94639736 
666.767 94325440 93817056 93119296 92301216 91466632 90701912 90038248 
670.142 89452648 88888664 88281832 87583416 86768400 85844800 84844112 
673.517 83812248 82788040 81792248 80828224 79887360 78960064 78042744 
676.892 77139432 76258760 75409288 74594592 73815544 73072440 72368016 
680.267 71708472 71101824 70553088 70061840 69621288 69220544 68849400 
683.642 68501816 68178304 67883896 67624568 67401808 67211280 67042580 
687.016 66882892 66720360 66549272 66369296 66186228 66007560 65839148 
690.391 65684980 65546012 65422184 65312608 65217308 65134644 65061360 
693.766 64992196 64919932 64838448 64745284 64642608 64537376 64437404 
697.141 64348668 64272212 64203060 64132116 64050084 63950680 63833184 
700.516 63702328 63565604 63430764 63301868 63179716 63061348 62942488 
703.890 62819360 62689348 62551716 62406480 62254792 62098108 61940140 
707.265 61787508 61648216 61532292 61449264 61406056 61409188 61465908 
710.640 61586696 61788688 62093556 62521792 63084224 63771128 64544184 
714.015 65332636 66049032 66597976 66896148 66894488 66580980 65984188 
717.390 65163292 64203864 63207960 62279956 61533628 61076768 60993180 
720.765 61332976 62082016 63152240 64368188 65498388 66297144 66538536 
724.139 66088876 64930052 63169792 61003436 58673416 56415132 54391928 
727.514 52692744 51329188 50260440 49421808 48749468 48198440 47738524 
730.889 47351284 47022840 46736972 46477868 46232932 45995420 45765848 
734.264 45547400 45342776 45150128 44963112 44773824 44577316 44374544 
737.639 44171908 43978124 43799752 43638444 43490716 43350324 43211732 
741.013 43074172 42940384 42815568 42703136 42603092 42511252 42422172 
744.388 42330956 42235672 42138252 42041876 41948808 41859112 41770420 
747.763 41680036 41586060 41489952 41394228 41302244 41215056 41130976 
751.138 41046656 40958280 40864316 40766620 40668908 40575224 40488504 
754.513 40409512 40338132 40275056 40223144 40187344 40173348 40184800 
757.888 40222236 40283200 40364024 40462028 40577260 40712356 40870212 
761.262 41052268 41257172 41481712 41723548 41984972 42275804 42615628 
764.637 43031476 43561664 44253420 45157884 46330756 47814680 49620932 
768.012 51706960 53959512 56202008 58197884 59716444 60587472 60751196 
771.387 60293636 59431476 58467520 57677796 57249548 57214240 57442760 
774.762 57676060 57603904 56980964 55676100 53725504 51301180 48671592 
778.136 46116112 43851208 42017820 40657556 39736916 39176816 38887976 
781.511 38793552 38833768 38971224 39181968 39448756 39760412 40110116 
784.886 40497744 40929040 41414240 41964352 42588140 43291416 44078124 
788.261 44952488 45922528 47001060 48203952 49550516 51060816 52754472 
791.636 54653992 56783312 59167768 61832620 64795712 68061864 71613824 
795.010 75411176 79387168 83448912 87493920 91411376 95098544 98485160 
798.385 101546392 104324184 106923400 109515000 112301136 115459864 
801.278 119111560 123251960 127727392 132201848 136202448 139204752 
804.171 140688208 140300832 137937376 133782000 128264624 121964232 
807.063 115496608 109330200 103741776 98781344 94313864 90096008 85874360 
810.438 81485112 76879896 72136824 67407736 62878416 58707284 54990328 
813.813 51766720 49020944 46708076 44769012 43148088 41797784 40676260 
817.188 39749116 38986808 38364548 37865104 37477972 37197044 37018620 
820.563 36937476 36947040 37040052 37211448 37461032 37793708 38218928 
823.938 38747180 39386204 40139804 41005796 41975812 43034180 44157636 
827.312 45315264 46467028 47571868 48594432 49514492 50338008 51102444 
830.687 51880252 52764872 53867452 55302048 57159620 59496452 62305768 
834.062 65504244 68906480 72225880 75121992 77205560 78132736 77686856 
837.437 75812040 72648760 68488192 63735516 58801436 54035640 49707748 
840.812 45963448 42848548 40334716 38351880 36812676 35630088 34731880 
844.186 34055436 33548172 33169840 32888186 32681152 32536566 32447760 
847.561 32410596 32420340 32470360 32553744 32665968 32806702 32979548 
850.936 33189188 33439156 33728900 34054140 34409360 34792072 35204556 
854.311 35654328 36151204 36703988 37318420 37996032 38737904 39549096 
857.686 40440788 41433304 42554264 43834312 45308828 47014832 48989488 
861.060 51272360 53894872 56869340 60169552 63714796 67360216 70884224 
864.435 74027440 76517376 78101560 78613024 77985960 76276264 73643056 
867.810 70331664 66633628 62819520 59133180 55755772 52790764 50285404 
871.185 48236316 46609284 45353444 44414916 43746060 43303828 43054048 
874.560 42969904 43028952 43215792 43521372 43944428 44490088 45168104 
877.935 45988240 46954060 48056552 49268984 50547120 51827272 53032284 
881.309 54087388 54923656 55495076 55788320 55825472 55660620 55366144 
884.684 55024060 54705548 54460284 54317876 54286452 54362560 54538684 
888.059 54809780 55174600 55633272 56183156 56815408 57512808 58254072 
891.434 59014816 59771916 60506872 61203252 61845916 62420444 62911428 
894.809 63304932 63591228 63765600 63829192 63788668 63654944 63443036 
898.183 63171512 62864660 62549688 62254216 62004080 61815432 61692972 
901.558 61629920 61610332 61615372 61628700 61642908 61660320 61692512 
904.933 61756492 61873008 62062864 62345048 62738120 63257904 63916436 
908.308 64722708 65680356 66788904 68045672 69448512 70998216 72699128 
911.683 74558360 76584432 78785792 81170008 83747872 86536216 89560712 
915.058 92857968 96473648 100451736 104831480 109634656 114857896 120461320 
918.432 126358928 132416832 138426320 144115984 149171248 153235920 
921.325 155995616 157236032 156898080 155124240 152257504 148829776 
924.218 145441808 142721664 141241952 141394304 143375136 147122496 
927.110 152334000 158455360 164748032 170443408 174770832 177131216 
930.003 177193504 174885360 170383600 164017712 156213344 147397648 
932.896 137962096 128278912 118665776 109400320 100732856 92851848 85896000 
936.271 79953592 75055584 71196944 68346616 66460760 65485560 65351204 
939.646 65966672 67194216 68842448 70685712 72453592 73880832 74751952 
943.020 74912960 74310984 72990504 71085744 68782776 66284640 63790352 
946.395 61451744 59370276 57598604 56144016 54985364 54085812 53406784 
949.770 52912308 52571556 52360912 52259024 52246020 52305704 52423488 
953.145 52589324 52797800 53046132 53331960 53652392 54001908 54374016 
956.520 54762980 55165420 55581304 56012512 56460828 56926000 57404604 
959.894 57890852 58379124 58865860 59350712 59835912 60324892 60819876 
963.269 61320456 61824944 62331392 62839204 63350244 63868076 64395668 
966.644 64934096 65482056 66036648 66595888 67160144 67732840 68319784 
970.019 68926440 69556104 70210288 70888352 71590608 72319952 73081928 
973.394 73883736 74731216 75627272 76570528 77557496 78584552 79650304 
976.768 80756544 81906184 83100320 84336040 85605200 86894624 88190000 
980.143 89477568 90744832 91980456 93172432 94305632 95364664 96335184 
983.518 97208528 97983760 98669176 99279376 99830304 100337384 100813464 
986.893 101268720 101714496 102163752 102630088 103127344 103664960 
989.786 104245912 104867376 105522768 106205632 106911792 107640320 
992.678 108391416 109163680 109951984 110747088 111538152 112316152 
995.571 113075736 113815416 114535104 115233464 115905136 116543000 
998.464 117140320 117694928 118212264 118705056 119190376 119684008 
1001.356 120199568 120745760 121328696 121955152 122633432 123373432 
1004.249 124184240 125070720 126031904 127062648 128157120 129312872 
1007.142 130533952 131829232 133210720 134687168 136261568 137929920 
1010.035 139683344 141510960 143401312 145340560 147310896 149285104 
1012.927 151228304 153104000 154879248 156537072 158080992 159536496 
1015.820 160943696 162349456 163801920 165341520 167002672 168815248 
1018.713 170803248 172985360 175372048 177962976 180747936 183710992 
1021.605 186839840 190130736 193593888 197249152 201119888 205223200 
1024.498 209563248 214130064 218903040 223857664 228964304 234188992 
1027.391 239485232 244780640 249980624 254965632 259596560 263739232 
1030.284 267262880 270044960 271980224 272970752 272936320 271831072 
1033.177 269653728 266462416 262366064 257522352 252111136 246306352 
1036.070 240282192 234194048 228177872 222366176 216874432 211800912 
1038.963 207232592 203232528 199846016 197104608 195019376 193576768 
1041.856 192722032 192350016 192284240 192274224 192038752 191272976 
1044.750 189712976 187198448 183684608 179261632 174119392 168526240 
1047.643 162767824 157097664 151735648 146830992 142465200 138665472 
1050.536 135410720 132648680 130306128 128308072 126583976 125072792 
1053.429 123730848 122525568 121431976 120430016 119498680 118616088 
1056.322 117762240 116918816 116071240 115208624 114319656 113392760 
1059.215 112415600 111376600 110269736 109097984 107874600 106621056 
1062.108 105362808 104126928 102936216 101809112 100760848 99802320 98940360 
1065.483 98174136 97492736 96871000 96269136 95641512 94939248 94122880 
1068.858 93172264 92087960 90892592 89623392 88329056 87058896 85855704 
1072.234 84755504 83781224 82942832 82238360 81655664 81175512 80773984 
1075.609 80429096 80122000 79838536 79568680 79304152 79035256 78751552 
1078.984 78441480 78096720 77715304 77303376 76876024 76452328 76054984 
1082.359 75704616 75419024 75213904 75103712 75102144 75223792 75481144 
1085.735 75884160 76439608 77149992 78015656 79035488 80206568 81521688 
1089.110 82964608 84509408 86116248 87735744 89320392 90828384 92234872 
1092.485 93534672 94739080 95868944 96944264 97978904 98976232 99932176 
1095.860 100841424 101705544 102539704 103376896 104262208 105245512 
1098.753 106369216 107648264 109057824 110519200 111910512 113067008 
1101.646 113806976 113976504 113464352 112234800 110331368 107872008 
1104.540 105024080 101965256 98876072 95904648 93153912 90689536 88535344 
1107.915 86683400 85103656 83753664 82586352 81552272 80609048 79719888 
1111.290 78854360 77990360 77110152 76200944 75254920 74269584 73248904 
1114.665 72203224 71149048 70106424 69094384 68130936 67229144 66396936 
1118.041 65639080 64957492 64352780 63824320 63369492 62983820 62659032 
1121.416 62385440 62151168 61943120 61747476 61547640 61321832 61044580 
1124.791 60685236 60212408 59601568 58838352 57924508 56877840 55731700 
1128.166 54528500 53310420 52118084 50981476 49918156 48935120 48029128 
1131.542 47190912 46407588 45665868 44954512 44265196 43594080 42941560 
1134.917 42311488 41709616 41142012 40613968 40129268 39690300 39299108 
1138.292 38957704 38668792 38434840 38257788 38137416 38071980 38058560 
1141.667 38093792 38175544 38303128 38476652 38695848 38959300 39263128 
1145.042 39601832 39968880 40358128 40763852 41180916 41604072 42028040 
1148.418 42447308 42857584 43256936 43646688 44031072 44415248 44804348 
1151.793 45201456 45607088 46019956 46438560 46862148 47290988 47725540 
1155.168 48164972 48606216 49043496 49469264 49874892 50252704 50595324 
1158.543 50895524 51146016 51338212 51462820 51512064 51479756 51362748 
1161.919 51161040 50876340 50511308 50068424 49550700 48962228 48309408 
1165.294 47601740 46851516 46071792 45276504 44477972 43686844 42912956 
1168.669 42165160 41452260 40783760 40167896 39611740 39119996 38694908 
1172.044 38337148 38046916 37824828 37672776 37593284 37588624 37661140 
1175.420 37812216 38043696 38359372 38765076 39268820 39880652 40610476 
1178.795 41467240 42459220 43594816 44883668 46338240 47972988 49803424 
1182.170 51844928 54109156 56604844 59335784 62299876 65484672 68861320 
1185.545 72382384 75969328 79514592 82893376 85959040 88568136 90598016 
1188.921 91948640 92562784 92427704 91576344 90080720 88042992 85588936 
1192.296 82843336 79925992 76946072 73986776 71114392 68375904 65798700 
1195.671 63396676 61172088 59118260 57223460 55473352 53854928 52356612 
1199.046 50971228 49695232 48528216 47470912 46523672 45684784 44949844 
1202.422 44311976 43762184 43291164 42889880 42549072 42259808 42011908 
1205.797 41793660 41594080 41402032 41208936 41009916 40803236 40590320 
1209.172 40373768 40157536 39946144 39744976 39561872 39406632 39290256 
1212.547 39225048 39222072 39289932 39435224 39661656 39971716 40366676 
1215.923 40846804 41410992 42055564 42775236 43563236 44412600 45318796 
1219.298 46279592 47295348 48367964 49499820 50693248 51950564 53275580 
1222.673 54673756 56151780 57716284 59371376 61116244 62943676 64840220 
1226.048 66787280 68760064 70731144 72667672 74531688 76284872 77889096 
1229.424 79312264 80535296 81553512 82378336 83034440 83559624 84002496 
1232.799 84417048 84869856 85434496 86185664 87203504 88561232 90319472 
1236.174 92528144 95219536 98411176 102106992 106298232 110961824 116053832 
1239.549 121512840 127253544 133168336 139146288 145070704 150829392 
1242.442 156326592 161470496 166174640 170360160 173947792 176865216 
1245.335 179051392 180452704 181026800 180743568 179586224 177558400 
1248.229 174689040 171034576 166669840 161676960 156135872 150109856 
1251.122 143649984 136803168 129622328 122180120 114576856 106927896 
1254.015 99367296 92033000 85043472 78503800 72489296 67038676 62161912 
1257.390 57839104 54029976 50679356 47727460 45117664 42794904 40714356 
1260.765 38840252 37143772 35605272 34210348 32947410 31806766 30778078 
1264.140 29850298 29012690 28255790 27572084 26956152 26403270 25908206 
1267.516 25464260 25063486 24698118 24363370 24058298 23786440 23554282 
1270.891 23369520 23238696 23166030 23154008 23204826 23321582 23509824 
1274.266 23775592 24124668 24559076 25075174 25661342 26296102 26949912 
1277.641 27583064 28148694 28601126 28897156 29006810 28919714 28647100 
1281.017 28220114 27680770 27077556 26452640 25836006 25246372 24690576 
1284.392 24169608 23682962 23232020 22819994 22451412 22129234 21854960 
1287.767 21627800 21446812 21310826 21219484 21171578 21163680 21189390 
1291.142 21240432 21308078 21386384 21474178 21574694 21694324 21839490 
1294.518 22015238 22224222 22467428 22746978 23066400 23431796 23850846 
1297.893 24330146 24875658 25491562 26181886 26950794 27801458 28732406 
1301.268 29733122 30778684 31831298 32838650 33742688 34491716 35043396 
1304.643 35375480 35486816 35396796 35140460 34761992 34312712 33840896 
1308.019 33388338 32989380 32664434 32421198 32256640 32159436 32114978 
1311.394 32108952 32130644 32172140 32227308 32289940 32351654 32402598 
1314.769 32433410 32436262 32406346 32342088 32242902 32108486 31937666 
1318.144 31729624 31485558 31210546 30914288 30609096 30307812 30021010 
1321.520 29754942 29512194 29293898 29101542 28938734 28811816 28727274 
1324.895 28691132 28707556 28779280 28909160 29101648 29361394 29692212 
1328.270 30092630 30553956 31059188 31585962 32112446 32620106 33098924 
1331.645 33546202 33964488 34356780 34724200 35064012 35371312 35640952 
1335.021 35870052 36059024 36211416 36333276 36431780 36516392 36599472 
1338.396 36696344 36825872 37007724 37256824 37582768 37986340 38461628 
1341.771 38999568 39590692 40227360 40901992 41607644 42335704 43076584 
1345.146 43823132 44571916 45324496 46084204 46850964 47612572 48342036 
1348.521 48992420 49503200 49813124 49865636 49623608 49076848 48242572 
1351.897 47164136 45902496 44533920 43135572 41778740 40528076 39430216 
1355.272 38514272 37792296 37260112 36902992 36701248 36637180 36695948 
1358.647 36865984 37137452 37498960 37937088 38439584 38997432 39608948 
1362.022 40279708 41019308 41834632 42722808 43667392 44639588 45601640 
1365.398 46508000 47312120 47967068 48425264 48648056 48608884 48299672 
1368.773 47733752 46943760 45975936 44877200 43692632 42459696 41205872 
1372.148 39956932 38740732 37588840 36540576 35633972 34896260 34337128 
1375.523 33945536 33697284 33563528 33524298 33574268 33725928 34006232 
1378.899 34454408 35120772 36059316 37329508 38987500 41066724 43557816 
1382.274 46379492 49378672 52317144 54903880 56854496 57897632 57838084 
1385.649 56592200 54219660 50938704 47085652 43072672 39263236 35904028 
1389.024 33114910 30894898 29173044 27847876 26822624 26015490 25363540 
1392.400 24825696 24375110 23997958 23690694 23455718 23296936 23215626 
1395.775 23207726 23263864 23372910 23522730 23703010 23905596 24124142 
1399.150 24355064 24597294 24852184 25122322 25409488 25713402 26030724 
1402.525 26355634 26680540 26999166 27307902 27605486 27892356 28168634 
1405.901 28432670 28682246 28916916 29141190 29364548 29601220 29866376 
1409.276 30171154 30520896 30914324 31346284 31811476 32307536 32834932 
1412.651 33393816 33980752 34586824 35198408 35803880 36399132 36992820 
1416.026 37606616 38272912 39028496 39903716 40914808 42053188 43281900 
1419.402 44539864 45756940 46872704 47842272 48642720 49272580 49751440 
1422.777 50123384 50454924 50832608 51337800 52028356 52926496 54018192 
1426.152 55269120 56640744 58106700 59650256 61259028 62919468 64610004 
1429.527 66306488 67992304 69668280 71355928 73088160 74901496 76822080 
1432.903 78862312 81026712 83324728 85782384 88444072 91364552 94584688 
1436.278 98105520 101867384 105770240 109713768 113626080 117466104 
1439.171 121198064 124770888 128085824 130994720 133332712 134921728 
1442.064 135611840 135308288 133970600 131624520 128355712 124317768 
1444.957 119711944 114758328 109697648 104746960 100089448 95876136 92199144 
1448.332 89085864 86492864 84326384 82467824 80808824 79287088 77896272 
1451.708 76684240 75722960 75082600 74796704 74850712 75184040 75705840 
1455.083 76320376 76929656 77462312 77892392 78253328 78624184 79093248 
1458.458 79737128 80599352 81698776 83039136 84609008 86381480 88305752 
1461.833 90314448 92309784 94161856 95730720 96871912 97480584 97531432 
1465.208 97094696 96316200 95359504 94378096 93481536 92732584 92163096 
1468.584 91773872 91538424 91397272 91258696 91005304 90503368 89649864 
1471.959 88414504 86874872 85196320 83579464 82192920 81128144 80417328 
1475.334 80057568 80035384 80339536 80957160 81864936 83020640 84363688 
1478.709 85827600 87342568 88852392 90323832 91746120 93134904 94524008 
1482.085 95962712 97504344 99207504 101141192 103381352 106009472 109098160 
1485.460 112686480 116750144 121170784 125741584 130147544 133991968 
1488.353 136863136 138350224 138138864 136096736 132315216 127112416 
1491.246 120934168 114260856 107477080 100822528 94432120 88347048 82575720 
1494.621 77150592 72138984 67652872 63826160 60767240 58525072 57076480 
1497.997 56352280 56260428 56711568 57632996 58958832 60624544 62565760 
1501.372 64706408 66964300 69257728 71485520 73529936 75247632 76433960 
1504.747 76833080 76160120 74180424 70855008 66439016 61432736 56351336 
1508.122 51540604 47128016 43093384 39369048 35902444 32672684 29695866 
1511.498 27003750 24617808 22543188 20762196 19243630 17952030 16854666 
1514.873 15922477 15126274 14437392 13832066 13294710 12824355 12430469 
1518.248 12123951 11905944 11762698 11665038 11579548 11481180 11368923 
1521.623 11267883 11216912 11244046 11351373 11518504 11714257 11913334 
1524.999 12104189 12293015 12498530 12740547 13027903 13353749 13700631 
1528.374 14051658 14399270 14748085 15111453 15503899 15932962 16396752 
1531.749 16884394 17382308 17882004 18384728 18900322 19438184 20000306 
1535.124 20577574 21154252 21712366 22237996 22725158 23172182 23581744 
1538.500 23953982 24282772 24553570 24750554 24868360 24917730 24921660 
1541.875 24903448 24873026 24825064 24741856 24605780 24408652 24160886 
1545.250 23887846 23622114 23387772 23191264 23022272 22861168 22690698 
1548.625 22505114 22314868 22141402 22008718 21930092 21903082 21913398 
1552.000 21944414 21985332 22036432 22107444 22211144 22354844 22534812 
1555.376 22736398 22938360 23119654 23259146 23335778 23330638 23231774 
1558.751 23046974 22810076 22571842 22373888 22232522 22141474 22078890 
1562.126 22017678 21929116 21790362 21589808 21330664 21031330 20718300 
1565.501 20416264 20135778 19871604 19605304 19315572 18986574 18615766 
1568.877 18216284 17814198 17438666 17110394 16837926 16619401 16447200 
1572.252 16312562 16205927 16115585 16025569 15916670 15771510 15582438 
1575.627 15360526 15135400 14945712 14818328 14758609 14751822 14775475 
1579.002 14808591 14838248 14861871 14884089 14912379 14952674 15006965 
1582.378 15073236 15148712 15231065 15319027 15410200 15498646 15572890 
1585.753 15619291 15624409 15581785 15495280 15379990 15257798 15153344 
1589.128 15089668 15083321 15145624 15284224 15502800 15799858 16164245 
1592.503 16573960 16992298 17372790 17670304 17846030 17878760 17768770 
1595.879 17536184 17215320 16844368 16462512 16102621 15790856 15550739 
1599.254 15401274 15357127 15427710 15615891 15918422 16329248 16842128 
1602.629 17451150 18147700 18918528 19739438 20574516 21381340 22110722 
1606.004 22714648 23154532 23400988 23440050 23273338 22916702 22396426 
1609.380 21743788 20995962 20190756 19367330 18564790 17814510 17137106 
1612.755 16539436 16014259 15545279 15110870 14691667 14272936 13850504 
1616.130 13432208 13037394 12690734 12412603 12213569 12092503 12039017 
1619.505 12036735 12067429 12114410 12164600 12213433 12265509 12334055 
1622.881 12435140 12579904 12770540 12999632 13255116 13526608 13809354 
1626.256 14102859 14408038 14723405 15041849 15351910 15642751 15907355 
1629.631 16146019 16364615 16570931 16769631 16959738 17133796 17279998 
1633.006 17385724 17438802 17430906 17359480 17229662 17054770 16854254 
1636.382 16649352 16454631 16276028 16110497 15948121 15775358 15578144 
1639.757 15346384 15077318 14777771 14460960 14143764 13839147 13551529 
1643.132 13276261 13001442 12711886 12393237 12038234 11649109 11239523 
1646.507 10831987 10451918 10121967 9855372 9655643 9517676 9430643 9377925 
1650.365 9336654 9278294 9166808 8966550 8661250 8276252 7881541 7553670 
1654.222 7333295 7211931 7155876 7127986 7101614 7063085 7008262 6940349 
1658.080 6864906 6787355 6709785 6631186 6548431 6458089 6358152 6248354 
1661.937 6130653 6009321 5890577 5781334 5688567 5617336 5569105 5541417 
1665.794 5527423 5517826 5501383 5468297 5412199 5332560 5235261 5130072 
1669.652 5028528 4939442 4867361 4812747 4773483 4745009 4720958 4692788 
1673.509 4650253 4583947 4490063 4374043 4251896 4143031 4062788 4015599 
1677.367 3994631 3986873 3978982 3962998 3938322 3911774 3892851 3888706 
1681.224 3898501 3912677 3913479 3882387 3806872 3690633 3555884 3435871 
1685.082 3356159 3322468 3324138 3344071 3367913 3386613 3396764 3398434 
1688.939 3393058 3381971 3366410 3348846 3334054 3327210 3333420 3353387 
1692.796 3382438 3409454 3420308 3401907 3349180 3270786 3189669 3133364 
1696.654 3118146 3142775 3189536 3234165 3250189 3217842 3132930 3011966 
1700.511 2889102 2797285 2753501 2752834 2778743 2812158 2837571 2845876 
1704.369 2832902 2800853 2756268 2708888 2666980 2635843 2616742 2607342 
1708.226 2604009 2602575 2600542 2597208 2593975 2593175 2597242 2607242 
1712.083 2622376 2640577 2659412 2677215 2693451 2708188 2720924 2729093 
1715.941 2727826 2711988 2679148 2633510 2585909 2550912 2540213 2557978 
1719.798 2600808 2660579 2727493 2793683 2855248 2911650 2965592 3020408 
1723.656 3078767 3141140 3206693 3273824 3341200 3408352 3474012 3535740 
1727.513 3589792 3631155 3656382 3665069 3660926 3650133 3637971 3625708 
1731.371 3606965 3568378 3491514 3361334 3174115 2947577 2716790 2522183 
1735.228 2388262 2315971 2289289 2285725 2285659 2274534 2245890 2200363 
1739.085 2144352 2087350 2038078 2001627 1979891 1971503 1974266 1986315 
1742.943 2005388 2029422 2056388 2084586 2112587 2140090 2166662 2191638 
1746.800 2213451 2229604 2237031 2233100 2215483 2183413 2137027 2077928 
1750.658 2009117 1935790 1864905 1803447 1756902 1727361 1712425 1706138 
1754.515 1699485 1683851 1652818 1605292 1546365 1485717 1433887 1396390 
1758.373 1372956 1357267 1340416 1313562 1271323 1213405 1144697 1072679 
1762.230 1005422 948602 904373 872068 849027 832395 818120 802053 780543 
1766.570 751102 714327 674104 637403 610758 597419 594665 594765 587101 
1770.909 562250 516336 454571 389599 336672 306034 299369 310809 331267 
1775.249 352689 370895 386415 401803 419414 439413 458883 473876 481207 
1779.588 481008 476762 474473 479117 492120 510895 530103 543904 549577 
1783.928 546890 539492 532060 528677 530767 537766 548349 561056 575853 
1788.268 592542 610260 626187 635710 632956 613578 577147 527748 473644 
1792.607 424123 385354 358990 342276 330571 319496 307294 293633 279542 
1796.947 265783 252289 237967 221988 203888 184463 166165 151482 142102 
1801.286 138290 139549 144786 153305 164707 178728 194672 211115 226364 
1805.626 238829 248775 256997 265882 276956 290682 304873 316611 322414 
1809.966 320756 312533 301326 291611 286903 288196 294097 302088 309151 
1814.305 314058 317639 322447 331466 346919 369933 399979 435931 476065 
1818.645 518459 561819 604487 644968 682301 716451 748015 778352 808327 
1822.984 837474 864731 887905 905735 919082 931401 947008 969556 999942 
1827.324 1035047 1069092 1095698 1110846 1115131 1114400 1117457 1132838 
1831.181 1164730 1211843 1268465 1328285 1385986 1439572 1490139 1540579 
1835.039 1593785 1651421 1713523 1779259 1848600 1922610 2003957 2095773 
1838.896 2200430 2318336 2448470 2587942 2733628 2882898 3033087 3181926 
1842.754 3327744 3469837 3608669 3746776 3888137 4034929 4187557 4341645 
1846.611 4490264 4624232 4734725 4815461 4864144 4881770 4871315 4836066 
1850.469 4777805 4696440 4591414 4463717 4316546 4156445 3991087 3826794 
1854.326 3667843 3515430 3368213 3224718 3085575 2952048 2826465 2710188 
1858.183 2601675 2497088 2391894 2282894 2169659 2055389 1944743 1842544 
1862.041 1751147 1670413 1598474 1534161 1477239 1428901 1391304 1364214 
1865.898 1344903 1328285 1308145 1280229 1245005 1207457 1175163 1155362 
1869.756 1151475 1161907 1181575 1204135 1224735 1240918 1251518 1255871 
1873.613 1252780 1240585 1217658 1184432 1143734 1099984 1058297 1021795 
1877.470 990245 960390 927815 888834 842786 792062 740480 691693 647424 
1881.810 605947 564075 519686 471985 423460 377859 338761 307327 282493 
1886.150 260909 238962 214993 188938 162088 136997 114990 96861 83373 75817 
1890.971 76446 87747 111245 145515 186352 227723 263362 289721 306664 317407 
1895.793 325829 335346 345725 355242 361543 363334 362770 363698 369734 
1900.133 382999 402433 423792 442266 455367 462764 467540 473345 482069 
1904.472 492850 502834 508607 508341 503763 498622 497361 502304 512786 
1908.812 525193 535577 541316 542643 542743 544733 549909 556843 562051 
1913.152 562084 556644 548316 541681 542013 550506 564739 578341 584679 
1917.491 579768 564672 544866 526288 512985 504858 497228 485287 465683 
1921.831 439082 410227 385387 368242 359056 354214 348809 339590 327786 
1926.170 317805 315418 324370 344299 370364 396994 419248 436097 450259 
1930.510 465716 485054 507910 529373 544037 548051 541449 527748 513151 
1934.850 503199 499650 502801 509967 519023 530169 545098 564506 587200 
1939.189 608634 622039 621907 606743 579270 547553 521810 508739 511393 
1943.529 528511 555316 589191 629538 677722 734971 800327 868150 930405 
1947.868 980282 1012762 1028305 1031128 1025947 1016083 1002599 984799 
1951.726 962117 938640 920477 915065 927782 957501 995957 1031825 1053282 
1956.065 1053282 1033519 1001703 968194 942060 927384 922237 923067 926155 
1960.405 930604 939138 953351 973408 996156 1016016 1028704 1034748 1037771 
1964.745 1042753 1054045 1070487 1084770 1088889 1076134 1047070 1010271 
1968.602 979552 966036 975965 1007182 1050491 1096097 1138120 1176026 
1972.459 1214003 1257499 1307846 1361588 1414008 1460649 1502807 1547263 
1976.317 1602565 1673473 1757767 1843043 1913026 1955693 1966044 1948204 
1980.174 1913924 1875088 1838085 1803847 1767449 1722238 1666688 1603995 
1984.032 1541610 1487945 1448947 1424479 1412213 1407858 1410119 1420191 
1987.889 1441566 1475211 1518800 1564986 1603695 1627874 1635756 1631233 
1991.747 1624116 1624781 1637918 1663295 1695693 1727627 1753542 1772173 
1995.604 1785315 1795728 1805277 1813396 1817954 1818320 1814860 1810435 
1999.461 1808471 1809470 1809736 1804080 1784350 1747088 1694795 1635590 
2003.319 1581115 1542009 1525150 1530171 1554113 1590825 1635257 1686679 
2007.176 1742997 1800353 1852560 1891261 1908599 1902908 1879447 1847468 
2011.034 1819085 1802948 1800054 1807207 1816790 1824742 1831962 1844939 
2014.891 1870795 1914490 1974233 2041107 2103697 2153742 2188441 2213584 
2018.749 2238596 2271536 2315538 2368739 2424379 2476527 2523349 2566043 
2022.606 2608375 2652778 2696018 2732127 2754901 2760537 2750733 2733928 
2026.463 2718957 2711922 2714656 2722225 2726959 2725425 2719457 2715456 
2030.321 2723325 2750633 2797985 2861985 2934567 3009664 3084874 3162600 
2034.178 3245214 3333554 3423815 3507213 3575694 3624573 3654510 3672721 
2038.036 3688627 3708177 3733475 3761883 3787519 3806003 3817067 3823351 
2041.893 3829502 3838895 3850227 3859420 3862462 3855609 3840834 3823585 
2045.750 3811652 3811150 3825825 3853904 3891246 3933173 3973966 4009245 
2049.608 4035029 4046567 4039611 4013325 3970455 3918829 3870653 3838193 
2053.465 3829602 3846750 3882655 3925650 3964001 3989381 4000149 4001252 
2057.323 4000082 4001922 4009546 4020649 4031818 4040146 4046233 4052420 
2061.180 4062554 4077470 4094328 4107072 4109313 4096903 4070781 4036266 
2065.038 4000550 3970689 3949890 3936984 3928759 3922072 3915653 3910738 
2068.895 3909835 3914182 3922540 3931902 3937686 3935580 3925315 3908364 
2072.752 3887836 3867611 3849726 3834248 3821546 3811986 3806772 3807640 
2076.610 3815629 3829134 3845012 3858484 3865371 3864501 3858217 3850561 
2080.467 3846750 3850294 3860590 3875400 3891079 3904386 3914750 3924045 
2084.325 3933908 3945644 3959019 3971291 3979650 3982459 3979517 3972060 
2088.182 3962697 3951931 3939392 3923978 3903583 3878241 3850127 3822381 
2092.040 3799284 3783976 3777191 3778294 3786315 3800320 3819641 3844945 
2095.897 3874999 3906525 3936516 3959688 3973798 3979550 3980721 3982660 
2099.754 3990251 4006168 4029277 4057236 4086535 4115501 4144938 4177688 
2103.612 4215895 4261265 4312095 4365642 4418827 4470244 4520295 4571658 
2107.469 4626944 4686760 4750101 4813920 4875168 4931968 4984352 5033657 
2111.327 5081627 5129670 5177013 5222250 5264405 5302573 5337625 5371941 
2115.184 5406026 5440751 5475377 5508564 5539404 5569005 5599345 5632575 
2119.042 5670641 5713075 5757158 5800440 5840536 5876773 5910897 5945696 
2122.899 5983286 6025146 6070806 6119160 6169434 6222270 6278339 6339155 
2126.756 6404553 6471744 6537431 6597779 6650801 6697537 6741619 6786682 
2130.614 6836092 6890591 6947756 7004760 7059852 7113099 7167026 7225676 
2134.471 7290365 7360187 7432649 7502729 7567561 7627479 7684337 7740224 
2138.329 7796522 7849691 7893856 7923483 7934787 7928781 7910997 7888289 
2142.186 7866493 7848611 7832080 7813187 7790046 7761778 7731319 7702751 
2146.043 7676985 7650815 7618206 7570292 7501077 7411313 7307146 7198557 
2149.901 7096191 7005602 6925939 6851374 6772614 6681756 6574264 6449682 
2153.758 6308897 6155992 5995144 5832644 5679537 5552325 5469170 5448468 
2157.616 5500712 5622236 5794161 5987317 6170880 6319588 6422376 6476856 
2161.473 6491217 6475443 6439257 6389892 6334145 6276893 6220892 6168796 
2165.331 6117816 6062877 5998101 5918455 5823006 5716969 5608810 5507121 
2169.188 5418339 5342757 5275205 5207997 5134833 5052864 4966119 4882507 
2173.045 4809263 4753149 4715699 4693793 4682673 4676946 4671085 4660803 
2176.903 4642618 4611808 4565899 4505731 4434861 4362462 4299847 4255443 
2180.760 4233828 4233025 4244067 4256045 4260362 4252867 4234698 4212014 
2184.618 4188628 4167585 4148115 4127108 4102255 4074561 4047069 4023391 
2188.475 4007941 3999781 3995267 3990919 3982459 3968783 3952934 3939392 
2192.333 3931468 3931735 3938556 3949556 3962028 3974501 3986539 3999112 
2196.190 4011051 4020047 4023291 4018308 4004730 3985970 3967245 3952867 
2200.047 3946046 3945611 3947818 3948219 3944775 3937619 3930164 3926753 
2203.905 3929194 3936416 3944875 3949623 3947416 3938556 3925182 3911607 
2207.762 3900708 3892885 3886332 3879178 3870653 3862730 3860189 3867142 
2211.620 3885764 3914884 3949723 3983596 4011720 4031618 4044159 4052855 
2215.477 4060413 4068173 4075665 4081685 4084996 4087104 4091017 4099211 
2219.334 4114030 4135270 4159322 4182974 4202813 4216765 4225163 4229177 
2223.192 4228910 4223991 4213318 4195888 4172202 4145707 4119682 4098576 
2227.049 4085397 4079545 4079444 4082320 4086535 4091251 4098041 4106972 
2230.907 4118043 4130052 4140255 4146844 4150324 4152665 4156947 4166314 
2234.764 4180799 4198297 4216430 4231921 4244334 4255610 4269363 4288068 
2238.622 4313032 4341076 4366947 4385791 4394058 4391581 4381574 4368922 
2242.479 4358045 4351953 4351820 4357476 4369089 4387297 4412702 4445774 
2246.336 4485477 4528431 4570586 4608124 4638498 4661808 4679860 4694396 
2250.194 4706756 4717006 4723872 4727054 4727456 4727121 4729700 4738142 
2254.051 4752613 4770803 4789162 4803467 4810637 4811038 4805779 4797403 
2257.909 4787386 4775861 4761155 4742363 4718948 4692487 4666128 4642584 
2261.766 4623930 4610401 4600623 4592586 4586123 4581971 4581971 4588166 
2265.624 4601159 4618874 4638063 4654942 4666061 4670616 4670013 4666028 
2269.481 4661138 4656885 4652966 4648746 4643455 4636522 4628251 4619175 
2273.338 4609430 4598982 4587998 4576279 4565162 4556891 4552940 4554915 
2277.196 4563186 4576279 4592419 4609598 4626710 4643555 4661138 4678956 
2281.053 4696607 4713020 4725949 4733988 4737104 4736333 4733519 4730839 
2284.911 4729433 4729366 4730538 4732447 4734859 4738845 4744540 4752010 
2288.768 4760318 4767386 4771373 4770736 4765946 4758107 4749732 4742765 
2292.625 4738176 4735864 4735127 4734792 4734792 4735998 4739281 4745645 
2296.483 4755025 4766180 4777269 4787118 4794555 4800150 4804874 4809263 
2300.340 4813551 4816768 4817505 4814624 4808593 4800385 4792445 4787185 
2304.198 4786414 4790334 4798441 4809363 4821659 4835027 4849267 4864747 
2308.055 4881636 4900233 4920072 4941419 4964477 4989379 5016696 5046160 
2311.913 5076364 5105698 5132184 5154347 5172118 5186805 5199983 5213497 
2315.770 5228755 5245356 5262795 5279799 5295764 5310858 5326354 5343462 
2319.627 5363824 5387910 5415453 5444609 5472928 5496349 5510477 5510980 
2323.485 5494336 5458869 5406127 5340174 5267725 5196831 5134699 5086824 
2327.342 5055680 5040261 5036942 5041870 5050685 5060709 5071101 5081795 
2331.200 5092858 5105061 5118069 5131447 5145495 5160114 5175438 5191935 
2335.057 5209339 5227414 5246228 5266451 5288855 5315185 5346615 5383012 
2338.915 5423271 5464976 5505343 5542525 5575683 5605085 5632206 5657516 
2342.772 5680880 5700418 5714284 5720427 5719420 5713780 5708408 5709416 
2346.629 5722576 5751853 5798727 5862600 5940422 6027632 6119294 6210001 
2350.487 6294307 6368743 6430648 6479580 6517317 6546614 6570295 6590345 
2354.344 6607771 6622708 6635459 6646629 6657631 6670652 6687577 6709146 
2358.202 6734923 6764033 6794524 6825489 6856524 6887493 6918465 6949069 
2362.059 6978126 7004726 7028500 7049850 7070797 7093800 7120441 7151564 
2365.917 7186361 7223149 7259771 7295386 7328847 7360457 7390181 7417279 
2369.774 7440334 7458165 7469862 7475930 7478761 7480885 7485503 7495144 
2373.631 7510685 7532228 7559436 7591467 7627547 7667778 7711790 7759147 
2377.489 7809746 7863558 7921087 7984091 8054024 8132037 8218507 8311950 
2381.346 8409468 8508020 8604399 8696674 8784439 8867893 8947778 9024193 
2385.204 9096831 9164405 9226304 9282559 9333641 9380904 9425836 9468333 
2389.061 9507956 9543248 9572275 9594089 9608283 9615702 9617735 9616109 
2392.918 9611942 9606352 9600729 9595715 9592938 9593582 9598426 9607403 
2396.776 9620038 9635452 9653407 9674582 9700739 9733538 9774812 9825173 
2400.633 9883607 9948524 10017994 10090460 10165957 10245232 10329477 
2404.009 10419675 10516445 10619382 10727812 10841398 10959873 11083275 
2407.384 11211914 11345387 11482983 11624061 11767771 11914390 12064635 
2410.759 12219328 12378918 12542795 12709328 12875514 13038350 13194381 
2414.134 13341141 13476568 13599047 13707300 13800563 13878385 13941095 
2417.510 13990402 14028181 14056963 14079106 14095912 14108405 14117304 
2420.885 14123397 14127949 14133186 14140888 14152629 14169609 14192032 
2424.260 14219763 14253521 14293789 14342314 14400708 14470381 14551953 
2427.635 14645502 14750519 14866911 14995133 15136395 15291432 15460978 
2431.010 15644537 15840132 16045853 16259206 16478378 16702687 16931762 
2434.386 17165750 17404900 17649668 17899890 18156890 18421890 18696218 
2437.761 18981070 19276326 19581594 19894636 20214154 20538562 20867452 
2441.136 21201080 21539910 21884020 22232694 22584546 22937730 23291132 
2444.511 23643946 23996524 24349422 24703028 25057238 25411982 25766314 
2447.887 26119212 26470528 26819804 27166258 27509316 27847736 28180196 
2451.262 28505976 28824528 29135662 29439146 29734364 30019306 30292214 
2454.637 30550898 30793692 31020218 31231302 31427280 31608768 31774826 
2458.012 31923078 32050374 32153264 32228984 32276020 32294188 32283444 
2461.388 32244898 32179880 32089792 31976826 31844810 31697654 31540886 
2464.763 31380192 31221156 31069084 30928768 30804756 30701402 30623176 
2468.138 30573792 30556374 30573010 30624704 30711252 30832466 30987266 
2471.513 31174232 31391944 31637490 31907246 32197118 32502140 32817814 
2474.889 33140444 33466138 33791180 34111556 34422448 34718344 34994584 
2478.264 35247244 35474124 35675228 35850620 36000924 36125960 36225064 
2481.639 36295736 36336984 36348188 36330176 36285540 36218260 36132192 
2485.014 36032024 35922096 35805572 35685516 35564096 35441988 35318688 
2488.390 35192732 35061212 34921000 34769352 34604372 34424852 34230996 
2491.765 34023040 33801248 33565676 33315710 33050512 32769184 32470934 
2495.140 32154832 31820602 31468100 31097414 30709476 30305786 29888100 
2498.515 29458932 29020838 28575542 28124974 27670494 27213172 26754958 
2501.891 26298426 25845466 25399548 24963034 24537548 24124248 23723762 
2505.266 23336652 22964070 22607756 22269174 21949746 21649742 21367972 
2508.641 21102178 20849756 20608008 20375076 20151292 19936888 19733440 
2512.016 19542738 19365494 19202242 19053212 18917454 18793916 18681552 
2515.392 18579246 18485642 18400872 18324830 18259064 18205054 18164456 
2518.767 18138304 18126938 18129114 18142760 18166286 18197694 18236118 
2522.142 18281110 18332432 18389534 18451828 18517798 18586300 18656266 
2525.517 18726902 18797378 18866998 18934206 18996578 19051344 19095588 
2528.893 19126232 19141468 19139874 19120934 19084892 19033134 18967190 
2532.268 18889732 18804088 18712962 18619362 18525300 18431534 18338412 
2535.643 18245932 18154646 18065416 17979900 17899682 17825902 17759210 
2539.018 17698982 17643868 17593250 17546636 17503894 17465536 17431560 
2542.394 17401140 17372928 17344444 17313652 17279068 17240004 17196844 
2545.769 17150756 17103158 17055288 17008802 16965042 16925422 16891146 
2549.144 16862486 16838718 16817742 16797112 16773522 16745456 16712880 
2552.519 16676897 16640574 16607111 16578367 16555337 16537646 16523568 
2555.895 16511763 16501265 16491354 16481785 16472114 16461136 16446717 
2559.270 16426723 16399058 16362276 16316311 16261891 16200596 16134841 
2562.645 16066724 15998445 15931930 15868621 15809204 15754195 15703142 
2566.020 15655667 15611460 15571276 15535663 15506337 15484567 15470729 
2569.396 15464378 15463897 15466918 15471759 15477357 15483811 15492464 
2572.771 15505066 15522476 15545279 15572340 15602530 15633957 15665421 
2576.146 15696168 15726021 15755706 15785357 15815768 15847864 15882712 
2579.521 15921274 15964860 16013572 16067481 16125489 16186325 16248371 
2582.896 16310979 16373768 16437598 16503744 16573546 16647942 16727721 
2586.272 16812852 16902376 16995606 17090992 17187294 17282550 17375446 
2589.647 17464810 17549916 17631136 17708748 17784236 17858976 17934178 
2593.022 18010878 18089526 18170020 18251738 18333262 18412902 18488684 
2596.397 18559258 18623374 18681414 18734790 18785508 18836302 18889802 
2599.773 18947462 19010252 19078278 19150956 19227906 19309372 19395428 
2603.148 19487010 19584816 19689164 19800194 19917564 20040694 20168542 
2606.523 20300284 20434774 20570938 20708048 20845620 20983722 21122770 
2609.898 21263014 21404972 21548650 21693522 21838862 21984356 22129618 
2613.274 22274616 22419488 22563676 22705570 22843182 22973746 23094634 
2616.649 23204722 23303822 23393540 23476214 23554736 23630862 23705846 
2620.024 23779790 23852070 23921736 23987874 24049648 24106490 24158224 
2623.399 24204640 24246366 24284734 24321526 24358884 24398838 24442300 
2626.775 24489518 24539440 24590702 24642004 24692470 24742032 24791210 
2630.150 24840572 24890288 24940082 24989216 25036774 25081880 25124604 
2633.525 25165120 25203356 25239878 25274538 25306954 25337126 25364944 
2636.900 25390800 25415356 25439456 25463418 25488118 25514190 25542056 
2640.276 25572982 25607810 25647668 25693154 25744236 25799964 25859320 
2643.651 25920972 25984288 26049158 26116184 26186180 26259952 26338382 
2647.026 26421124 26508038 26598666 26691992 26787628 26884802 26983018 
2650.401 27081858 27181390 27281898 27384016 27488524 27595952 27706480 
2653.777 27819966 27935570 28052724 28171180 28291154 28413426 28538988 
2657.152 28669080 28804204 28944506 29089352 29237934 29389402 29542484 
2660.527 29696258 29849872 30002228 30152648 30301346 30448424 30594910 
2663.902 30741872 30890628 31041108 31193600 31347066 31500698 31653672 
2667.278 31805876 31957746 32110340 32264602 32420878 32579492 32740280 
2670.653 32903194 33068568 33237118 33409596 33586656 33768616 33954776 
2674.028 34143924 34334584 34525760 34716408 34906820 35097096 35287600 
2677.403 35478800 35670768 35863648 36057296 36252224 36449036 36648824 
2680.779 36852492 37061380 37276212 37497984 37727164 37964280 38209484 
2684.154 38462824 38724320 38993840 39271256 39556828 39850652 40153144 
2687.529 40464392 40784376 41112288 41447848 41789716 42136976 42488964 
2690.904 42845112 43205252 43569540 43938636 44313224 44694416 45083076 
2694.280 45480324 45886552 46302000 46726156 47158224 47597304 48042376 
2697.655 48492760 48947912 49407256 49870356 50337224 50807280 51280488 
2701.030 51756940 52236604 52719232 53204004 53689320 54172740 54652224 
2704.405 55125128 55589700 56044744 56489204 56922372 57342816 57748908 
2707.781 58138748 58510548 58863432 59197464 59513552 59813208 60097664 
2711.156 60368332 60625420 60868892 61098392 61313440 61513432 61697596 
2714.531 61865172 62014628 62144440 62252952 62338928 62401276 62439764 
2717.906 62454796 62447684 62420136 62375152 62316172 62247564 62174032 
2721.281 62100172 62030336 61968116 61916528 61878396 61855968 61851876 
2724.657 61868728 61908580 61973120 62063132 62178392 62318084 62480968 
2728.032 62665924 62871440 63096716 63340472 63600972 63876516 64164804 
2731.407 64463616 64771092 65085456 65405160 65728844 66054700 66380760 
2734.782 66704900 67025220 67339832 67647184 67945880 68234784 68512560 
2738.158 68778392 69031768 69273432 69504848 69728456 69946768 70162656 
2741.533 70378024 70594600 70813928 71037712 71268120 71508176 71760528 
2744.908 72027736 72311696 72612376 72928816 73259016 73599368 73946072 
2748.283 74294272 74638656 74972920 75291800 75589416 75861400 76105040 
2751.659 76318840 76502672 76657248 76783448 76882512 76955648 77003792 
2755.034 77027600 77027648 77003352 76953272 76875192 76765888 76622072 
2758.409 76441232 76221408 75961360 75661112 75321512 74943312 74528656 
2761.784 74080328 73601760 73097768 72573600 72034272 71485288 70931776 
2765.160 70378344 69830360 69293024 68771904 68272632 67800184 67358400 
2768.535 66950188 66577308 66240720 65941332 65679544 65455584 65268824 
2771.910 65117440 64998968 64909472 64844720 64800792 64773864 64761252 
2775.285 64759596 64765364 64774520 64781712 64781444 64768248 64736596 
2778.661 64682520 64602928 64495436 64358660 64192572 63998520 63779264 
2782.036 63539864 63286380 63025108 62762080 62502780 62250012 62005452 
2785.411 61769172 61540040 61315956 61093892 60870684 60642104 60404088 
2788.786 60152920 59885996 59602064 59301748 58986844 58660632 58326292 
2792.162 57987404 57647488 57309996 56979000 56658524 56352808 56066420 
2795.537 55803128 55566128 55357376 55178252 55029100 54910156 54821168 
2798.912 54762152 54732272 54731560 54758960 54814024 54895268 55001460 
2802.287 55130396 55279656 55445720 55625404 55815636 56013644 56217776 
2805.663 56426676 56639648 56855444 57072552 57288032 57498320 57699104 
2809.038 57885592 58053524 58198412 58316668 58405088 58461264 58483440 
2812.413 58470780 58423320 58341984 58228228 58084392 57913568 57719460 
2815.788 57507252 57282628 57052828 56825720 56609224 56410792 56237536 
2819.164 56094696 55986956 55917532 55889152 55903436 55961100 56061972 
2822.539 56204424 56384876 56598996 56840672 57102744 57377676 57657292 
2825.914 57933408 58198676 58445532 58668408 58862636 59025100 59153948 
2829.289 59248996 59310980 59341288 59342508 59318044 59271668 59207792 
2832.665 59131016 59045332 58954924 58863012 58772300 58685400 58604468 
2836.040 58531516 58468088 58415816 58375792 58349524 58339332 58348652 
2839.415 58382840 58448416 58553544 58706640 58915908 59189300 59534448 
2842.790 59959296 60472596 61084436 61805344 62645404 63611828 64705364 
2846.166 65916612 67223192 68588448 69957976 71265496 72438600 73400008 
2849.541 74085120 74446096 74459072 74127920 73483464 72579280 71478184 
2852.916 70250056 68962552 67670608 66420220 65244684 64163768 63188376 
2856.291 62320724 61556232 60885516 60296036 59774196 59305168 58875804 
2859.667 58474116 58089616 57713824 57339640 56960980 56573476 56173880 
2863.042 55760480 55333360 54893576 54444020 53988852 53533636 53085448 
2866.417 52652536 52243928 51869348 51537244 51255020 51027868 50858084 
2869.792 50745340 50685984 50674480 50702148 50758340 50832124 50911096 
2873.167 50984680 51044564 51085112 51104456 51103412 51085148 51052764 
2876.543 51009872 50958860 50901072 50837784 50770072 50699168 50626972 
2879.918 50555568 50486596 50421728 50362268 50309436 50264492 50229044 
2883.293 50204720 50192668 50194416 50210148 50239944 50283392 50339868 
2886.668 50408260 50487824 50576824 50673696 50776628 50883976 50994332 
2890.044 51107100 51221764 51338436 51457448 51578736 51702556 51829324 
2893.419 51959900 52095184 52236976 52386476 52545120 52713432 52892100 
2896.794 53081364 53282136 53495592 53722916 53965216 54222628 54494800 
2900.169 54780344 55077736 55385564 55703448 56031812 56371708 56724784 
2903.545 57092768 57477672 57881956 58309696 58765740 59257352 59793288 
2906.920 60383564 61040124 61775552 62603384 63538060 64592124 65774336 
2910.295 67085772 68516784 70042768 71621632 73200584 74712720 76086016 
2913.670 77255552 78163440 78769704 79056600 79028424 78710400 78142928 
2917.046 77379232 76474616 75480872 74445080 73402168 72376080 71380496 
2920.421 70419216 69489952 68586200 67700656 66827348 65962972 65107548 
2923.796 64264832 63441196 62643720 61879848 61155832 60475036 59838728 
2927.171 59245348 58691164 58170680 57677952 57207020 56752684 56311500 
2930.547 55881768 55464088 55060580 54675336 54313144 53979700 53679908 
2933.922 53419072 53201120 53029024 52904224 52826724 52794504 52803412 
2937.297 52848244 52922492 53019292 53133184 53259588 53395724 53541020 
2940.672 53695768 53860812 54036580 54222140 54414684 54609424 54798576 
2944.048 54972800 55121032 55231188 55292940 55297720 55241352 55124456 
2947.423 54953660 54741140 54501568 54252848 54012304 53794052 53609688 
2950.798 53465760 53364104 53302700 53276820 53279628 53303604 53341588 
2954.173 53387524 53435896 53482776 53524936 53559720 53585400 53600844 
2957.549 53606052 53602416 53592256 53579328 53567296 53559648 53558896 
2960.924 53566392 53582100 53605452 53635520 53671060 53710992 53754676 
2964.299 53801028 53849000 53897840 53946792 53995532 54044688 54094748 
2967.674 54146464 54200328 54256452 54314348 54373752 54434180 54495404 
2971.050 54557504 54620848 54685220 54750836 54817748 54886132 54956596 
2974.425 55030492 55108768 55192096 55280072 55370472 55459308 55540748 
2977.800 55607740 55652632 55668192 55648116 55588272 55487208 55346756 
2981.175 55172268 54971524 54754300 54530680 54308828 54094296 53888908 
2984.551 53691384 53497356 53300752 53096004 52877956 52642992 52389728 
2987.926 52117860 51828128 51521316 51197496 50855552 50492736 50104940 
2991.301 49688248 49239848 48759772 48251384 47722320 47183008 46643956 
2994.676 46114752 45601236 45104580 44621632 44146484 43672556 43193800 
2998.052 42707124 42211824 41709616 41203944 40697800 40194536 39696796 
3001.427 39206332 38724936 38253808 37793884 37345720 36909664 36485472 
3004.802 36072852 35671920 35282896 34906172 34542440 34192208 33855368 
3008.177 33531670 33220164 32919780 32629606 32348442 32075026 31808444 
3011.552 31547192 31290088 31036482 30786046 30538776 30295590 30057442 
3014.928 29824710 29598098 29377596 29163122 28954566 28752020 28555584 
3018.303 28365496 28181502 28003136 27829648 27660182 27494172 27331578 
3021.678 27172818 27018312 26869150 26726170 26590352 26462958 26346022 
3025.053 26241824 26153486 26083850 26034840 26006940 25998428 26005254 
3028.429 26021154 26038850 26049546 26044656 26016792 25960192 25871172 
3031.804 25749228 25596282 25416972 25216804 25002552 24780476 24555394 
3035.179 24331410 24110692 23894708 23684114 23479080 23279772 23086144 
3038.554 22898294 22715940 22539000 22367086 22199878 22037024 21877958 
3041.930 21722398 21570168 21420950 21274880 21132858 20995232 20862722 
3045.305 20735678 20614436 20498752 20388828 20284348 20185760 20093022 
3048.680 20006136 19924434 19846804 19771652 19696964 19621422 19544020 
3052.055 19464348 19382956 19300402 19217654 19135754 19055878 18979270 
3055.431 18907486 18841666 18782498 18729774 18682140 18637554 18593772 
3058.806 18549472 18504554 18460126 18418814 18382898 18354380 18334162 
3062.181 18321684 18315914 18315774 18320544 18330428 18345740 18367032 
3065.556 18394270 18426350 18461440 18496878 18529968 18557632 18577482 
3068.932 18587026 18584848 18569910 18542658 18504208 18457222 18404536 
3072.307 18348988 18292826 18237258 18182354 18127664 18072876 18017786 
3075.682 17962218 17906866 17851552 17795800 17739190 17680692 17619990 
3079.057 17557644 17494718 17433112 17374240 17319064 17267620 17219216 
3082.433 17172644 17126698 17080858 17034818 16988782 16943372 16899104 
3085.808 16856562 16816298 16779100 16745456 16715668 16689740 16667118 
3089.183 16647046 16629145 16613273 16599882 16589899 16584184 16582876 
3092.558 16585251 16589968 16594855 16598471 16600054 16600123 16600261 
3095.934 16602326 16607903 16618058 16632482 16650213 16670182 16690843 
3099.309 16711501 16731853 16752135 16772730 16794220 16816882 16840684 
3102.684 16865414 16890354 16914538 16937104 16957670 16976070 16993090 
3106.059 17009836 17028098 17048878 17072658 17099264 17127628 17156442 
3109.435 17184294 17210736 17235556 17259346 17282894 17307374 17333376 
3112.810 17361686 17392690 17426180 17461948 17499030 17536010 17571132 
3116.185 17603290 17631102 17654256 17673270 17688802 17701776 17712580 
3119.560 17721106 17727212 17730838 17732666 17734014 17736498 17741916 
3122.936 17751168 17764112 17779506 17795662 17810884 17824280 17836120 
3126.311 17847582 17860150 17875342 17893468 17914566 17937320 17960802 
3129.686 17983352 18003970 18022242 18038196 18052564 18066348 18080786 
3133.061 18097230 18116850 18140032 18166702 18196174 18227410 18259166 
3136.437 18290960 18321994 18352446 18382378 18411866 18440766 18469080 
3139.812 18496948 18524782 18553482 18584330 18617738 18653708 18691550 
3143.187 18729706 18766790 18801908 18834746 18866026 18897242 18929706 
3146.562 18964386 19001736 19041372 19082884 19125990 19170762 19217274 
3149.938 19265486 19315192 19365562 19415282 19463134 19508012 19549842 
3153.313 19588906 19625824 19661774 19697276 19732780 19768428 19804182 
3156.688 19840008 19876426 19913854 19952776 19993888 20037398 20083306 
3160.063 20131546 20181872 20234078 20287750 20342958 20399384 20456932 
3163.438 20515842 20575906 20637264 20699604 20762682 20826050 20889076 
3166.814 20951138 21012098 21071744 21130320 21187894 21245094 21302058 
3170.189 21358748 21415242 21471252 21526296 21580230 21632850 21683874 
3173.564 21733580 21782246 21830118 21877644 21925038 21972086 22018862 
3176.939 22065086 22110302 22154898 22198938 22242984 22287730 22333738 
3180.315 22381216 22430408 22481456 22534148 22588454 22644444 22702080 
3183.690 22761294 22822230 22885022 22950060 23017940 23089356 23164424 
3187.065 23243414 23325428 23409136 23493456 23577300 23660252 23742834 
3190.440 23826062 23910986 23998416 24088452 24180468 24273942 24367960 
3193.816 24462000 24556026 24649754 24742592 24834010 24923168 25009396 
3197.191 25093324 25176566 25261228 25350086 25444690 25545500 25651428 
3200.566 25760266 25869414 25977182 26082758 26186286 26288744 26391122 
3203.941 26493738 26596588 26699672 26802782 26906410 27011296 27118184 
3207.317 27227390 27338494 27450474 27562270 27673106 27782982 27892746 
3210.692 28002924 28114296 28226514 28339110 28450572 28560394 28668584 
3214.067 28776234 28884974 28996786 29112630 29232760 29356110 29480918 
3217.442 29605300 29727836 29847602 29964772 30079634 30193780 30308416 
3220.818 30424894 30544392 30667302 30793266 30921510 31050432 31178646 
3224.193 31304866 31428598 31550222 31670492 31790118 31909742 32029436 
3227.568 32149196 32268490 32387282 32505746 32624032 32741778 32858520 
3230.943 32972932 33083872 33190478 33292600 33391312 33488542 33586332 
3234.319 33686792 33790536 33897852 34008024 34120124 34233040 34346416 
3237.694 34459716 34572580 34684824 34795736 34905240 35013548 35121420 
3241.069 35229852 35339788 35451908 35566180 35682208 35799348 35916912 
3244.444 36035120 36154480 36275492 36398952 36525116 36653872 36785084 
3247.820 36918396 37053944 37191812 37332324 37474792 37618536 37762112 
3251.195 37904148 38043912 38181372 38317644 38454608 38594368 38738484 
3254.570 38887796 39042412 39201584 39364148 39528956 39694948 39861476 
3257.945 40027736 40193192 40357332 40519748 40680224 40838616 40995020 
3261.321 41149736 41303084 41456160 41609760 41765608 41924792 42088708 
3264.696 42258204 42432768 42611312 42791688 42972136 43150724 43326560 
3268.071 43499908 43671824 43843768 44017652 44194688 44374912 44558296 
3271.446 44743852 44930004 45115536 45299528 45481536 45661820 45841512 
3274.822 46021724 46203852 46389080 46577708 46769736 46964472 47161624 
3278.197 47360192 47560332 47762120 47965996 48172636 48382480 48596212 
3281.572 48814088 49036188 49262636 49493176 49727404 49964548 50204312 
3284.947 50446028 50689372 50934644 51181948 51431636 51683820 51938648 
3288.323 52196024 52455976 52719040 52986084 53258464 53537460 53824056 
3291.698 54118880 54421676 54731596 55047644 55368024 55691620 56017076 
3295.073 56343904 56671696 57000840 57332340 57667356 58007284 58352708 
3298.448 58703680 59059304 59418444 59780624 60145576 60514608 60889552 
3301.823 61272608 61665016 62067180 62477948 62896104 63320188 63750060 
3305.199 64187044 64632692 65088884 65556572 66035376 66524208 67021512 
3308.574 67526208 68038184 68558064 69086536 69624128 70170368 70724632 
3311.949 71286472 71856496 72436368 73028728 73635560 74258224 74895592 
3315.324 75545656 76205168 76871360 77543032 78220360 78904152 79595736 
3318.700 80295328 81002760 81716496 82435736 83159464 83887688 84620440 
3322.075 85357296 86097064 86838576 87580336 88321664 89063040 89805040 
3325.450 90547400 91288872 92026040 92754280 93468880 94166584 94846288 
3328.825 95508840 96156120 96788928 97407184 98008384 98589128 99146056 
3332.201 99677256 100181328 100657984 101106312 101524248 101908864 
3335.094 102257000 102566512 102837656 103072560 103274296 103445808 
3337.987 103588112 103699832 103777880 103818736 103819120 103777376 
3340.880 103692976 103565696 103395856 103183224 102927232 102627864 
3343.773 102285432 101900944 101475320 101008424 100499304 99946160 99346768 
3347.148 98700736 98008760 97273936 96500464 95693168 94856672 93994296 
3350.523 93109280 92204264 91282040 90345416 89396352 88436512 87466320 
3353.899 86485912 85495528 84497256 83494448 82492064 81495904 80510448 
3357.274 79538832 78582128 77640136 76712200 75798584 74900480 74020168 
3360.649 73160232 72322224 71506384 70710976 69933304 69170344 68419840 
3364.024 67680912 66954164 66241412 65544932 64867496 64211204 63577108 
3367.400 62965736 62375992 61806264 61253992 60716976 60192884 59680176 
3370.775 59177948 58685780 58203036 57728732 57261076 56798792 56340624 
3374.150 55886140 55436760 54994576 54562200 54141512 53733076 53336080 
3377.525 52948540 52568192 52192996 51821820 51454428 51090740 50730932 
3380.901 50374508 50020608 49668372 49316864 48966012 48616224 48268380 
3384.276 47923184 47581328 47243000 46907992 46576232 46247636 45922124 
3387.651 45600092 45281320 44965352 44651816 44339864 44028832 43718612 
3391.026 43409676 43102784 42799292 42501168 42209744 41926360 41651552 
3394.402 41384900 41124600 40868612 40613896 40358096 40099356 39837432 
3397.777 39573120 39308320 39044772 38784352 38527888 38275700 38027672 
3401.152 37782972 37541328 37302496 37065888 36831104 36597236 36364004 
3404.527 36130676 35897296 35664364 35432744 35203116 34975980 34751156 
3407.903 34528232 34306720 34086144 33866648 33648804 33432856 33218876 
3411.278 33006716 32795660 32585386 32376036 32168106 31962808 31761456 
3414.653 31564404 31371572 31182064 30994420 30807422 30620330 30433070 
3418.028 30245782 30058932 29872340 29685506 29498082 29309850 29121382 
3421.404 28934128 28750142 28571154 28398390 28231922 28070960 27913804 
3424.779 27758822 27604638 27450120 27295024 27139592 26984536 26830660 
3428.154 26679166 26531176 26387672 26249076 26114638 25983266 25852992 
3431.529 25721944 25589008 25454142 25318790 25185064 25055694 24932784 
3434.905 24817488 24709200 24606446 24506838 24407670 24306738 24202082 
3438.280 24092550 23977300 23856132 23728836 23595420 23456174 23311968 
3441.655 23163268 23011372 22857432 22702184 22545876 22388682 22229732 
3445.030 22068572 21904684 21738316 21570758 21403790 21239526 21080196 
3448.406 20926556 20778322 20633928 20491214 20347888 20202316 20053844 
3451.781 19902720 19749946 19596430 19443312 19290978 19139980 18990728 
3455.156 18843568 18699090 18557596 18419090 18283254 18149360 18016784 
3458.531 17885250 17754792 17625720 17498408 17373136 17249866 17128316 
3461.906 17008320 16890078 16773900 16660232 16549073 16439559 16330762 
3465.282 16221097 16109774 15996967 15883813 15772404 15664872 15561763 
3468.657 15462386 15364645 15265931 15163775 15057628 14948250 14838213 
3472.032 14729952 14625522 14525777 14429891 14336047 14242702 14148488 
3475.407 14053369 13957930 13863537 13771252 13681960 13595868 13512458 
3478.783 13430875 13350162 13269259 13187140 13103604 13018650 12933336 
3482.158 12849064 12767503 12689711 12615548 12543580 12472102 12398521 
3485.533 12321034 12239265 12153628 12065657 11976342 11886533 11795892 
3488.908 11703840 11609597 11513093 11415285 11317533 11221197 11126479 
3492.284 11032530 10937820 10839699 10736845 10628924 10517192 10403928 
3495.659 10291814 10182781 10077540 9976121 9877675 9781183 9686101 9591888 
3499.516 9498270 9404943 9311366 9216557 9119738 9020336 8918859 8816595 
3503.374 8715740 8618358 8526606 8441527 8362716 8288882 8217291 8145036 
3507.231 8069249 7988277 7901820 7811433 7720121 7631256 7548141 7472660 
3511.089 7404741 7343000 7285412 7229685 7174470 7119330 7064230 7009575 
3514.946 6954927 6899613 6842420 6782240 6718837 6652820 6585904 6520075 
3518.803 6457619 6399543 6346316 6297097 6250303 6204086 6156597 6106390 
3522.661 6052393 5994439 5932730 5868981 5804302 5740370 5678429 5618712 
3526.518 5561285 5505644 5451118 5397874 5345978 5296603 5250051 5207025 
3530.376 5167390 5130742 5096479 5064061 5033154 5003087 4972855 4940883 
3534.233 4905595 4865317 4819046 4767487 4712249 4656248 4602330 4552103 
3538.091 4506167 4463884 4424015 4385824 4349309 4314873 4283350 4255008 
3541.948 4228542 4201709 4171432 4135304 4091753 4041484 3986338 3929261 
3545.805 3873294 3820911 3773280 3731102 3694208 3661461 3631422 3601552 
3549.663 3569146 3531430 3486337 3433633 3374758 3313153 3252992 3197747 
3553.520 3149651 3108468 3073061 3041362 3011900 2983841 2956985 2931098 
3557.378 2905113 2877161 2844675 2805088 2757402 2702486 2642910 2582009 
3561.235 2523816 2470696 2423879 2382598 2344819 2307943 2268905 2224408 
3565.093 2172390 2111089 2040441 1962982 1882908 1805710 1736509 1678230 
3568.950 1631000 1592222 1558103 1524386 1488510 1449412 1407659 1364679 
3572.807 1321937 1280129 1238891 1197523 1154930 1111079 1066833 1023290 
3576.665 981710 942459 905104 868383 831333 792792 753558 714227 676527 
3581.004 641517 610127 581991 557108 534748 513782 493347 472018 447838 
3585.344 418485 381772 336606 283421 225303 166497 112438 67035 32373 7654 
3590.166 -9476 -23358 -38268 -57583 -83721 -117709 -158351 -203660 -250553 
3594.505 -295918 -337372 -373326 -403683 -429238 -451481 -472102 -492887 
3598.363 -515557 -540642 -568340 -597658 -626874 -653342 -674780 -689104 
3602.220 -695820 -695886 -691850 -686987 -684705 -687980 -698731 -717785 
3606.078 -744777 -778845 -818566 -862450 -908115 -953610 -996654 -1035594 
3609.935 -1070301 -1101501 -1131245 -1161714 -1194230 -1228659 -1262987 
3613.310 -1293678 -1317364 -1331601 -1336754 -1334640 -1329586 -1326481 
3616.686 -1329553 -1341874 -1365260 -1398784 -1440298 -1485341 -1528728 
3620.061 -1565607 -1591820 -1606312 -1609184 -1603407 -1591919 -1578351 
3623.436 -1565046 -1552764 -1541010 -1529355 -1517997 -1510106 -1510964 
3626.811 -1529091 -1572012 -1643713 -1740022 -1847528 -1947520 -2021599 
3630.187 -2060844 -2067241 -2050588 -2022984 -1995874 -1976909 -1969191 
3633.562 -1971961 -1981461 -1993796 -2005241 -2014113 -2020049 -2023710 
3636.937 -2025755 -2026447 -2025986 -2024666 -2023611 -2023809 -2026777 
3640.312 -2033340 -2043399 -2055897 -2068956 -2079970 -2087093 -2088940 
3643.688 -2085114 -2076475 -2064372 -2051676 -2041288 -2036935 -2042508 
3647.063 -2060547 -2092270 -2136553 -2190623 -2249136 -2305630 -2354110 
3650.438 -2388711 -2405319 -2402913 -2383142 -2350749 -2312321 -2276428 
3653.813 -2251213 -2243367 -2256717 -2290206 -2337632 -2388546 -2432239 
3657.188 -2461859 -2475301 -2475565 -2468712 -2460410 -2454446 -2451876 
3660.564 -2451810 -2452272 -2451415 -2448252 -2442914 -2435863 -2427659 
3663.939 -2418038 -2406373 -2392402 -2376486 -2360075 -2345970 -2337995 
3667.314 -2340301 -2356977 -2390754 -2442255 -2508081 -2580155 -2646486 
3670.689 -2695092 -2717319 -2711162 -2681624 -2639735 -2599094 -2573402 
3674.065 -2573501 -2604034 -2660022 -2726802 -2785967 -2824748 -2839298 
3677.440 -2835808 -2824221 -2814444 -2811152 -2815168 -2822674 -2828895 
3680.815 -2829587 -2823135 -2810790 -2795021 -2777835 -2759661 -2739413 
3684.190 -2716298 -2689955 -2663710 -2642962 -2634136 -2643127 -2672963 
3687.566 -2721336 -2780798 -2841108 -2892589 -2929451 -2951106 -2960189 
3690.941 -2960749 -2955417 -2945347 -2930274 -2910329 -2886039 -2859772 
3694.316 -2834031 -2811679 -2793967 -2780963 -2771185 -2762658 -2753636 
3697.691 -2743726 -2733980 -2726374 -2723806 -2728218 -2740730 -2760221 
3701.067 -2784354 -2808650 -2828698 -2840680 -2842590 -2834755 -2818756 
3704.442 -2797885 -2775498 -2753900 -2734704 -2718241 -2703786 -2690318 
3707.817 -2676981 -2663809 -2652085 -2644412 -2643555 -2652085 -2671119 
3711.192 -2699175 -2732103 -2763843 -2788436 -2801078 -2800255 -2787449 
3714.568 -2766971 -2743825 -2723411 -2709186 -2702337 -2701019 -2701283 
3717.943 -2698945 -2690713 -2675796 -2656465 -2637166 -2622741 -2617340 
3721.318 -2621556 -2633544 -2649253 -2663512 -2673425 -2678002 -2678990 
3724.693 -2679187 -2681558 -2687025 -2694335 -2700131 -2700295 -2691306 
3728.069 -2672371 -2645663 -2614969 -2586314 -2565728 -2556834 -2561676 
3731.444 -2578508 -2602947 -2629130 -2652282 -2670823 -2686498 -2703193 
3734.819 -2724629 -2751990 -2782774 -2811481 -2831266 -2838574 -2832187 
3738.194 -2814543 -2789589 -2760386 -2728745 -2695092 -2660022 -2625903 
3741.570 -2598303 -2586314 -2600213 -2648265 -2730753 -2834294 -2934092 
3744.945 -3001192 -3017644 -2983751 -2914180 -2829060 -2747216 -2683732 
3748.320 -2646519 -2637463 -2652612 -2684654 -2725979 -2770461 -2814345 
3751.695 -2854045 -2884657 -2900850 -2898020 -2875309 -2836204 -2788305 
3755.071 -2740796 -2701217 -2674972 -2663183 -2663545 -2671580 -2683172 
3758.446 -2695883 -2708889 -2722324 -2735231 -2745142 -2748665 -2743199 
3761.821 -2728547 -2708231 -2687420 -2672239 -2666641 -2671185 -2681921 
3765.196 -2692886 -2697397 -2692063 -2678265 -2660581 -2645597 -2639011 
3768.572 -2642962 -2656465 -2674610 -2691338 -2701053 -2701415 -2692326 
3771.947 -2676257 -2656827 -2637199 -2619546 -2605187 -2594450 -2586775 
3775.322 -2581373 -2577454 -2574621 -2573567 -2575511 -2581933 -2593824 
3778.697 -2610457 -2629196 -2645861 -2656037 -2657025 -2648528 -2633675 
3782.073 -2616583 -2602157 -2593659 -2591452 -2593725 -2597117 -2598040 
3785.448 -2594515 -2586874 -2577059 -2567737 -2560721 -2556472 -2554034 
3788.823 -2551926 -2548797 -2544317 -2538981 -2533974 -2530021 -2527319 
3792.198 -2525343 -2523465 -2522148 -2522378 -2526199 -2535555 -2551004 
3795.573 -2570504 -2590036 -2603540 -2606142 -2595800 -2574687 -2548501 
3798.949 -2525903 -2516020 -2525672 -2557427 -2606043 -2660022 -2703588 
3802.324 -2723246 -2713664 -2677771 -2625903 -2570866 -2525936 -2501558 
3805.699 -2502579 -2527550 -2568363 -2612301 -2646223 -2662985 -2661075 
3809.074 -2645037 -2620732 -2593659 -2566452 -2539277 -2510749 -2479354 
3812.450 -2446044 -2414084 -2389107 -2377474 -2383867 -2408976 -2447659 
3815.825 -2489237 -2520731 -2532590 -2521818 -2492597 -2454512 -2419488 
3819.200 -2398004 -2397773 -2420245 -2460113 -2505248 -2540924 -2556011 
3822.575 -2547051 -2518524 -2479683 -2441102 -2411876 -2396158 -2394247 
3825.951 -2401661 -2411678 -2417115 -2413886 -2401628 -2383703 -2365413 
3829.326 -2351506 -2345245 -2347288 -2355164 -2364853 -2372366 -2374443 
3832.701 -2369137 -2357307 -2340598 -2322175 -2305630 -2294919 -2293633 
3836.076 -2304049 -2326658 -2358822 -2395961 -2431086 -2457905 -2472863 
3839.452 -2475598 -2468547 -2455896 -2441992 -2429900 -2421069 -2415896 
3842.827 -2413194 -2411909 -2410789 -2409174 -2407131 -2404561 -2401628 
3846.202 -2398366 -2394774 -2389832 -2382252 -2370521 -2352232 -2326493 
3849.577 -2294358 -2259090 -2227775 -2209941 -2215710 -2253783 -2325834 
3852.953 -2423672 -2527846 -2615759 -2670098 -2685378 -2667201 -2627122 
3856.328 -2576070 -2522543 -2470854 -2423507 -2381396 -2344981 -2315156 
3859.703 -2292875 -2278702 -2272176 -2272209 -2277351 -2286316 -2299138 
3863.078 -2316243 -2338291 -2363996 -2389271 -2407790 -2413326 -2401892 
3866.454 -2374476 -2337006 -2299500 -2271847 -2263145 -2276692 -2308663 
3869.829 -2348936 -2383900 -2403210 -2403276 -2387822 -2364491 -2342246 
3873.204 -2327383 -2321714 -2322703 -2324581 -2321351 -2308531 -2285591 
3876.579 -2255234 -2223028 -2195172 -2177534 -2174864 -2188941 -2217820 
3879.955 -2255992 -2295644 -2327745 -2345509 -2346333 -2332227 -2309454 
3883.330 -2286217 -2271089 -2270429 -2285360 -2311629 -2339642 -2358724 
3886.705 -2360108 -2341488 -2306553 -2263408 -2221545 -2189337 -2172721 
3890.080 -2173644 -2189502 -2214062 -2240038 -2260838 -2272473 -2274582 
3893.456 -2267891 -2255003 -2237401 -2216435 -2193260 -2168897 -2144829 
3896.831 -2123397 -2106878 -2096919 -2094380 -2098733 -2107570 -2119276 
3900.206 -2131442 -2143807 -2157522 -2174370 -2195799 -2222468 -2251674 
3903.581 -2279593 -2301577 -2313145 -2312090 -2299566 -2278439 -2253124 
3906.957 -2227248 -2204139 -2184458 -2168699 -2155742 -2144730 -2135498 
3910.332 -2127783 -2121650 -2116770 -2112186 -2106152 -2097579 -2085807 
3913.707 -2071363 -2056524 -2044355 -2037363 -2037265 -2043630 -2054150 
3917.082 -2065592 -2074364 -2078585 -2077794 -2073375 -2066714 -2059558 
3920.458 -2052699 -2045905 -2039507 -2033967 -2030075 -2029844 -2034428 
3923.833 -2044322 -2058074 -2072847 -2085114 -2091512 -2090324 -2081520 
3927.208 -2067142 -2049763 -2032252 -2016487 -2003823 -1995148 -1990927 
3930.583 -1991751 -1997886 -2008869 -2023710 -2040035 -2055139 -2066681 
3933.958 -2073078 -2074496 -2072188 -2068264 -2064208 -2060547 -2056953 
3937.334 -2051742 -2043498 -2031724 -2017114 -2001646 -1988717 -1981098 
3940.709 -1980933 -1988816 -2003757 -2022721 -2042706 -2059723 -2071067 
3944.084 -2075386 -2072749 -2065032 -2054875 -2044982 -2037990 -2035253 
3947.459 -2036737 -2040826 -2045773 -2049104 -2049533 -2047092 -2042574 
3950.835 -2037297 -2032417 -2028195 -2024007 -2019060 -2012563 -2004284 
3954.210 -1995511 -1987562 -1982417 -1981197 -1984330 -1990564 -1998545 
3957.585 -2006230 -2011738 -2014673 -2014739 -2012200 -2008440 -2003921 
3960.960 -1999733 -1996632 -1994852 -1994654 -1995610 -1997160 -1998084 
3964.336 -1997622 -1995214 -1990663 -1984858 -1978459 -1972951 -1968663 
3967.711 -1966453 -1965562 -1965727 -1966288 -1966618 -1966552 -1966090 
3971.086 -1965364 -1964243 -1962627 -1960318 -1956854 -1951907 -1945309 
3974.461 -1936601 -1925484 -1911959 -1896751 -1880883 -1866004 -1853599 
3977.837 -1845120 -1840764 -1840104 -1841754 -1844031 -1845482 -1845845 
3981.212 -1845317 -1844856 -1845417 -1847594 -1850893 -1854226 -1856568 
3984.587 -1857063 -1855479 -1852675 -1849739 -1848089 -1848617 -1851916 
3987.962 -1857327 -1864915 -1873361 -1881972 -1889593 -1895168 -1897279 
3991.338 -1895201 -1888240 -1877221 -1863398 -1849178 -1836970 -1828985 
3994.713 -1826280 -1828655 -1835320 -1844427 -1854753 -1865278 -1875572 
3998.088 -1885535 -1895465 -1905230 -1914071 -1921592 -1926507 
##END=
