
##TITLE=mdmaHCL00405_5
##JCAMP-DX=5.01  $$ Nicolet v. 1
##DATATYPE=INFRARED SPECTRUM
##ORIGIN=UniL
##OWNER=Nicolet
##LONGDATE=2011/08/23
##TIME=14:09:04
##SPECTROMETER/DATA SYSTEM=Nicolet iS5
##DATA PROCESSING=
Ratio against background
%Transmittance->Absorbance
Truncated
ElementMultiply or ElementDivide
##COMMENTS=
Number of sample scans: 32
Collection length: 51.19 sec
Sample gain: 2.0
Background collected on: Mar Aout 23 14:07:26 2011 (GMT+02:00);
Number of background scans: 32
Background gain: 2.0
Sample spacing:  1.000
Number of scan points: 12415
Resolution points: 8192
Number of FFT points: 65536
Apodization: N-B fort;
Phase correction: Mertz;
Laser frequency: 15798.0 cm-1
Number of rejected sample scans: 0
Number of rejected background scans: 0
Bench serial number: ASB1000141;
##RESOLUTION=4.000
##XUNITS=1/CM
##YUNITS=ABSORBANCE
##FIRSTX=649.893372
##LASTX=4000.122314
##FIRSTY=0.089701
##MAXX=4000.122314
##MINX=649.893372
##MAXY=0.219954
##MINY=-0.000336
##XFACTOR=1.000000
##YFACTOR=1.000000E-009
##NPOINTS=6950
##DELTAX=0.482117
##ZPD=6100
##XYDATA=(X++(Y..Y))
649.893 89700576 89518440 89411936 89379008 89402416 89460144 89534160 
653.268 89619760 89724536 89857928 90023528 90210520 90396944 90559480 
656.643 90683296 90769168 90830384 90886136 90950760 91026920 91106480 
660.018 91176416 91226360 91253224 91261440 91259272 91255016 91256488 
663.393 91268960 91298152 91348320 91417352 91488192 91520752 91446384 
666.767 91170280 90615032 89776104 88766656 87763728 86911864 86256456 
670.142 85756664 85329952 84892128 84383648 83774832 83071624 82301272 
673.517 81500264 80692944 79884976 79066856 78226672 77361776 76484496 
676.892 75618128 74786080 74004928 73277848 72600112 71965864 71374520 
680.267 70832576 70349976 69932256 69576368 69269584 68995256 68738760 
683.642 68494088 68264920 68061016 67891064 67756384 67649584 67556672 
687.016 67463424 67360688 67247408 67129320 67014440 66908440 66811472 
690.391 66719392 66627368 66532312 66434772 66338180 66245624 66158408 
693.766 66074648 65992056 65909868 65831392 65762536 65708876 65671524 
697.141 65644780 65616728 65574452 65507404 65413520 65298936 65174648 
700.516 65051584 64934672 64821252 64703404 64572208 64422988 64257836 
703.890 64085224 63915596 63756464 63609868 63471296 63333988 63190980 
707.265 63039056 62879564 62716028 62552520 62391596 62234292 62082664 
710.640 61941632 61820704 61731816 61684992 61683080 61716728 61762484 
714.015 61783648 61740408 61595024 61321452 60912316 60378692 59749784 
717.390 59064804 58372188 57723664 57168088 56754800 56525696 56509356 
720.765 56714588 57118692 57664480 58253916 58765776 59075212 59070008 
724.139 58686196 57919096 56829948 55525988 54140048 52800980 51597544 
727.514 50576080 49738884 49059336 48498392 48019508 47598744 47221608 
730.889 46879532 46565388 46269716 45983048 45699252 45417852 45144428 
734.264 44886864 44651268 44439140 44245716 44063452 43886472 43712532 
737.639 43544960 43388400 43246356 43117604 42996612 42874772 42744852 
741.013 42604004 42454764 42302688 42154132 42012712 41879216 41752328 
744.388 41630800 41515032 41407312 41309500 41221720 41140628 41060168 
747.763 40974592 40880768 40780628 40678732 40582060 40494980 40418240 
751.138 40348132 40279092 40206900 40130284 40050992 39972008 39895648 
754.513 39822104 39749300 39675416 39601252 39530588 39470128 39425644 
757.888 39400828 39394696 39403332 39422488 39450532 39490160 39547316 
761.262 39629056 39738880 39876656 40037660 40216712 40411076 40625500 
764.637 40872288 41173668 41557944 42055712 42697396 43504012 44478780 
768.012 45596124 46795976 47986716 49048616 49865300 50351960 50479820 
771.387 50294740 49910684 49486008 49164408 49040344 49121108 49325400 
774.762 49500080 49466068 49084900 48286376 47097876 45624460 44027256 
778.136 42472592 41089560 39963144 39119596 38541936 38185312 37999104 
781.511 37938644 37968364 38064964 38212416 38398860 38616644 38860688 
784.886 39129640 39425064 39750276 40108732 40503708 40937560 41413620 
788.261 41936580 42513484 43152956 43864404 44657508 45541880 46526992 
791.636 47624624 48847940 50210184 51723608 53394528 55220356 57185664 
795.010 59262704 61410828 63576192 65701284 67724632 69589544 71257648 
798.385 72715544 73985360 75123248 76216984 77367800 78661032 80149696 
801.760 81825416 83612120 85356408 86853456 87886992 88251016 87814304 
805.135 86546888 84534856 81961128 79068768 76115816 73297224 70723184 
808.510 68402736 66262952 64184160 62047268 59780472 57371440 54870452 
811.885 52362552 49948340 47712300 45706208 43952388 42445920 41166896 
815.259 40089036 39186172 38435168 37813732 37301776 36880876 36535496 
818.634 36255284 36034688 35871744 35766104 35716744 35721024 35776100 
822.009 35879556 36031668 36234932 36494048 36813540 37196216 37642456 
825.384 38149968 38713456 39323956 39968520 40629868 41284388 41907712 
828.759 42478180 42982784 43424104 43822876 44219740 44666728 45224656 
832.133 45954388 46902636 48095860 49525964 51144192 52848764 54488232 
835.508 55886704 56848080 57203880 56852648 55775136 54049828 51828276 
838.883 49318200 46728516 44236252 41977492 40025412 38402808 37095192 
842.258 36067128 35274736 34673376 34225188 33896312 33657968 33488396 
845.633 33371306 33296678 33260330 33260048 33293992 33358928 33449426 
849.008 33559660 33685540 33825600 33980968 34153456 34344336 34552740 
852.382 34776492 35014016 35265752 35535400 35829428 36154588 36515960 
855.757 36915868 37353772 37829060 38343084 38901060 39512840 40191884 
859.132 40953400 41814856 42795564 43915176 45194872 46651040 48288264 
862.507 50088616 52004268 53954332 55820160 57468064 58762476 59581956 
865.882 59849792 59538820 58680656 57355556 55686156 53818468 51889960 
869.256 50026740 48324112 46838120 45595384 44595380 43820604 43244964 
872.631 42840836 42583900 42452752 42430172 42502224 42656600 42884536 
876.006 43180440 43543240 43975596 44483148 45071348 45742616 46492252 
879.381 47306024 48160824 49022760 49850768 50604968 51247604 51753172 
882.756 52113340 52338708 52458336 52511128 52541940 52589884 52682084 
886.131 52834544 53051824 53331548 53669900 54063560 54511108 55009996 
889.505 55555472 56138620 56746304 57364408 57978808 58577164 59150116 
892.880 59688044 60181276 60618828 60989292 61283368 61495948 61626868 
896.255 61680864 61665440 61589752 61463312 61296460 61102128 60894892 
899.630 60690608 60504092 60345716 60219068 60121452 60045732 59983412 
903.005 59928216 59879116 59839604 59816896 59819560 59856944 59937916 
906.379 60071032 60265276 60529800 60871752 61296192 61804012 62393512 
909.754 63060968 63803592 64621076 65516384 66494392 67560768 68719928 
913.129 69975376 71331016 72794408 74376760 76095720 77971560 80022312 
916.504 82260264 84686320 87287592 90033152 92872240 95735552 98524152 
919.879 101116808 103378456 105162256 106343984 106845424 106657064 
922.771 105853776 104595424 103122968 101706880 100629784 100148232 
925.664 100434576 101565776 103494032 106058616 108984360 111920544 
928.557 114516248 116432472 117415304 117330424 116151760 113954576 
931.450 110874736 107088984 102778632 98117232 93280352 88428720 83711472 
934.824 79269312 75212560 71625112 68562800 66049880 64090484 62674724 
938.199 61784528 61394568 61467588 61951340 62764884 63796988 64920052 
941.574 65985380 66851468 67407576 67577768 67339832 66722596 65800936 
944.949 64676256 63458560 62255708 61149808 60195124 59418940 58823476 
948.324 58396296 58116584 57964684 57922692 57975856 58112420 58320648 
951.698 58588580 58905892 59263200 59654592 60076928 60528548 61007520 
955.073 61510304 62031596 62565684 63108444 63658124 64215660 64783208 
958.448 65361792 65950132 66544248 67139144 67731168 68319672 68906832 
961.823 69495984 70090224 70689728 71291704 71891728 72486440 73074832 
965.198 73658960 74242888 74829968 75422056 76019024 76619576 77224128 
968.573 77835704 78459776 79103272 79771680 80467848 81191856 81942832 
971.947 82721416 83530872 84377648 85268936 86210472 87204720 88250488 
975.322 89344936 90486056 91674096 92911472 94200744 95541456 96927656 
978.697 98349008 99790568 101237232 102675960 104094464 105481152 106823096 
982.072 108103944 109307144 110418952 111432440 112349760 113182064 
984.964 113946392 114659256 115335432 115986056 116619240 117244088 
987.857 117870936 118510480 119171840 119859376 120571088 121300224 
990.750 122038480 122779928 123522512 124267560 125016448 125767080 
993.643 126512232 127240656 127940296 128603176 129226608 129813240 
996.535 130366968 130889552 131378280 131827624 132232400 132593096 
999.428 132916600 133217600 133513672 133820416 134150568 134512080 
1002.321 134911328 135355696 135854016 136416224 137049344 137754880 
1005.213 138527360 139357008 140234144 141153792 142117824 143133840 
1008.106 144210896 145354976 146565216 147834672 149152336 150507312 
1010.999 151889664 153289296 154694208 156085616 157439712 158732064 
1013.891 159942768 161064480 162104880 163085872 164035936 164983808 
1016.784 165954832 166967200 168034976 169171648 170389872 171700784 
1019.677 173111008 174619280 176216192 177888560 179625904 181425072 
1022.570 183292704 185241584 187284928 189429456 191671744 193999008 
1025.462 196394240 198841056 201323712 203825776 206323888 208779760 
1028.355 211142496 213349648 215332672 217030384 218388048 219356480 
1031.249 219892784 219954000 219500240 218506384 216968928 214915584 
1034.142 212401392 209506704 206321456 202930784 199417760 195857056 
1037.035 192316592 188867488 185577296 182506256 179709472 177226096 
1039.928 175082320 173294192 171866768 170793616 170049152 169584240 
1042.821 169314304 169118288 168859520 168390592 167584464 166364480 
1045.714 164708144 162654960 160288256 157725728 155092720 152501552 
1048.607 150052320 147816288 145835184 144124992 142675104 141455248 
1051.500 140420432 139523856 138722960 137984080 137287232 136621136 
1054.393 135978208 135350448 134725936 134089248 133425680 132722024 
1057.286 131968632 131158320 130283224 129334016 128300816 127175688 
1060.179 125958024 124656168 123289280 121882104 120460576 119049488 
1063.072 117667776 116329944 115048432 113833464 112693184 111630688 
1065.965 110641136 109708864 108808560 107911344 106988424 106018568 
1068.858 104993272 103915792 102800040 101665008 100533256 99426488 98363296 
1072.234 97359624 96426152 95567392 94781080 94058440 93386376 92749528 
1075.609 92134904 91533472 90939816 90351856 89767720 89184032 88596784 
1078.984 88002128 87399576 86793208 86193016 85612784 85066040 84565888 
1082.359 84122168 83741968 83432048 83199592 83052296 82998544 83044592 
1085.735 83194296 83448064 83804696 84262016 84817968 85470192 86213144 
1089.110 87035128 87917456 88833288 89751296 90643736 91488520 92274576 
1092.485 93002136 93679432 94318272 94928528 95517600 96088072 96640800 
1095.860 97177072 97701272 98222440 98755640 99319480 99932720 100610112 
1099.236 101353408 102144968 102940376 103673416 104256440 104593568 
1102.129 104605368 104236648 103473264 102342672 100911224 99269592 97512808 
1105.504 95737368 94024168 92431632 91000352 89748568 88675576 87764904 
1108.879 86988936 86313528 85700320 85114976 84527368 83912160 83251200 
1112.254 82529960 81738448 80871608 79930456 78923656 77866264 76779408 
1115.630 75686600 74608760 73564200 72565888 71621752 70736328 69911536 
1119.005 69147136 68441024 67788376 67182000 66612764 66071368 65548516 
1122.380 65035536 64524152 64004472 63463128 62885112 62253032 61550960 
1125.755 60769068 59904788 58965400 57965936 56928644 55878564 54839248 
1129.131 53832608 52875108 51976520 51140612 50365056 49642516 48962636 
1132.506 48314444 47688372 47078160 46481776 45901576 45342628 44811404 
1135.881 44314324 43857072 43443876 43078816 42765616 42507892 42309408 
1139.256 42172788 42099260 42088016 42136428 42241440 42399704 42608464 
1142.632 42866068 43170412 43518916 43907512 44330436 44781132 45252600 
1146.007 45738460 46233040 46731840 47230916 47727280 48218984 48705396 
1149.382 49187708 49668260 50149748 50634156 51121936 51612428 52103628 
1152.757 52593776 53081628 53566544 54047728 54523204 54989540 55441200 
1156.133 55871892 56275100 56644556 56974504 57258544 57488072 57653732 
1159.508 57744176 57748112 57656872 57463828 57165252 56760012 56247792 
1162.883 55629584 54907412 54086492 53175168 52185376 51132412 50032540 
1166.258 48901148 47752724 46599800 45453204 44323832 43221796 42157420 
1169.634 41140372 40178292 39276948 38439584 37667536 36960892 36319368 
1173.009 35742860 35231648 34786188 34406740 34093312 33845732 33663804 
1176.384 33547814 33498600 33517710 33606988 33768224 34003508 34315648 
1179.759 34708476 35187452 35759732 36433004 37214696 38111080 39125944 
1183.135 40260768 41514596 42883512 44358764 45923856 47553900 49210124 
1186.510 50841548 52390888 53792592 54984124 55913612 56539396 56838180 
1189.885 56805816 56457164 55823476 54949300 53889176 52697124 51425336 
1193.260 50121040 48820356 47552420 46338792 45192812 44122352 43129572 
1196.635 42212116 41363832 40576496 39842332 39154224 38508300 37903316 
1200.011 37340156 36820464 36345340 35914284 35525260 35174624 34858456 
1203.386 34572756 34313532 34076324 33855936 33645256 33436074 33220164 
1206.761 32990128 32741244 32472290 32185272 31885314 31578798 31273458 
1210.136 30977302 30698308 30444726 30224824 30046504 29916992 29841958 
1213.512 29825490 29869820 29976028 30143912 30372728 30661184 31006946 
1216.887 31406582 31855754 32349728 32884002 33455510 34062420 34704384 
1220.262 35381268 36093480 36841312 37625008 38446064 39306872 40210424 
1223.637 41159496 42154864 43194672 44273344 45382500 46511280 47645996 
1227.013 48772044 49872180 50926520 51915500 52820140 53625132 54322460 
1230.388 54911284 55399228 55799400 56131116 56417928 56686084 56967780 
1233.763 57298616 57715184 58256416 58957276 59846180 60945712 62269512 
1237.138 63824160 65609364 67618344 69836392 72238168 74788952 77443104 
1240.514 80145792 82842856 85480080 88008296 90387512 92580544 94553176 
1243.889 96274472 97713392 98842376 99639456 100086104 100169264 99880720 
1247.264 99218376 98189048 96809376 95108200 93120448 90881768 88424048 
1250.639 85768088 82926024 79905848 76717856 73382432 69935368 66423572 
1254.015 62906600 59449788 56112608 52950492 50006704 47307760 44866548 
1257.390 42680508 40735936 39010044 37476308 36108352 34880500 33772232 
1260.765 32767288 31853258 31021536 30265178 29577986 28953786 28386294 
1264.140 27869180 27397356 26966906 26575662 26222324 25906060 25625630 
1267.516 25378750 25162942 24975562 24814890 24680476 24573030 24493516 
1270.891 24443106 24422110 24430418 24467644 24534218 24631518 24762026 
1274.266 24928574 25134012 25379452 25664154 25983724 26329088 26686742 
1277.641 27036826 27354620 27615230 27793862 27872924 27845616 27716474 
1281.017 27501162 27221252 26901686 26564602 26226336 25898182 25585528 
1284.392 25291150 25016836 24764376 24536076 24334458 24161658 24019250 
1287.767 23908712 23831208 23787912 23779022 23803556 23857952 23936930 
1291.142 24034272 24144318 24263640 24391442 24530046 24682614 24852606 
1294.518 25042846 25255224 25491174 25752918 26043282 26365774 26724090 
1297.893 27121006 27558350 28037630 28560394 29128504 29742878 30401974 
1301.268 31099052 31820174 32545674 33249456 33903656 34484072 34970736 
1304.643 35352548 35627824 35804132 35896940 35927168 35920512 35902300 
1308.019 35894848 35915940 35975400 36075552 36212316 36377840 36562524 
1311.394 36757068 36953964 37146260 37327592 37491228 37630176 37737684 
1314.769 37808488 37838568 37825624 37768368 37665872 37518032 37325752 
1318.144 37092700 36825656 36534160 36230180 35925044 35627964 35345180 
1321.520 35079532 34831924 34603256 34395192 34211352 34056188 33934212 
1324.895 33848920 33802716 33797344 33834880 33917804 34048696 34228128 
1328.270 34453332 34716876 35006796 35308840 35609696 35898020 36166796 
1331.645 36412824 36635020 36832620 37004692 37149004 37263904 37347956 
1335.021 37401800 37426900 37426216 37403064 37361100 37305244 37242280 
1338.396 37180836 37132328 37108836 37120456 37174484 37273580 37415632 
1341.771 37595668 37807404 38043876 38298172 38563768 38834600 39106512 
1345.146 39378044 39650984 39929468 40217876 40517240 40821832 41117936 
1348.521 41382640 41587152 41703308 41705240 41576396 41311684 40918120 
1351.897 40414604 39828064 39193060 38545628 37919368 37345464 36846396 
1355.272 36436892 36123548 35905972 35779268 35736240 35769952 35873256 
1358.647 36038468 36256836 36517292 36807520 37117096 37438672 37771440 
1362.022 38119908 38493456 38900988 39346772 39828132 40334100 40847496 
1365.398 41344552 41799024 42182904 42466564 42625788 42643844 42515088 
1368.773 42246228 41854296 41361972 40791112 40160228 39483556 38770220 
1372.148 38030168 37276680 36528500 35811868 35155220 34582376 34107328 
1375.523 33730264 33440944 33223238 33063348 32955024 32901764 32916636 
1378.899 33020732 33241660 33608096 34149876 34892632 35849000 37009488 
1382.274 38329588 39730816 41094408 42277416 43139380 43544704 43391736 
1385.649 42632224 41288984 39468680 37344564 35136436 33042506 31200256 
1389.024 29677346 28473954 27550866 26851032 26320218 25911968 25589358 
1392.400 25327292 25108208 24922290 24768234 24650456 24577062 24554656 
1395.775 24584672 24661784 24775564 24912536 25060046 25209642 25357568 
1399.150 25506320 25661762 25831328 26019430 26226196 26446970 26674374 
1402.525 26899922 27116210 27318910 27507304 27683348 27849572 28008082 
1405.901 28158982 28301762 28436560 28565880 28694388 28828636 28975180 
1409.276 29138320 29320060 29520068 29737238 29971200 30222870 30494132 
1412.651 30786260 31098730 31429380 31774256 32131176 32500140 32884538 
1416.026 33290204 33723892 34191812 34698068 35243864 35826944 36439308 
1419.402 37067152 37690552 38285760 38827248 39292872 39668660 39951264 
1422.777 40154304 40308248 40459952 40658428 40942480 41332236 41824888 
1426.152 42404128 43048636 43742504 44475332 45239988 46029972 46835276 
1429.527 47644888 48451080 49254656 50067044 50904688 51785904 52721588 
1432.903 53713692 54756028 55840956 56965664 58135300 59364424 60671788 
1436.278 62073944 63571968 65151164 66787160 68450416 70110392 71729888 
1439.653 73265144 74655024 75824864 76701840 77214784 77309160 76953192 
1443.028 76135560 74868856 73187760 71154512 68851496 66370144 63812540 
1446.404 61273184 58837404 56583256 54568696 52825340 51349552 50106164 
1449.779 49038824 48088864 47217028 46413560 45700688 45117776 44706684 
1453.154 44489136 44457380 44573348 44777680 45006620 45197812 45313576 
1456.529 45355024 45368008 45421528 45575548 45864932 46295700 46858788 
1459.905 47539852 48322780 49187080 50102260 51030144 51917480 52696744 
1463.280 53299552 53662288 53749012 53566020 53164680 52623656 52019284 
1466.655 51413660 50844788 50331572 49883404 49501828 49180624 48902856 
1470.030 48639532 48352668 48001928 47563400 47044148 46490816 45972656 
1473.406 45557812 45288568 45173840 45201712 45354144 45618572 45990780 
1476.781 46470860 47055744 47733084 48479536 49265940 50059832 50834804 
1480.156 51576420 52283316 52968644 53654680 54369884 55141868 55996796 
1483.531 56962908 58069656 59348320 60825516 62512612 64391324 66399524 
1486.906 68435440 70349048 71956872 73073696 73521304 73172032 71984320 
1490.282 70019952 67439744 64453892 61279784 58082992 54957948 51949216 
1493.657 49059672 46281284 43622692 41117280 38828476 36838172 35218640 
1497.032 34010960 33214762 32799520 32718342 32922852 33372742 34031280 
1500.407 34864128 35837560 36913452 38050388 39206916 40330388 41357892 
1503.783 42211388 42778412 42918552 42476464 41326112 39451732 37003536 
1507.158 34267892 31533762 28985982 26679766 24587196 22656520 20848714 
1510.533 19147770 17562542 16113797 14819082 13686851 12711921 11879143 
1513.908 11169177 10562140 10039764 9583961 9177942 8810373 8476462 8180993 
1517.766 7933606 7741843 7604347 7507887 7427964 7338653 7221801 7079554 
1521.623 6935433 6823403 6768071 6771807 6817782 6879650 6934760 6970213 
1525.481 6988294 7002403 7030184 7083292 7162074 7258121 7361299 7466019 
1529.338 7574069 7692161 7826513 7977579 8137844 8293409 8429230 8538601 
1533.196 8628227 8718885 8833198 8986406 9178381 9397224 9624747 9843339 
1537.053 10040984 10208425 10340096 10431961 10479989 10481924 10441159 
1540.428 10371282 10292425 10224606 10179219 10154153 10136007 10105993 
1543.803 10048885 9959542 9846221 9726320 9620004 9539217 9483742 9442563 
1547.661 9400304 9345118 9273555 9192934 9117674 9062929 9036608 9036405 
1551.518 9052475 9073654 9092906 9110433 9132765 9169583 9228775 9311806 
1555.376 9413917 9524586 9631217 9717714 9764137 9750243 9663334 9513544 
1559.233 9339668 9196419 9124476 9134356 9213747 9338449 9483607 9626238 
1563.091 9751192 9852457 9933573 10005889 10083610 10177353 10289405 
1566.466 10414042 10540005 10657039 10758209 10843334 10918384 10993821 
1569.841 11081439 11189474 11323280 11484582 11672492 11883740 12111992 
1573.216 12347725 12576459 12782074 12951667 13080486 13178226 13267619 
1576.592 13377087 13525173 13715165 13937161 14176353 14419136 14657154 
1579.967 14887999 15113134 15335365 15557093 15778864 15999958 16219135 
1583.342 16435498 16648009 16855010 17052014 17232352 17388760 17514588 
1586.717 17607776 17671546 17714960 17750580 17792106 17852624 17941670 
1590.093 18065898 18229414 18433436 18675914 18948846 19237948 19521632 
1593.468 19773352 19968076 20084730 20112908 20054296 19922282 19738502 
1596.843 19526206 19308714 19104626 18927802 18789696 18699090 18662910 
1600.218 18685634 18768314 18908872 19102930 19345538 19631614 19955724 
1603.594 20310944 20686016 21064614 21426728 21748212 22004326 22174354 
1606.969 22242146 22199774 22047900 21795206 21455690 21045520 20584280 
1610.344 20092260 19591610 19106356 18656820 18256886 17910732 17611916 
1613.719 17345098 17089716 16824976 16534824 16213702 15870923 15531474 
1617.094 15227255 14984911 14817916 14724194 14690878 14698487 14726114 
1620.470 14755181 14769921 14762620 14733722 14694374 14661644 14652459 
1623.845 14678231 14739858 14830328 14938750 15055330 15172867 15287451 
1627.220 15397086 15500191 15595523 15682530 15762234 15838448 15915947 
1630.595 15999682 16091205 16188422 16283493 16364031 16414886 16418878 
1633.971 16361209 16233925 16041797 15805013 15555478 15326303 15137390 
1637.346 14992457 14881209 14786993 14691872 14580701 14444929 14283859 
1640.721 14104537 13918582 13739138 13574979 13427628 13290850 13152543 
1644.096 12997550 12810124 12579767 12304639 11995246 11674228 11371883 
1647.472 11117538 10930107 10815207 10766055 10767856 10799716 10834400 
1650.847 10840107 10776958 10605223 10305216 9903708 9479813 9123020 8884701 
1654.704 8759454 8711988 8701475 8697486 8683085 8651684 8604805 8548300 
1658.562 8488626 8429197 8369573 8305702 8231642 8141963 8033233 7906712 
1662.419 7768524 7629536 7501482 7395338 7317120 7267184 7240466 7227933 
1666.277 7218534 7199904 7161063 7094440 6997487 6874600 6735932 6596232 
1670.134 6469726 6366557 6291954 6244689 6218304 6201868 6181769 6142616 
1673.991 6071344 5962962 5824920 5677859 5546082 5449038 5392238 5368050 
1677.849 5361643 5357752 5346816 5327126 5304787 5289492 5288386 5300561 
1681.706 5314614 5309684 5261655 5152201 4982072 4777503 4582909 4438007 
1685.564 4357074 4331271 4339370 4360320 4377992 4382778 4371901 4346666 
1689.421 4311493 4272341 4236839 4212716 4205724 4219140 4250458 4292050 
1693.279 4329363 4345896 4326151 4263474 4167418 4064326 3987810 3959387 
1697.136 3980754 4033725 4089846 4116404 4086334 3988980 3840098 3681409 
1700.993 3557554 3495155 3492082 3528825 3579770 3623303 3644553 3636534 
1704.851 3601085 3547866 3490879 3442016 3408452 3390820 3385544 3387380 
1708.708 3392123 3397332 3403109 3411224 3423247 3440279 3461888 3486437 
1712.566 3511722 3535773 3557721 3577030 3593000 3603390 3603624 3587019 
1716.423 3548133 3486270 3408319 3329814 3269050 3239973 3247251 3286444 
1720.281 3347143 3416868 3484466 3542822 3588957 3624038 3652439 3679939 
1724.138 3711251 3749183 3794270 3844878 3898200 3950091 3996170 4032320 
1727.995 4055731 4066500 4068306 4068039 4072955 4087973 4111621 4135304 
1731.853 4142562 4111955 4025163 3875634 3679338 3472175 3298329 3187166 
1735.710 3142775 3150085 3185364 3226120 3253961 3258468 3238071 3199416 
1739.568 3154223 3115175 3090614 3082672 3088111 3101092 3116577 3131161 
1743.425 3144177 3156826 3171178 3189369 3212067 3238772 3267581 3295792 
1747.282 3320165 3337393 3344672 3339397 3319063 3282738 3231327 3168641 
1751.140 3102728 3043297 2999788 2977702 2977502 2994117 3018940 3040894 
1754.997 3050504 3041662 3014469 2975133 2934667 2904245 2890102 2891937 
1758.855 2903178 2914453 2915353 2898541 2861485 2807389 2744198 2682116 
1762.712 2630709 2595942 2579342 2578543 2588509 2603042 2614908 2618542 
1766.570 2610975 2593209 2570976 2552478 2545146 2552045 2569876 2589142 
1770.427 2598275 2586376 2548445 2488824 2420747 2361243 2323100 2310974 
1774.284 2321134 2345419 2375169 2405088 2433442 2460932 2488557 2515817 
1778.142 2539947 2557111 2564244 2561211 2550912 2539013 2531414 2531048 
1781.999 2536847 2545012 2550445 2549312 2541346 2529115 2517717 2512152 
1785.857 2515218 2527315 2547279 2572943 2602809 2635276 2668747 2699585 
1789.714 2722625 2731560 2720457 2686850 2633609 2569177 2505920 2455001 
1793.572 2422946 2410485 2413317 2425579 2441606 2457200 2469929 2478793 
1797.429 2483425 2483026 2477794 2467430 2452602 2435008 2417149 2401789 
1801.286 2390828 2385963 2387163 2394526 2406987 2423679 2443338 2464198 
1805.144 2484625 2503054 2518584 2531648 2542880 2553445 2563810 2573443 
1809.001 2580542 2583176 2579609 2569977 2556011 2541280 2529348 2522816 
1812.859 2522916 2528815 2538513 2549845 2561711 2574143 2587942 2604742 
1816.716 2625342 2649611 2676681 2704320 2730360 2753634 2773808 2792182 
1820.573 2810291 2830000 2852546 2877127 2901510 2922492 2937136 2944075 
1824.431 2944708 2943774 2947677 2961789 2988512 3025579 3067288 3105130 
1828.288 3131128 3140573 3133998 3117678 3101026 3093851 3102494 3127624 
1832.146 3165571 3211232 3259169 3305908 3350048 3391621 3431028 3468401 
1836.003 3503271 3535406 3565271 3595138 3629284 3672721 3730367 3805033 
1839.861 3896763 4002222 4115568 4229512 4335856 4427363 4499571 4552136 
1843.718 4590008 4622490 4660501 4712015 4779279 4858683 4942089 5019847 
1847.575 5083035 5126451 5148546 5151564 5139158 5115220 5081963 5039456 
1851.433 4986899 4924026 4852182 4774656 4695736 4618840 4545842 4475969 
1855.290 4407312 4337596 4265749 4192575 4120184 4050714 3985636 3924948 
1859.148 3867577 3812788 3760546 3711585 3667475 3629150 3596741 3568812 
1863.005 3544191 3521944 3503105 3488842 3480826 3478220 3478053 3474780 
1866.863 3462021 3435503 3395095 3345941 3296927 3258134 3236869 3235567 
1870.720 3251490 3278531 3310315 3340766 3365909 3383340 3391388 3389852 
1874.577 3379132 3360800 3337861 3313554 3290984 3272055 3256431 3241843 
1878.435 3225586 3205191 3180524 3152754 3124987 3099557 3077733 3058412 
1882.292 3039360 3018439 2994884 2970229 2947944 2931865 2924627 2926394 
1886.150 2934367 2944275 2951547 2952615 2945776 2931765 2913285 2893505 
1890.007 2876394 2865053 2861751 2867088 2880530 2899976 2922625 2945109 
1893.865 2964758 2980004 2990914 2998821 3005427 3011900 3018506 3024979 
1897.722 3030451 3034955 3038992 3043797 3050004 3058045 3066388 3073795 
1901.579 3078934 3081904 3084240 3088445 3097255 3111371 3130360 3152020 
1905.437 3173314 3191572 3204823 3212568 3214203 3210231 3200818 3186999 
1909.294 3171245 3156860 3147982 3147682 3157427 3175751 3199049 3222849 
1913.152 3244013 3261773 3276695 3290884 3304806 3316726 3323170 3320098 
1917.009 3306242 3284007 3260337 3244480 3243045 3257833 3283973 3312318 
1920.866 3332585 3336726 3322602 3293321 3256732 3221013 3192740 3175050 
1924.724 3167140 3167006 3173181 3185130 3202921 3225886 3251791 3276662 
1928.581 3296226 3307578 3310582 3308012 3304372 3303872 3308813 3318262 
1932.439 3329213 3338696 3344405 3345708 3343804 3340699 3338228 3338061 
1936.296 3341434 3349781 3365174 3389084 3420608 3457112 3492516 3519906 
1940.154 3533535 3530762 3513426 3487406 3460953 3440980 3431028 3430894 
1944.011 3437975 3448796 3461654 3476550 3494721 3516599 3540750 3564436 
1947.868 3584180 3597677 3605528 3610573 3616220 3625909 3640677 3659021 
1951.726 3677867 3694542 3707843 3718670 3729398 3741663 3755600 3769871 
1955.583 3781669 3788087 3788154 3781937 3770941 3757338 3742933 3728562 
1959.441 3715295 3703264 3693974 3688126 3686589 3689864 3697550 3709547 
1963.298 3726791 3750620 3782806 3823819 3870185 3916087 3952766 3972929 
1967.156 3973732 3957046 3930865 3905489 3888773 3883290 3887502 3894857 
1971.013 3900039 3900106 3897766 3899170 3911440 3939525 3984131 4042721 
1974.870 4110183 4182640 4258655 4337931 4419463 4500107 4573131 4630795 
1978.728 4666597 4677750 4666363 4638130 4600255 4558063 4515608 4473827 
1982.585 4432317 4391447 4353493 4320361 4295430 4280405 4274750 4277393 
1986.443 4285358 4297304 4312563 4330869 4351217 4371365 4388000 4397974 
1990.300 4399112 4392719 4381473 4371465 4367248 4371666 4384652 4403832 
1994.157 4425020 4445506 4462879 4475902 4484071 4486849 4483435 4473927 
1998.015 4458863 4440484 4421605 4404534 4390677 4378327 4364805 4347034 
2001.872 4323206 4293590 4260696 4228877 4201107 4180264 4167886 4164675 
2005.730 4171901 4191137 4223757 4267924 4319022 4368788 4407513 4427363 
2009.587 4425455 4404401 4371834 4336759 4307979 4290544 4285692 4293322 
2013.445 4312865 4345159 4392418 4455448 4531109 4613247 4691282 4754824 
2017.302 4796432 4815193 4815494 4805477 4793885 4787620 4788793 4797235 
2021.159 4810034 4825479 4842365 4859722 4877480 4893866 4907103 4916017 
2025.017 4921244 4925936 4934280 4949764 4973526 5003724 5035735 5064497 
2028.874 5087427 5104659 5118338 5132016 5148177 5167122 5187978 5210177 
2032.732 5234590 5265210 5306933 5362783 5432296 5510208 5588538 5658288 
2036.589 5713377 5751081 5773879 5785128 5789124 5788721 5784927 5778278 
2040.447 5770253 5762631 5758065 5758635 5764478 5773577 5782845 5789594 
2044.304 5792717 5794127 5797653 5807055 5824988 5851484 5884800 5921075 
2048.161 5957184 5988997 6013353 6025885 6023163 6002401 5964003 5911468 
2052.019 5852928 5797620 5755110 5731675 5727981 5739195 5757561 5775390 
2055.876 5788218 5796209 5802422 5811253 5824752 5841409 5856992 5866597 
2059.734 5867134 5859477 5847521 5836842 5832779 5836540 5846547 5858167 
2063.591 5867302 5870560 5867907 5861190 5853096 5845809 5840200 5835969 
2067.448 5832543 5829689 5827506 5826297 5825491 5823946 5819950 5812462 
2071.306 5801851 5790367 5781669 5778681 5783718 5795605 5811656 5827573 
2075.163 5840234 5847521 5849469 5847555 5842988 5836775 5828849 5819211 
2079.021 5808063 5797149 5788754 5785095 5787580 5796041 5808566 5822670 
2082.878 5835633 5846581 5854708 5860720 5865019 5867638 5868142 5866362 
2086.736 5862970 5858671 5855346 5854272 5855380 5857462 5858201 5855212 
2090.593 5847017 5834021 5818271 5802791 5790635 5783852 5783483 5789796 
2094.450 5802018 5819749 5841846 5867067 5893533 5919429 5942639 5962190 
2098.308 5978280 5992087 6005156 6018494 6031932 6044262 6053771 6059718 
2102.165 6062977 6065699 6071848 6083978 6104139 6131694 6164394 6199582 
2106.023 6234437 6267548 6298004 6326211 6352133 6376275 6398870 6421367 
2109.880 6445647 6474165 6508874 6550247 6596232 6642524 6683539 6714934 
2113.738 6734182 6741990 6742023 6739230 6738523 6742831 6752860 6766994 
2117.595 6782946 6798126 6810982 6821686 6831312 6841881 6855346 6873725 
2121.452 6897626 6927117 6961122 6997386 7033719 7067261 7096461 7121115 
2125.310 7142167 7161367 7180500 7200544 7221195 7240870 7258020 7271328 
2129.167 7281032 7288613 7296801 7308089 7325443 7350279 7383643 7425807 
2133.025 7476502 7534520 7597974 7663360 7726462 7782523 7828166 7861905 
2136.882 7884611 7898041 7904587 7906375 7904182 7897804 7888222 7876345 
2140.740 7865413 7858463 7858902 7867539 7883600 7903440 7922505 7936576 
2144.597 7941570 7936171 7919501 7891528 7852997 7804990 7749938 7691284 
2148.454 7631863 7574945 7520765 7467603 7412662 7352941 7287939 7220488 
2152.312 7155640 7098212 7051534 7013010 6976543 6933581 6879650 6816637 
2156.169 6757133 6719880 6727014 6794289 6924492 7103937 7306943 7504145 
2160.027 7667710 7783265 7846654 7864907 7849725 7815043 7773246 7733511 
2163.884 7701908 7680054 7667845 7660493 7651624 7634595 7604583 7558424 
2167.741 7497167 7424054 7342697 7256537 7166756 7073121 6975634 6875341 
2171.599 6775307 6680545 6597611 6530939 6483549 6455097 6442452 6442317 
2175.456 6449178 6459031 6466867 6467708 6456711 6430715 6388917 6334818 
2179.314 6275683 6221161 6180256 6159419 6160394 6180794 6215413 6258774 
2183.171 6306409 6354722 6401527 6442889 6473795 6489333 6485600 6462966 
2187.029 6425402 6380948 6339054 6307384 6289499 6284322 6287785 6293970 
2190.886 6298610 6300795 6301467 6302980 6307451 6315318 6325236 6335221 
2194.743 6342685 6346115 6344770 6338819 6328598 6314545 6297534 6279112 
2198.601 6260892 6245765 6235345 6230471 6230572 6233127 6235379 6234707 
2202.458 6230102 6221732 6211111 6199985 6189970 6182408 6177870 6176997 
2206.316 6180492 6187886 6199414 6213833 6229698 6245328 6259211 6270439 
2210.173 6278876 6284154 6285869 6282910 6275347 6264052 6251076 6241295 
2214.031 6239278 6248791 6270775 6301803 6336230 6367163 6389254 6400585 
2217.888 6402704 6400048 6397424 6397828 6402132 6407513 6411850 6412422 
2221.745 6408958 6402872 6396281 6390699 6386698 6383100 6378595 6372542 
2225.603 6365481 6358857 6354554 6353108 6354016 6355764 6356840 6356268 
2229.460 6354487 6353411 6354184 6357580 6363061 6368541 6372576 6374190 
2233.318 6374022 6374459 6377485 6384345 6394768 6407176 6419114 6429034 
2237.175 6436735 6442351 6447193 6451734 6455634 6458258 6458527 6456644 
2241.032 6453650 6452002 6454256 6462058 6475376 6492999 6512978 6532924 
2244.890 6551828 6568849 6584256 6597745 6609184 6617729 6623348 6626342 
2248.747 6627957 6630110 6634551 6642323 6653527 6667893 6684649 6703661 
2252.605 6724827 6748350 6773456 6798227 6819633 6834241 6839828 6835048 
2256.462 6821585 6801862 6779379 6756797 6735865 6716886 6699926 6685188 
2260.320 6673277 6665572 6662813 6664865 6670585 6677718 6683910 6687443 
2264.177 6688452 6687947 6687813 6689697 6693937 6699993 6706488 6711838 
2268.034 6715304 6716953 6717222 6716919 6716516 6715708 6714160 6711737 
2271.892 6708137 6703964 6700162 6697167 6695821 6696325 6698916 6703796 
2275.749 6710997 6720789 6732500 6745153 6757133 6766759 6772278 6773388 
2279.607 6770360 6764807 6758412 6753061 6749864 6749360 6751311 6755215 
2283.464 6760027 6764840 6768475 6769888 6768441 6763763 6756157 6746566 
2287.322 6735932 6725467 6715775 6706454 6697133 6686837 6675228 6662779 
2291.179 6650633 6640169 6632734 6628798 6628326 6630244 6633373 6636569 
2295.036 6638958 6639967 6639261 6636738 6632027 6625063 6616383 6606559 
2298.894 6596837 6588461 6582338 6578941 6578167 6579378 6582204 6586442 
2302.751 6592161 6599562 6608511 6618906 6629504 6639833 6649052 6657429 
2306.609 6665605 6674656 6685356 6698042 6712275 6726678 6740172 6751749 
2310.466 6761172 6768946 6776249 6784057 6793582 6805261 6819330 6835924 
2314.323 6854807 6875879 6898838 6923178 6948160 6972671 6995466 7015569 
2318.181 7032238 7045035 7054363 7061536 7068170 7075782 7085447 7097235 
2322.038 7108956 7117073 7117039 7104510 7077196 7035033 6981493 6922067 
2325.896 6863660 6812127 6772177 6745523 6731255 6726611 6728495 6733678 
2329.753 6740374 6747408 6754980 6763057 6771941 6782105 6794087 6808929 
2333.611 6827711 6850566 6877058 6905066 6932168 6955264 6972906 6984961 
2337.468 6993109 7000551 7009743 7022674 7039579 7059246 7080092 7100098 
2341.325 7118218 7133510 7144693 7149981 7146512 7132096 7105689 7069854 
2345.183 7030992 6998194 6982200 6991628 7031093 7100334 7194918 7307179 
2349.040 7427627 7547466 7658571 7754458 7832012 7890820 7933336 7963674 
2352.898 7986691 8005826 8023411 8039916 8055071 8068472 8081062 8093992 
2356.755 8109318 8128729 8152328 8180115 8209795 8239577 8267134 8290707 
2360.613 8308471 8320022 8324683 8323163 8316847 8308572 8300974 8297022 
2364.470 8298035 8303912 8312592 8320867 8326304 8327115 8323400 8316915 
2368.327 8310160 8305432 8303642 8304857 8308099 8311815 8315226 8318299 
2372.185 8321170 8324717 8329445 8335323 8342381 8350792 8360824 8373356 
2376.042 8389098 8408859 8433116 8461731 8494268 8530221 8569387 8611801 
2379.900 8657294 8705937 8757053 8810035 8863733 8917236 8969798 9020844 
2383.757 9070068 9117132 9161495 9202715 9240452 9274706 9305781 9334454 
2387.615 9361369 9387168 9412088 9435553 9457191 9476257 9492682 9506263 
2391.472 9517337 9526347 9533526 9539217 9543823 9548057 9552596 9558219 
2395.329 9565399 9574613 9585554 9597850 9611636 9627322 9645920 9668551 
2399.187 9696503 9730014 9768611 9810972 9855541 9900793 9945913 9990971 
2403.044 10036677 10083373 10132175 10183595 10237871 10295851 10358421 
2406.419 10426260 10500117 10580133 10665359 10754507 10846018 10938363 
2409.795 11030593 11122705 11214770 11306888 11398788 11490230 11580058 
2413.170 11667659 11752247 11833515 11911223 11984346 12052065 12112843 
2416.545 12165656 12210059 12246763 12276825 12302593 12325875 12347725 
2419.920 12368691 12388805 12407045 12422900 12436128 12447380 12457576 
2423.296 12468146 12480695 12496893 12518309 12546275 12581575 12624382 
2426.671 12674154 12729833 12790366 12855104 12924052 12998233 13078983 
2430.046 13167706 13264988 13370697 13483576 13602090 13724604 13850162 
2433.421 13978221 14108815 14242052 14378000 14516390 14656709 14798854 
2436.797 14942728 15088947 15238408 15391731 15549846 15712932 15881475 
2440.172 16055206 16234372 16418086 16605768 16796182 16987956 17179744 
2443.547 17370412 17559988 17748750 17937768 18127768 18319404 18512542 
2446.922 18706596 18900496 19093650 19285090 19474014 19659626 19840944 
2450.298 20016578 20185516 20346880 20500766 20647618 20788508 20924504 
2453.673 21056126 21183684 21306616 21424012 21534720 21637692 21731526 
2457.048 21815204 21887540 21947760 21995230 22029808 22051700 22061426 
2460.423 22059508 22046052 22021094 21984740 21937166 21879456 21813044 
2463.799 21739886 21662348 21582740 21503212 21425822 21352764 21286118 
2467.174 21228288 21181562 21147714 21128162 21123744 21134946 21162080 
2470.549 21205602 21265832 21343018 21436648 21545028 21665798 21796112 
2473.924 21932424 22072302 22213480 22354492 22493842 22630026 22760804 
2477.300 22884288 22998374 23101938 23194446 23275890 23346686 23406480 
2480.675 23454668 23490168 23512062 23519966 23514582 23497478 23470580 
2484.050 23435784 23394204 23346440 23292566 23232580 23166868 23096380 
2487.425 23022272 22945624 22867210 22787238 22705396 22621476 22534778 
2490.801 22445270 22352402 22255538 22153922 22045668 21929010 21802662 
2494.176 21665692 21518148 21360524 21194608 21021696 20843152 20660024 
2497.551 20472770 20281258 20085422 19884438 19678276 19466704 19250556 
2500.926 19030986 18810180 18590624 18374670 18164214 17960940 17764870 
2504.302 17575894 17393346 17216630 17045398 16879950 16720213 16566904 
2507.677 16420392 16280914 16148804 16024813 15908867 15801473 15702454 
2511.052 15610773 15525052 15443915 15366019 15291019 15219534 15152932 
2514.427 15093167 15041335 14998013 14962619 14934121 14910939 14892079 
2517.802 14877060 14866054 14859368 14857036 14858716 14863654 14870957 
2521.178 14879940 14890262 14902228 14916426 14933572 14954388 14979184 
2524.553 15008234 15041437 15078485 15118658 15160584 15202445 15241840 
2527.928 15276090 15302998 15320777 15328569 15326407 15314805 15295275 
2531.303 15269294 15238820 15205568 15171426 15137835 15105586 15075192 
2534.679 15046377 15018284 14990194 14961419 14931479 14900137 14867974 
2538.054 14835367 14802866 14770984 14740749 14712745 14687622 14665756 
2541.429 14647216 14631176 14616578 14602460 14588103 14573026 14557984 
2544.804 14543593 14530608 14519678 14510188 14501213 14491723 14480623 
2548.180 14467195 14451643 14434275 14415951 14397249 14378617 14360808 
2551.555 14344163 14329163 14316184 14305877 14298241 14293036 14289954 
2554.930 14288550 14288036 14288003 14287762 14286633 14283722 14278449 
2558.305 14270368 14259685 14246948 14233150 14219283 14205213 14190423 
2561.681 14173683 14153759 14130140 14103237 14074794 14046696 14021098 
2565.056 13999093 13980547 13964397 13949273 13934081 13918582 13903427 
2568.431 13889845 13879103 13872021 13868908 13869626 13873971 13881873 
2571.806 13893403 13908695 13927855 13949786 13973977 13998957 14024143 
2575.182 14049091 14074007 14099197 14124903 14151089 14177687 14204220 
2578.557 14231266 14259205 14288995 14321561 14357041 14394543 14432768 
2581.932 14469867 14504502 14536295 14565967 14594955 14625043 14657702 
2585.307 14693962 14733963 14777532 14824088 14873186 14924381 14977161 
2588.683 15031112 15085449 15139243 15192082 15243659 15293834 15342779 
2592.058 15390770 15437596 15483228 15527387 15570177 15611769 15652334 
2595.433 15691770 15730040 15766598 15800821 15832538 15862435 15891271 
2598.808 15921034 15953345 15989371 16029662 16073944 16121121 16170470 
2602.184 16221439 16273793 16328009 16384469 16443104 16503846 16565837 
2605.559 16628455 16691428 16754752 16818708 16883946 16951194 17020758 
2608.934 17092888 17167646 17244762 17324030 17404900 17486680 17568028 
2612.309 17648252 17725902 17800116 17870886 17938114 18002244 18063792 
2615.685 18123206 18180524 18235600 18288332 18338586 18386320 18431708 
2619.060 18474682 18515480 18554002 18590208 18624100 18655782 18685322 
2622.435 18712650 18738008 18761186 18782464 18802288 18821044 18839452 
2625.810 18858588 18878970 18900462 18923130 18946492 18970200 18993876 
2629.186 19017970 19042654 19068410 19095312 19123012 19151370 19179872 
2632.561 19207818 19235316 19261848 19287758 19312664 19336670 19358842 
2635.936 19379144 19397298 19413618 19428724 19443832 19459772 19477584 
2639.311 19498030 19521076 19547036 19575770 19606966 19640246 19675088 
2642.687 19710902 19747102 19783132 19818538 19853430 19888080 19923010 
2646.062 19958918 19996836 20037258 20080600 20127102 20176388 20228038 
2649.437 20281224 20335248 20389140 20442762 20495660 20548392 20601582 
2652.812 20655784 20711870 20770122 20830706 20893804 20959274 21027052 
2656.188 21097204 21169838 21244398 21320746 21397732 21474768 21551190 
2659.563 21626546 21701116 21775592 21850674 21927058 22005130 22084678 
2662.938 22165498 22246574 22327668 22408288 22488260 22567828 22647166 
2666.313 22726588 22806514 22886944 22968366 23050922 23134962 23220940 
2669.688 23309242 23400010 23493560 23589614 23687928 23788262 23890228 
2673.064 23993756 24098538 24204676 24312170 24420848 24530082 24639620 
2676.439 24748380 24856008 24962368 25067382 25171510 25275628 25380436 
2679.814 25486746 25595158 25706160 25819936 25937364 26058518 26183998 
2683.189 26314198 26449330 26589402 26734380 26884166 27038554 27197370 
2686.565 27360302 27527178 27696768 27868648 28042190 28217142 28393616 
2689.940 28572180 28753930 28939334 29128718 29321548 29517374 29714884 
2693.315 29914116 30114826 30317582 30523278 30732768 30946666 31164906 
2696.690 31387206 31612546 31840388 32070064 32301076 32533318 32766756 
2700.066 33001460 33237438 33474654 33712720 33951340 34189520 34426180 
2703.441 34660028 34890052 35115132 35334756 35548632 35756640 35958624 
2706.816 36154336 36343036 36523888 36696308 36859816 37014324 37159868 
2710.191 37296576 37424408 37543244 37653188 37754452 37847676 37933832 
2713.567 38014112 38089160 38159268 38223704 38281380 38330632 38369904 
2716.942 38398244 38415188 38420652 38415404 38400092 38376056 38344892 
2720.317 38308448 38268788 38228516 38189548 38154092 38124140 38101456 
2723.692 38087500 38083736 38091256 38110936 38142624 38185928 38240132 
2727.068 38304216 38377652 38460076 38551932 38653436 38764604 38884896 
2730.443 39013124 39147412 39285760 39426664 39568948 39711936 39855736 
2733.818 39999980 40144676 40289416 40433804 40577112 40719164 40859108 
2737.193 40996224 41129412 41257428 41378956 41493416 41601116 41702760 
2740.569 41800008 41895200 41990228 42086884 42186408 42289572 42396856 
2743.944 42509168 42626700 42750336 42880660 43017460 43160896 43309724 
2747.319 43462956 43618696 43774828 43928776 44077536 44218568 44349516 
2750.694 44468392 44574268 44666800 44746352 44813388 44868568 44912400 
2754.070 44945252 44967408 44979428 44981080 44972296 44952232 44919676 
2757.445 44873160 44811000 44732028 44635440 44521292 44389628 44241092 
2760.820 44075740 43893876 43696044 43483028 43256276 43017940 42770920 
2764.195 42518340 42263316 42008696 41757396 41511972 41274588 41047860 
2767.571 40833808 40634012 40449916 40282036 40130904 39996164 39878184 
2770.946 39777112 39692696 39625248 39574320 39538424 39516216 39505112 
2774.321 39502352 39505220 39511100 39517304 39522096 39523436 39519992 
2777.696 39510192 39492844 39466500 39429964 39381780 39321016 39247100 
2781.072 39160172 39061444 38953136 38838296 38719904 38601248 38484800 
2784.447 38372184 38264084 38160096 38059504 37960736 37862244 37762004 
2787.822 37658432 37549820 37435240 37313692 37185348 37050300 36909520 
2791.197 36764348 36616380 36467488 36319872 36175004 36034872 35900788 
2794.573 35773800 35654512 35543956 35442560 35351648 35272580 35207000 
2797.948 35156336 35121776 35103672 35101516 35114484 35141248 35180588 
2801.323 35231432 35292812 35363836 35443676 35530688 35623652 35721024 
2804.698 35821584 35924288 36028644 36134244 36240952 36347936 36454012 
2808.073 36557876 36657764 36751980 36838932 36916624 36983584 37037848 
2811.449 37077980 37102444 37110348 37101328 37075848 37034640 36979148 
2814.824 36911072 36832112 36744516 36650520 36552940 36454552 36358996 
2818.199 36269944 36191320 36126536 36079584 36053336 36050348 36071628 
2821.574 36117496 36186492 36276356 36383780 36505436 36637396 36776648 
2824.950 36920088 37064660 37207152 37344380 37473060 37590032 37692868 
2828.325 37780004 37850532 37904584 37942404 37964388 37971512 37964280 
2831.700 37944140 37912608 37872080 37824936 37773864 37721164 37668332 
2835.075 37616620 37566152 37516764 37467932 37419136 37369732 37319540 
2838.451 37268484 37216756 37165064 37114896 37067512 37025256 36989968 
2841.826 36963884 36949236 36947508 36960276 36988636 37033920 37097104 
2845.201 37179396 37282028 37406136 37551772 37718348 37902664 38099396 
2848.576 38301464 38498956 38682120 38841560 38969412 39060976 39114884 
2851.952 39132652 39118548 39078304 39018816 38946796 38869096 38791704 
2855.327 38719284 38655500 38602736 38561236 38530168 38508048 38492332 
2858.702 38480276 38469704 38458120 38443132 38422788 38394480 38355824 
2862.077 38304832 38239804 38159556 38063804 37953320 37829200 37694172 
2865.453 37551196 37404652 37258956 37119152 36989788 36874928 36777692 
2868.828 36700344 36644424 36610504 36598644 36607656 36635452 36678460 
2872.203 36732400 36791684 36851156 36906456 36954216 36993036 37022768 
2875.578 37044524 37059284 37068272 37072384 37071772 37066752 37057624 
2878.954 37044848 37029116 37010860 36990836 36970128 36949128 36928784 
2882.329 36910024 36893540 36880228 36870776 36865836 36865944 36871788 
2885.704 36883764 36902268 36927160 36957572 36992028 37028540 37065204 
2889.079 37100136 37132616 37162432 37190080 37216464 37242280 37268416 
2892.455 37294952 37322248 37350304 37379120 37408984 37440008 37472300 
2895.830 37506004 37541296 37578580 37618612 37661900 37708916 37759260 
2899.205 37812068 37865932 37919116 37970136 38018416 38063624 38106340 
2902.580 38146896 38185096 38220192 38250660 38275012 38291476 38299004 
2905.956 38297592 38287500 38270344 38247148 38220264 38191756 38163968 
2909.331 38139260 38120124 38108008 38104136 38108692 38120808 38139116 
2912.706 38161256 38184408 38205612 38220880 38226380 38218236 38193168 
2916.081 38149064 38085256 38002940 37904544 37793164 37672560 37545776 
2919.457 37415376 37283184 37150160 37016812 36883332 36749240 36614612 
2922.832 36479380 36343720 36208752 36076236 35948084 35826908 35714688 
2926.207 35612716 35521480 35440224 35367104 35299784 35235496 35171572 
2929.582 35105504 35035636 34961080 34882404 34801228 34720248 34643484 
2932.958 34574732 34517832 34476148 34452076 34447236 34462840 34499104 
2936.333 34555716 34631068 34722868 34827400 34940680 35058768 35178544 
2939.708 35298204 35417576 35537304 35658576 35781536 35905464 36027848 
2943.083 36144900 36251576 36342712 36412536 36455488 36466696 36441760 
2946.458 36377912 36274700 36133988 35961076 35762968 35548880 35328392 
2949.834 35109848 34900388 34704924 34526224 34365460 34222644 34097220 
2953.209 33988028 33894016 33813924 33746452 33690588 33645472 33610100 
2956.584 33584256 33567108 33558016 33556188 33560844 33570868 33585864 
2959.959 33605092 33628288 33655212 33685608 33719056 33755332 33793976 
2963.335 33834376 33876324 33919524 33963488 34008276 34053568 34099408 
2966.710 34145464 34191852 34237740 34282444 34324472 34362556 34395548 
2970.085 34423164 34445764 34465136 34483428 34502728 34524968 34550692 
2973.460 34579256 34609428 34639500 34668136 34694764 34719568 34742824 
2976.836 34764720 34784500 34799900 34807688 34803920 34784500 34746164 
2980.211 34687912 34610184 34516108 34409896 34296716 34181704 34068404 
2983.586 33959260 33854720 33753540 33653244 33551108 33444378 33331164 
2986.961 33210364 33081978 32946554 32805168 32658502 32506284 32347478 
2990.337 32179988 32000758 31807054 31596654 31369328 31126886 30873090 
2993.712 30613610 30354322 30100480 29855834 29621580 29396172 29176624 
2997.087 28958778 28738636 28513194 28281112 28042438 27798736 27552244 
3000.462 27305360 27060486 26819664 26584362 26355986 26135468 25923540 
3003.838 25720856 25527542 25343202 25167542 24999288 24837170 24680196 
3007.213 24527380 24378404 24233194 24092374 23956502 23826166 23701576 
3010.588 23582548 23468448 23358400 23251140 23145830 23042152 22939406 
3013.963 22837908 22737620 22638928 22541898 22447052 22354598 22265234 
3017.339 22179584 22098066 22021338 21949362 21882000 21818864 21759498 
3020.714 21703484 21650368 21599872 21551504 21504882 21459764 21415730 
3024.089 21373230 21333204 21296908 21266494 21243944 21230760 21227662 
3027.464 21234030 21247704 21265728 21284240 21298960 21306094 21302754 
3030.840 21286850 21257480 21214788 21159576 21093518 21018080 20935318 
3034.215 20847184 20755802 20663394 20572084 20483434 20398378 20317262 
3037.590 20239494 20164032 20089656 20015816 19942334 19869454 19798008 
3040.965 19728968 19663022 19600312 19541108 19485346 19433436 19385796 
3044.341 19343078 19305492 19272932 19244460 19218728 19194450 19170520 
3047.716 19146420 19122284 19098360 19075232 19053074 19031748 19011046 
3051.091 18991040 18971690 18953656 18937388 18923164 18910704 18899248 
3054.466 18887310 18873848 18858240 18840454 18821354 18802116 18784056 
3057.842 18768210 18755202 18745584 18738976 18736106 18737004 18741848 
3061.217 18751084 18764750 18782602 18804434 18829658 18858104 18889524 
3064.592 18923440 18959160 18996024 19033134 19069624 19104488 19137452 
3067.967 19167682 19195248 19219420 19240028 19256826 19269606 19278510 
3071.343 19283842 19286302 19285922 19282802 19276950 19268118 19256582 
3074.718 19242936 19228356 19214536 19202728 19193792 19187800 19183992 
3078.093 19180806 19177136 19171872 19164600 19155942 19146662 19138108 
3081.468 19131322 19127096 19125644 19126786 19129902 19134404 19139356 
3084.844 19144376 19149328 19154314 19159544 19165708 19172980 19181464 
3088.219 19190918 19200858 19211316 19222260 19234522 19248998 19266800 
3091.594 19288624 19314326 19343148 19373876 19404436 19433750 19460848 
3094.969 19485762 19509294 19532930 19558302 19587070 19620382 19658654 
3098.344 19701680 19748142 19796274 19844274 19890128 19932724 19971926 
3101.720 20008496 20043574 20078518 20113916 20149870 20185620 20220644 
3105.095 20254214 20286778 20319416 20353546 20390600 20431510 20476208 
3108.470 20523726 20572848 20622324 20671214 20719240 20766366 20812944 
3111.845 20859108 20904790 20949818 20994188 21037312 21079326 21119954 
3115.221 21158776 21195756 21230480 21263118 21294402 21325062 21356312 
3118.596 21389170 21424116 21460808 21498478 21536288 21573268 21609204 
3121.971 21644518 21679624 21715606 21752670 21790712 21829350 21867818 
3125.346 21905556 21942358 21978360 22014296 22050968 22088966 22128642 
3128.722 22170064 22212782 22255818 22298368 22339704 22379366 22417290 
3132.097 22454308 22491402 22529786 22570376 22613692 22659558 22707178 
3135.472 22755812 22804594 22852960 22900914 22948524 22995684 23042606 
3138.847 23089288 23135310 23181024 23226706 23272848 23320150 23368924 
3142.223 23418858 23469392 23519722 23569044 23617252 23664554 23711794 
3145.598 23759702 23808946 23859526 23910846 23962280 24012948 24062710 
3148.973 24111778 24160606 24210106 24261224 24314308 24369712 24427228 
3152.348 24486258 24546312 24606656 24666378 24725196 24782792 24839344 
3155.724 24895588 24952260 25009852 25068996 25129378 25190470 25251710 
3159.099 25312222 25371618 25430286 25488996 25548240 25609110 25672028 
3162.474 25737204 25804254 25873002 25942638 26012886 26083146 26152958 
3165.849 26221902 26289732 26355986 26420702 26483842 26545512 26605746 
3169.225 26664720 26722610 26779840 26836724 26894002 26952522 27012776 
3172.600 27074840 27138710 27203614 27268632 27333024 27395874 27456722 
3175.975 27515600 27572226 27626990 27680240 27732440 27784360 27836960 
3179.350 27891262 27948220 28008154 28071066 28136356 28203354 28270962 
3182.726 28338862 28406634 28474414 28542704 28611956 28682318 28753966 
3186.101 28826830 28900520 28974968 29050170 29126094 29203096 29281246 
3189.476 29360862 29441912 29524290 29607568 29691538 29775454 29858958 
3192.851 29941664 30023850 30105380 30186746 30268236 30350200 30432714 
3196.227 30516204 30600740 30686822 30774664 30864480 30956202 31049366 
3199.602 31143118 31236820 31330008 31422504 31514808 31607486 31701002 
3202.977 31795610 31891200 31987418 32083694 32179952 32275770 32371182 
3206.352 32465972 32559600 32651432 32741316 32829180 32916206 33004000 
3209.728 33094562 33189080 33288020 33390344 33494160 33597140 33697676 
3213.103 33795768 33891796 33987524 34084748 34183856 34284420 34385116 
3216.478 34484504 34581440 34675816 34768848 34862008 34956804 35054244 
3219.853 35154468 35257128 35361716 35468088 35576428 35686956 35800028 
3223.229 35914788 36030296 36144432 36255680 36362600 36464568 36562168 
3226.604 36656828 36750356 36844484 36940580 37039328 37140632 37243936 
3229.979 37348172 37452256 37555600 37658104 37760272 37862932 37966992 
3233.354 38073136 38180828 38289196 38396584 38501348 38602552 38700128 
3236.729 38795072 38888812 38982932 39078484 39175948 39275208 39376120 
3240.105 39478584 39583104 39689972 39799808 39912216 40026176 40140676 
3243.480 40254588 40367440 40479700 40592976 40708936 40829292 40954492 
3246.855 41084316 41217748 41353228 41489624 41626500 41763820 41901692 
3250.230 42040524 42180424 42320840 42461484 42601628 42741488 42881468 
3253.606 43022180 43164116 43307820 43453180 43599720 43746536 43893252 
3256.981 44039396 44184928 44330068 44474964 44619832 44764272 44907664 
3260.356 45049112 45187664 45322624 45454308 45583128 45710444 45837976 
3263.731 45966724 46097176 46229208 46361684 46493360 46623448 46751732 
3267.107 46878536 47005416 47133516 47263280 47394520 47525952 47655648 
3270.482 47782164 47904204 48021800 48135836 48247644 48358852 48470568 
3273.857 48583276 48697016 48811568 48926364 49041232 49156500 49271728 
3277.232 49387396 49503460 49619596 49736284 49853372 49971276 50090624 
3280.608 50211748 50335032 50460840 50588736 50718492 50849780 50981924 
3283.983 51114964 51248720 51383376 51519152 51656016 51794008 51932752 
3287.358 52072212 52212164 52352612 52494152 52637496 52783428 52932596 
3290.733 53085448 53241644 53400488 53561220 53722992 53885536 54048740 
3294.109 54212868 54378448 54545480 54714080 54883764 55054376 55225508 
3297.484 55397532 55570948 55746200 55923940 56104308 56287096 56471696 
3300.859 56657656 56844528 57032308 57221500 57412960 57608100 57808480 
3304.234 58015276 58229856 58452620 58683468 58921644 59165948 59414760 
3307.610 59667400 59923236 60182188 60445024 60712136 60983952 61260364 
3310.985 61541000 61825672 62114624 62408660 62709100 63017256 63333684 
3314.360 63658284 63990036 64327492 64669064 65014176 65362372 65714160 
3317.735 66069976 66429756 66793308 67160144 67529880 67902344 68278144 
3321.111 68657176 69039456 69424056 69808840 70191712 70570904 70945080 
3324.486 71314776 71680640 72043768 72404504 72762440 73116000 73463336 
3327.861 73802832 74133184 74453880 74764152 75063112 75349184 75620616 
3331.236 75875168 76111712 76329272 76527768 76707416 76868240 77009960 
3334.612 77132224 77235096 77318784 77384664 77434088 77467704 77485640 
3337.987 77486240 77467584 77427704 77365216 77280144 77173192 77046008 
3341.362 76899992 76735768 76553648 76353008 76133584 75894864 75636072 
3344.737 75356584 75055224 74730424 74381328 74007984 73611536 73195248 
3348.113 72763184 72319256 71867096 71408576 70944376 70474240 69997560 
3351.488 69513488 69021592 68521440 68013032 67496400 66972336 66442376 
3354.863 65909752 65377780 64850448 64331336 63821940 63322492 62831812 
3358.238 62348108 61869876 61397012 60929584 60469248 60017348 59574736 
3361.614 59141876 58718664 58304656 57899936 57504184 57117448 56739320 
3364.989 56369104 56005804 55648528 55297116 54951748 54613820 54284760 
3368.364 53965776 53657752 53360172 53071932 52791624 52517672 52248676 
3371.739 51983836 51722560 51464280 51208828 50955732 50704492 50455332 
3375.115 50207804 49962128 49718968 49478472 49241260 49008072 48779348 
3378.490 48555708 48337184 48123620 47913748 47706864 47501296 47295976 
3381.865 47089900 46882744 46673912 46463524 46251616 46038520 45825348 
3385.240 45613528 45404980 45201600 45004676 44814416 44629856 44449012 
3388.615 44269560 44089784 43908464 43725760 43542688 43360792 43180988 
3391.991 43004400 42830888 42660292 42492436 42326684 42162532 41999424 
3395.366 41836528 41672888 41507852 41341492 41174324 41007984 40843928 
3398.741 40682920 40525420 40370312 40215912 40060696 39903532 39744288 
3402.116 39584192 39424592 39267012 39112492 38960496 38810220 38660536 
3405.492 38510252 38358792 38206372 38053424 37900640 37748776 37597512 
3408.867 37446944 37296288 37144996 36992496 36838784 36683976 36528716 
3412.242 36373768 36219808 36067268 35916300 35766604 35617824 35469632 
3415.617 35322248 35176060 35031868 34890192 34751008 34613304 34475248 
3418.993 34334904 34190916 34042892 33892084 33740864 33592416 33449172 
3422.368 33312992 33183754 33060488 32941546 32824856 32709088 32593350 
3425.743 32476932 32360114 32242474 32123934 32004468 31884212 31763524 
3429.118 31643122 31523786 31406156 31290908 31178184 31067766 30959758 
3432.494 30853738 30749376 30646358 30544464 30443376 30343342 30244256 
3435.869 30145864 30048066 29950218 29851008 29749444 29644426 29535106 
3439.244 29421738 29304888 29185802 29065474 28945002 28824776 28705220 
3442.619 28585874 28466598 28346962 28225770 28101748 27972920 27837842 
3445.995 27695426 27546526 27393262 27239138 27088416 26944096 26807400 
3449.370 26678004 26553754 26432110 26310816 26188890 26066292 25943800 
3452.745 25822046 25701134 25580502 25459166 25336072 25210976 25084020 
3456.120 24956330 24828574 24701554 24575590 24450854 24327168 24204640 
3459.496 24083442 23963714 23845244 23727892 23610744 23493946 23377316 
3462.871 23261488 23147298 23035058 22924386 22814546 22704280 22592748 
3466.246 22480060 22367158 22255678 22147192 22042600 21940928 21840604 
3469.621 21739536 21635636 21528628 21419036 21308426 21198366 21090248 
3472.997 20984312 20880488 20778358 20677536 20578756 20482148 20388098 
3476.372 20296570 20206690 20117418 20028098 19938484 19848436 19758614 
3479.747 19669054 19579444 19489194 19397160 19302618 19206156 19108540 
3483.122 19011256 18915688 18822046 18729912 18638040 18545080 18449996 
3486.498 18352688 18253326 18152744 18051736 17950788 17850068 17749994 
3489.873 17651186 17554122 17459430 17366824 17275412 17183606 17089544 
3493.248 16991538 16889286 16783026 16674520 16565906 16458727 16354328 
3496.623 16253531 16156130 16061945 15970360 15880788 15791954 15702592 
3499.999 15611254 15516673 15418543 15317311 15214455 15111933 15011218 
3503.374 14913579 14819425 14727999 14638990 14551508 14464865 14378617 
3506.749 14291666 14202645 14110458 14014903 13916256 13816810 13719337 
3510.124 13626980 13542025 13464811 13393763 13326620 13260513 13193630 
3513.500 13125084 13055627 12985908 12916917 12848961 12781255 12713149 
3516.875 12644304 12574651 12504941 12436401 12369032 12302865 12236710 
3520.250 12168758 12097852 12023041 11944768 11864978 11785372 11708300 
3523.625 11635121 11566583 11501797 11439268 11376814 11311581 11241801 
3527.000 11165845 11083411 10996200 10907002 10819317 10737321 10663729 
3530.376 10599758 10545368 10498692 10456976 10416960 10375727 10330630 
3533.751 10279871 10222265 10157816 10087611 10013858 9939303 9867303 
3537.126 9800331 9739875 9685762 9636502 9590296 9545009 9499185 9452045 
3540.984 9403792 9354191 9303174 9249963 9194219 9134897 9071928 9005755 
3544.841 8937360 8867657 8797829 8728925 8662128 8598722 8540223 8487409 
3548.698 8440684 8398691 8359203 8318401 8273010 8220398 8159620 8092371 
3552.556 8021453 7950647 7883060 7820677 7763970 7712262 7664439 7619184 
3556.413 7575687 7533003 7490189 7446097 7399786 7350245 7297408 7242151 
3560.271 7185587 7129670 7076219 7026345 6981122 6940349 6903450 6868541 
3564.128 6832625 6791428 6740072 6673748 6589705 6488930 6376711 6262203 
3567.986 6155723 6065564 5995917 5946099 5911502 5885203 5860653 5832476 
3571.843 5797452 5754976 5705823 5651205 5593203 5533632 5473498 5414749 
3575.700 5358557 5306196 5258469 5214805 5173761 5133257 5090712 5044551 
3579.558 4994741 4942424 4890046 4840858 4797537 4761993 4734491 4714058 
3583.415 4697947 4682540 4663583 4636355 4596604 4540987 4468002 4379532 
3587.273 4279970 4177086 4080113 3996738 3932403 3888171 3861994 3849191 
3591.130 3843441 3838761 3830036 3814292 3789691 3757338 3718904 3676598 
3594.988 3632692 3588623 3545160 3502971 3462489 3423647 3386813 3351183 
3598.845 3315757 3279066 3239940 3197847 3153889 3110236 3069658 3034922 
3602.702 3007762 2988378 2975634 2967026 2959520 2949579 2934200 2910083 
3606.560 2874993 2828233 2770707 2705520 2638310 2575176 2521050 2478093 
3610.417 2444338 2415749 2386563 2352348 2311607 2266740 2223309 2188141 
3614.275 2166363 2158804 2163066 2172324 2177985 2172690 2150579 2108958 
3618.132 2049862 1978260 1901611 1827803 1763922 1713922 1678962 1657508 
3621.990 1646499 1642840 1643905 1648893 1658705 1674904 1698155 1727428 
3625.847 1757401 1779392 1781688 1752045 1682920 1576492 1446653 1315822 
3629.704 1208222 1137754 1105066 1101478 1113238 1127622 1135528 1132539 
3633.562 1119284 1099386 1077695 1057267 1039664 1023755 1007614 989714 
3637.419 969489 947739 926155 906000 888071 872566 858356 844977 832594 
3641.759 821805 814402 812344 816991 828876 847234 869545 892420 911877 
3646.098 923366 922768 906863 873529 822203 754022 671748 580996 489201 
3650.438 406347 342077 303282 292605 307228 339657 378423 411454 427374 
3654.778 417888 381042 321784 252090 185988 135108 105279 95403 99844 111444 
3659.599 124469 134975 141240 144289 144919 144223 143228 142300 142267 
3663.939 144455 150885 163514 183866 212010 246123 282393 314124 333622 
3668.279 332793 305570 251626 178794 103324 43739 16733 28827 75916 144190 
3673.100 213667 263760 275165 237105 152841 41717 -67820 -151296 -197169 
3677.440 -208859 -198758 -181370 -167659 -162624 -165804 -173289 -179979 
3681.297 -182463 -179516 -171799 -159544 -142353 -118438 -85974 -44828 1954 
3685.637 48113 85063 103987 98419 66935 14844 -47412 -108401 -158616 -194519 
3690.459 -217536 -231578 -240320 -245751 -247540 -245023 -237307 -224723 
3694.316 -208893 -192399 -177164 -164048 -152290 -140233 -125592 -107473 
3698.174 -86703 -65633 -48770 -40222 -43535 -60034 -88160 -123208 -158914 
3702.513 -188822 -208429 -215251 -209456 -193525 -170242 -142254 -112243 
3706.371 -81733 -51984 -23955 728 20411 32306 33300 20477 -7885 -51719 
3711.192 -108202 -171169 -232770 -284660 -320023 -335816 -332108 -312440 
3715.050 -281912 -246248 -211078 -179880 -154708 -135662 -121651 -110885 
3718.907 -102040 -94521 -88458 -84384 -82197 -81005 -79216 -75274 -67985 
3723.247 -58444 -49168 -43436 -45126 -56059 -75075 -97999 -118007 -127381 
3727.586 -120392 -94819 -52911 -99 55503 105975 145184 170574 183634 189037 
3732.408 192617 198153 204286 205545 193711 162320 110118 42910 -27334 
3736.748 -86670 -125427 -140134 -132780 -108401 -71331 -23557 35090 104915 
3741.087 183667 264191 333157 372188 363632 296982 179723 39331 -82628 
3745.427 -151760 -155304 -101577 -12126 88841 178131 239293 262832 247913 
3749.767 200772 132125 53547 -25313 -96840 -154675 -192499 -206409 -195181 
3754.106 -162160 -113734 -58808 -5235 39994 72901 92155 98120 91857 74624 
3758.928 47748 13916 -21470 -51056 -67157 -64540 -42773 -6328 36018 73961 
3763.750 99479 108593 102926 89106 76181 71409 77441 91525 107234 117244 
3768.572 115454 99844 72403 39331 7289 -17560 -31940 -35915 -31310 -21337 
3773.393 -8813 4274 17097 29655 42645 56397 69819 80954 86289 82544 67963 
3778.697 43275 12723 -16732 -37539 -44894 -37638 -19117 4439 26077 40259 
3783.519 44169 38867 27402 14082 2551 -5500 -9940 -11762 -11861 -10834 -8647 
3788.823 -5036 -397 4340 8946 13088 17925 25547 37741 55171 76181 96331 
3794.127 110383 113432 103357 82843 58816 41750 41154 61832 102396 155227 
3798.949 207501 244167 252422 224474 162950 81053 1259 -54369 -72159 -50725 
3803.771 -265 63655 121751 157846 161525 131098 75088 10337 -44099 -75307 
3808.592 -79514 -61591 -30117 6693 43937 81252 121353 167425 220065 275563 
3813.414 325498 359089 366451 342774 292406 230508 176772 148366 153802 
3817.754 189103 241282 292009 323442 321684 280802 206242 115089 30915 
3822.093 -26970 -48141 -35683 -265 43308 81716 106207 113962 108494 97623 
3826.915 91525 97922 119663 154796 197125 239194 273906 296949 307692 309051 
3831.737 306200 305039 311074 326658 351893 383762 417358 445748 461868 
3836.076 459945 436263 392152 333257 269330 211579 168486 144156 137826 
3840.416 144554 157746 170905 179292 180750 175347 165867 155989 150123 
3844.756 151946 163911 186518 219203 259450 305470 355275 408635 466479 
3849.095 530236 600306 674469 745227 800261 823398 796908 709017 562582 
3853.435 380247 197987 51526 -38036 -69211 -53475 -7355 54310 120260 183402 
3858.257 240023 288560 328316 359288 381905 397326 407574 414306 418684 
3862.596 420110 416860 407076 390527 370828 355076 351163 365058 397293 
3866.936 441370 485054 514578 517132 487078 428535 356668 292506 252223 
3871.275 242343 257229 284151 308023 317507 308686 286405 261705 247217 
3875.615 253350 282990 332362 392384 451387 498356 524165 524497 500778 
3879.955 460807 416495 381308 365987 374741 404556 446047 486713 512620 
3884.294 513218 485121 433675 373879 323508 298242 304840 339690 391655 
3888.634 446578 490727 513417 510531 484225 443460 399680 364262 344962 
3892.973 344200 360316 388935 426014 467408 509801 550771 588162 619849 
3897.313 644172 660167 667766 668031 663220 655886 647922 639692 630202 
3901.653 616797 596324 566895 528876 485386 442034 405551 381805 373581 
3905.992 380976 400576 427739 457490 485452 509071 527416 540686 550240 
3910.332 557771 565004 573497 584712 599642 618423 640090 662655 683031 
3914.671 697733 703541 698762 683629 660001 631098 600903 572071 546989 
3919.011 526985 512819 505521 505986 514412 529705 549113 568720 584081 
3923.351 591679 589987 580896 567990 556644 551866 556113 569583 589821 
3927.690 613147 635544 653729 665443 669525 665908 654890 637668 616266 
3932.030 593338 572336 556544 548482 548980 557373 571275 587532 603624 
3936.369 617394 628244 636606 643907 650809 657943 664812 670255 672711 
3940.709 671051 664879 654824 642977 631728 624296 622603 627514 638630 
3945.049 653696 669823 683994 693585 697567 696339 691461 685388 680542 
3949.388 678418 679547 683264 688540 694082 698928 702778 705267 706760 
3953.728 707258 706793 705897 704968 704935 706727 710909 717812 726408 
3958.067 735635 743733 749309 751334 749741 745194 738954 732581 727271 
3962.407 723952 722989 724151 726906 730324 733344 735104 735435 734241 
3966.747 732083 730291 729561 730855 734373 739485 745160 750404 753724 
3971.086 754387 751965 746753 739451 731254 723454 717646 714991 716152 
3975.426 721064 728665 737427 745127 750239 752130 751201 748712 746422 
3979.765 745459 746521 749077 751732 753093 751998 748181 742240 735402 
3984.105 729229 724815 722359 721363 721363 721363 720732 719339 716783 
3988.445 713365 709714 706461 704503 705200 709581 718642 732116 749309 
3992.784 768494 787780 804875 818684 828610 835017 838669 840728 841757 
3997.124 842221 841889 840694 838171 834420 829639 824096 818021 
##END=
