
##TITLE=mdmaHCL00405_9
##JCAMP-DX=5.01  $$ Nicolet v. 1
##DATATYPE=INFRARED SPECTRUM
##ORIGIN=UniL
##OWNER=Nicolet
##LONGDATE=2011/08/23
##TIME=14:25:13
##SPECTROMETER/DATA SYSTEM=Nicolet iS5
##DATA PROCESSING=
Ratio against background
%Transmittance->Absorbance
Truncated
ElementMultiply or ElementDivide
##COMMENTS=
Number of sample scans: 32
Collection length: 51.20 sec
Sample gain: 2.0
Background collected on: Mar Aout 23 14:23:44 2011 (GMT+02:00);
Number of background scans: 32
Background gain: 2.0
Sample spacing:  1.000
Number of scan points: 12415
Resolution points: 8192
Number of FFT points: 65536
Apodization: N-B fort;
Phase correction: Mertz;
Laser frequency: 15798.0 cm-1
Number of rejected sample scans: 0
Number of rejected background scans: 0
Bench serial number: ASB1000141;
##RESOLUTION=4.000
##XUNITS=1/CM
##YUNITS=ABSORBANCE
##FIRSTX=649.893372
##LASTX=4000.122314
##FIRSTY=0.082795
##MAXX=4000.122314
##MINX=649.893372
##MAXY=0.208807
##MINY=-0.001369
##XFACTOR=1.000000
##YFACTOR=1.000000E-009
##NPOINTS=6950
##DELTAX=0.482117
##ZPD=6100
##XYDATA=(X++(Y..Y))
649.893 82795184 82756048 82792416 82899200 83051736 83220656 83380808 
653.268 83524120 83658600 83801960 83968080 84159120 84364936 84569712 
656.643 84762304 84943056 85122392 85314584 85527200 85754008 85977008 
660.018 86172208 86321816 86419560 86472160 86494528 86503544 86511104 
663.393 86521784 86532744 86533312 86504632 86415072 86216576 85848104 
666.767 85249624 84407744 83402456 82411296 81611488 81085688 80795136 
670.142 80637568 80495888 80274200 79914848 79395200 78729624 77956256 
673.517 77122856 76266824 75405656 74543016 73677448 72813216 71964736 
676.892 71151864 70390184 69685584 69032896 68421440 67843728 67301480 
680.267 66804124 66363700 65985808 65665244 65385328 65127140 64875424 
683.642 64626536 64387440 64171752 63990036 63844048 63724660 63616312 
687.016 63504696 63382528 63252576 63124688 63010440 62916592 62842684 
690.391 62782488 62728204 62675564 62625236 62582068 62551452 62535836 
693.766 62532776 62536640 62542380 62546672 62549956 62553516 62556496 
697.141 62553400 62534348 62489156 62410764 62299920 62164856 62019216 
700.516 61875452 61740944 61615604 61493164 61366100 61229496 61083100 
703.890 60931528 60781076 60635208 60494420 60354932 60213092 60066692 
707.265 59916960 59768072 59624944 59490372 59364312 59244856 59130596 
710.640 59022824 58927408 58852008 58802692 58779508 58773364 58764904 
714.015 58726972 58630976 58452012 58173860 57792848 57317676 56768468 
717.390 56172520 55565300 54986980 54479216 54085664 53846824 53789664 
720.765 53923760 54229160 54654252 55111100 55492400 55688228 55601340 
724.139 55177948 54417468 53378456 52160340 50884384 49667108 48587020 
727.514 47682456 46950184 46360360 45872112 45449636 45070724 44724460 
730.889 44406804 44114540 43841240 43578400 43318876 43060012 42804556 
734.264 42558980 42328876 42116016 41917240 41726064 41536472 41346776 
737.639 41159716 40980456 40813936 40660796 40517240 40376676 40233068 
741.013 40084932 39934988 39789968 39656392 39538244 39435008 39343328 
744.388 39258412 39176708 39096904 39019248 38943532 38868084 38788984 
747.763 38702404 38606104 38501708 38393540 38287784 38189296 38099252 
751.138 38015776 37935064 37854112 37772888 37693736 37620780 37556756 
754.513 37501704 37452976 37406168 37358248 37308744 37260364 37216936 
757.888 37181704 37156080 37139440 37130816 37131424 37145788 37180804 
761.262 37244336 37341312 37472444 37633536 37818248 38020840 38240852 
764.637 38484656 38767936 39115248 39554396 40115016 40818848 41670264 
768.012 42646404 43692596 44725232 45636532 46324084 46715420 46788996 
771.387 46589400 46219072 45817764 45510344 45376764 45421460 45572900 
774.762 45699324 45649120 45305776 44612376 43593936 42340780 40988904 
778.136 39678244 38516664 37574784 36873592 36397724 36108428 35961364 
781.511 35917740 35946356 36026520 36145620 36295160 36470984 36671608 
784.886 36898156 37153296 37440048 37761140 38117920 38511448 38943172 
788.261 39415848 39934192 40504436 41133672 41829668 42601008 43456728 
791.636 44408824 45470976 46656980 47979980 49447428 51058724 52801764 
795.010 54652448 56575064 58521240 60438588 62271772 63969992 65499468 
798.385 66848992 68039160 69119088 70164256 71259880 72475048 73850384 
801.760 75372864 76972224 78513008 79817440 80699488 80982912 80556584 
805.135 79396592 77580232 75269416 72679000 70037160 67516912 65215996 
808.510 63141584 61227744 59366856 57451876 55419328 53259248 51018740 
811.885 48775344 46620716 44630776 42851148 41299952 39970156 38840764 
815.259 37884876 37076532 36393328 35814888 35324656 34909620 34560308 
818.634 34272516 34045400 33880156 33776784 33733488 33745808 33808480 
822.009 33917304 34070664 34269468 34516504 34814404 35164168 35565100 
825.384 36014640 36509076 37042544 37605784 38185352 38761672 39313112 
828.759 39820252 40271384 40669236 41033692 41402940 41824488 42352328 
832.133 43038720 43921588 45019452 46319660 47774988 49293032 50739124 
835.508 51959116 52782720 53064216 52717024 51726780 50164216 48164636 
838.883 45912256 43592468 41362268 39343036 37599820 36153076 34989520 
842.258 34077148 33375640 32844082 32447476 32155190 31941518 31788264 
845.633 31682432 31616892 31589062 31597544 31639736 31710982 31804130 
849.008 31911846 32029472 32155406 32292008 32443118 32612496 32802128 
852.382 33011470 33239048 33483672 33746056 34028736 34335192 34668892 
855.757 35032476 35428216 35858792 36328732 36844520 37414984 38050532 
859.132 38761528 39560492 40462280 41483388 42642640 43955500 45426460 
862.507 47039756 48752064 50489984 52147340 53605116 54744188 55458520 
865.882 55682576 55394596 54624420 53444064 51962552 50309024 48604736 
869.256 46960372 45459680 44151252 43058036 42179692 41502056 41003356 
872.631 40661160 40455044 40365988 40377260 40474284 40643548 40875272 
876.006 41164124 41509492 41914976 42387140 42931608 43550528 44239368 
879.381 44984756 45765772 46552880 47309904 48001776 48595208 49066904 
882.756 49408628 49629400 49754564 49819668 49865340 49927484 50030164 
886.131 50187612 50402748 50673288 50995600 51367860 51789976 52261192 
889.505 52778268 53332484 53910104 54496196 55075628 55635232 56165768 
892.880 56659056 57106900 57500368 57829904 58087116 58267708 58371732 
896.255 58403912 58371696 58284912 58153560 57988196 57801252 57606024 
899.630 57416100 57244252 57098060 56979832 56885808 56808916 56741396 
903.005 56678004 56618020 56565324 56527244 56511732 56527512 56582764 
906.379 56685476 56844528 57068132 57363612 57735584 58185344 58710852 
909.754 59308396 59974664 60708176 61510340 62384408 63333912 64362420 
913.129 65472728 66669860 67961776 69361424 70886208 72555944 74387544 
916.504 76391608 78568392 80905784 83375760 85933032 88515480 91034352 
919.879 93379264 95427896 97045760 98120224 98580696 98419616 97707160 
923.254 96589720 95287240 94044608 93116136 92731312 93042072 94113784 
926.628 95898776 98248616 100912392 103573096 105915128 107635144 108507456 
930.003 108414432 107336248 105343472 102560512 99148304 95270736 91083960 
933.378 86745544 82399208 78178032 74208024 70587624 67391752 64669760 
936.753 62442520 60712672 59469928 58697156 58370596 58456224 58906536 
940.128 59648964 60584696 61600064 62563464 63350016 63861660 64031192 
943.502 63838788 63309148 62508324 61526372 60461360 59410696 58448416 
946.877 57624184 56962568 56465396 56120108 55907544 55808780 55807800 
950.252 55891640 56050548 56274460 56553396 56877916 57239376 57632168 
953.627 58053260 58501484 58975264 59471944 59986912 60515100 61052400 
957.002 61596856 62148800 62709600 63279824 63858056 64440860 65023564 
960.377 65603124 66179128 66753736 67330152 67910744 68495064 69080280 
963.751 69662168 70237512 70805976 71370616 71935832 72505984 73083224 
967.126 73667480 74257312 74852328 75454616 76068480 76699864 77354016 
970.501 78033784 78739992 79472976 80234376 81028152 81860896 82739576 
973.876 83669848 84653128 85688296 86772128 87902440 89079192 90304168 
977.251 91579336 92903552 94270560 95670088 97087976 98510016 99923632 
980.625 101317176 102679192 103996704 105252888 106430936 107517096 
983.518 108504128 109394392 110199136 110935424 111619848 112267712 
986.411 112890672 113497272 114097304 114701240 115319536 115961088 
989.304 116629720 117323264 118034872 118756096 119480616 120205864 
992.196 120931976 121659616 122385792 123103592 123802704 124472416 
995.089 125105992 125701576 126261248 126787800 127281176 127737584 
997.982 128151208 128518000 128840048 129126640 129393472 129658280 
1000.874 129935488 130235688 130564648 130927040 131329056 131780136 
1003.767 132290456 132868320 133515832 134228320 134995840 135808848 
1006.660 136661792 137556800 138500832 139502880 140568256 141695696 
1009.552 142877680 144102688 145359744 146638720 147930448 149223712 
1012.445 150501632 151742736 152925200 154031312 155055680 156006016 
1015.338 156903312 157773920 158643536 159534528 160462208 161439376 
1018.231 162478448 163592048 164791952 166085280 167471152 168941072 
1021.123 170481856 172083392 173741968 175463104 177257936 179137824 
1024.016 181107024 183161072 185286608 187467552 189689696 191940848 
1026.909 194208768 196474656 198705072 200853584 202861840 204665296 
1029.802 206206304 207433648 208302112 208772896 208806688 208367264 
1032.695 207431072 205993648 204079264 201737152 199040256 196071008 
1035.588 192907424 189626832 186298672 182986736 179758352 176677648 
1038.481 173802528 171185312 168863408 166861648 165194688 163866672 
1041.374 162871040 162184096 161760800 161524816 161366480 161162480 
1044.267 160779632 160103408 159064544 157642400 155871728 153826304 
1047.160 151610288 149334080 147096800 144986208 143065248 141370224 
1050.053 139915072 138689360 137664928 136799568 136049312 135374208 
1052.947 134742704 134136480 133545848 132965016 132388056 131805360 
1055.840 131203992 130570992 129894152 129163800 128371968 127509576 
1058.733 126566232 125531840 124399160 123168800 121850688 120465432 
1061.626 119038600 117596312 116163056 114757512 113394144 112085640 
1064.519 110842488 109673288 108581600 107562640 106601584 105674336 
1067.412 104754464 103815544 102839264 101818624 100757672 99668632 98568136 
1070.787 97475360 96408320 95382944 94413224 93508944 92674048 91905888 
1074.162 91195624 90529688 89893096 89273352 88662936 88058576 87459912 
1077.538 86866816 86276992 85686560 85091112 84489408 83884592 83285792 
1080.913 82705984 82158528 81655832 81207480 80820240 80500632 80255712 
1084.288 80092792 80019680 80042032 80162208 80379008 80689432 81089608 
1087.663 81577056 82149080 82801512 83524808 84303656 85115064 85932016 
1091.039 86730208 87490480 88203520 88869632 89495928 90091984 90665616 
1094.414 91221576 91760856 92283592 92790304 93285528 93777944 94281512 
1097.789 94812608 95387440 96017800 96703680 97427664 98149048 98808352 
1101.164 99328104 99624704 99630000 99297864 98618240 97617416 96354088 
1104.540 94907872 93360912 91796464 90284184 88875080 87605224 86491696 
1107.915 85534824 84720544 84024248 83414656 82856128 82316248 81766288 
1111.290 81181752 80544464 79840048 79058352 78195048 77252784 76242456 
1114.665 75181672 74093968 73004272 71933520 70898656 69910224 68973504 
1118.041 68091016 67263608 66491304 65772756 65104856 64481640 63895056 
1121.416 63335716 62794672 62262860 61731932 61192224 60631628 60036024 
1124.791 59390064 58679784 57896832 57040548 56118788 55146724 54145528 
1128.166 53138240 52145996 51187652 50276584 49420028 48620148 47873976 
1131.542 47174552 46512572 45878848 45265468 44667936 44085604 43521224 
1134.917 42980624 42469964 41995520 41562612 41175128 40836392 40549324 
1138.292 40316720 40140932 40023524 39965068 39964704 40020472 40130684 
1141.667 40293088 40506036 40768040 41076196 41426452 41813724 42231652 
1145.042 42673964 43135316 43610784 44096716 44589392 45084692 45578716 
1148.418 46068104 46551224 47028936 47504476 47981684 48463900 48952700 
1151.793 49447168 49944472 50441228 50934420 51422088 51902540 52373580 
1155.168 52832000 53272920 53690820 54080072 54435080 54750952 55021840 
1158.543 55239920 55396028 55479040 55477420 55381912 55185400 54883876 
1161.919 54475948 53961576 53342112 52620404 51801772 50894888 49911280 
1165.294 48865292 47771996 46645396 45499048 44344416 43192184 42053628 
1168.669 40939564 39861220 38828952 37851220 36933940 36080700 35292920 
1172.044 34570604 33913720 33322078 32795806 32334842 31938594 31605918 
1175.420 31335172 31125036 30974918 30885398 30858042 30895432 31000290 
1178.795 31175728 31424712 31751048 32159078 32654502 33242878 33929772 
1182.170 34719748 35615632 36618616 37728428 38942228 40253100 41646996 
1185.545 43102272 44584440 46047656 47440608 48704432 49783396 50630840 
1188.921 51209124 51497032 51489720 51199400 50653032 49889496 48957480 
1192.296 47905720 46781544 45628212 44479040 43360428 42291548 41283916 
1195.671 40343916 39472852 38668324 37924792 37235560 36594136 35994984 
1199.046 35434976 34912812 34428472 33981868 33572404 33198058 32855946 
1202.422 32542780 32255642 31992198 31750120 31525996 31315230 31110620 
1205.797 30903862 30686574 30452154 30196764 29920470 29626688 29321016 
1209.172 29010174 28701538 28402884 28121650 27866388 27645774 27467768 
1212.547 27339658 27266232 27250180 27291988 27390828 27545536 27755078 
1215.923 28018192 28333310 28697716 29107598 29558300 30045368 30565864 
1219.298 31118308 31702782 32320030 32970752 33655500 34374352 35128096 
1222.673 35918388 36747184 37616620 38527052 39476228 40458356 41465196 
1226.048 42486076 43508588 44519824 45504972 46447668 47331556 48140688 
1229.424 48862140 49488944 50020796 50464524 50832456 51141764 51413884 
1232.799 51671840 51943732 52260184 52652720 53154832 53796904 54603940 
1236.174 55595952 56785576 58179168 59777124 61574480 63559160 65709532 
1239.549 67995872 70377760 72806392 75232968 77608640 79889040 82038240 
1242.925 84023280 85814560 87384872 88707360 89757320 90514304 90960360 
1246.300 91081504 90868408 90316856 89430784 88223896 86720864 84952808 
1249.675 82952056 80748168 78361264 75803672 73084120 70212744 67208832 
1253.050 64104424 60942052 57775284 54662856 51658592 48812456 46163168 
1256.426 43734404 41536800 39567388 37813084 36253088 34863768 33622060 
1259.801 32506072 31497814 30583852 29753276 28998344 28312762 27690800 
1263.176 27126860 26615256 26150354 25727360 25342570 24993462 24678476 
1266.551 24396490 24146280 23926218 23734224 23568696 23428440 23313332 
1269.927 23223980 23160822 23124268 23114098 23129578 23170398 23236810 
1273.302 23330428 23453970 23610604 23802926 24032172 24297348 24593998 
1276.677 24913520 25243318 25565424 25857668 26097678 26263506 26339262 
1280.052 26318280 26204270 26010354 25755486 25462152 25150794 24836960 
1283.427 24532078 24242268 23970682 23719144 23489188 23282462 23101098 
1286.803 22946776 22821356 22726308 22663118 22632784 22634948 22667622 
1290.178 22726902 22807072 22902240 23007634 23120424 23241072 23371966 
1293.553 23516296 23677432 23857880 24059416 24284068 24534358 24813838 
1296.928 25126008 25474168 25859848 26283606 26745444 27245452 27784254 
1300.304 28362668 28979252 29628496 30298432 30971822 31625766 32235726 
1303.679 32780618 33243376 33615040 33894628 34089620 34213828 34285244 
1307.054 34326160 34357896 34399460 34465744 34564684 34697960 34861684 
1310.429 35048316 35249224 35455612 35660484 35857564 36040776 36204432 
1313.805 36342136 36448104 36517476 36546488 36532612 36474152 36369876 
1317.180 36219268 36023384 35786176 35514364 35217456 34907392 34595540 
1320.555 34291232 34001356 33729260 33476728 33244666 33034924 32849908 
1323.930 32693226 32568172 32477648 32423806 32408596 32434478 32504212 
1327.306 32620176 32783046 32989700 33233180 33501998 33783016 34063676 
1330.681 34333724 34586468 34818604 35028780 35215836 35378284 35513784 
1334.056 35620052 35695376 35739440 35752968 35738220 35698216 35636492 
1337.431 35558340 35470892 35382992 35305896 35251412 35229060 35245772 
1340.807 35303916 35401688 35534496 35696668 35881928 36084192 36297900 
1344.182 36518264 36741704 36967096 37195676 37430332 37674116 37926964 
1347.557 38183288 38431364 38651880 38820796 38914540 38911748 38798044 
1350.932 38568696 38229276 37794968 37288560 36739828 36179976 35638396 
1354.308 35142580 34712064 34359832 34091776 33907808 33804144 33775424 
1357.683 33816036 33920240 34080660 34289116 34534296 34804064 35088080 
1361.058 35379400 35677712 35988036 36319872 36682572 37080504 37511636 
1364.433 37965944 38427240 38873700 39281300 39624592 39877672 40019456 
1367.809 40036132 39923656 39688664 39346012 38915120 38413628 37856352 
1371.184 37253864 36613028 35941924 35252744 34563000 33897888 33284694 
1374.559 32746352 32296508 31936098 31655562 31439640 31274956 31154974 
1377.934 31082002 31067588 31131086 31298242 31595726 32050874 32686726 
1381.310 33513990 34522960 35672172 36890148 38070096 39084176 39808376 
1384.685 40123776 39942512 39224500 37992992 36345124 34436292 32461792 
1388.060 30596332 28960054 27610464 26546110 25730664 25112948 24644634 
1391.435 24284384 23999256 23766982 23571632 23404906 23266136 23160298 
1394.811 23095786 23078666 23110220 23184728 23292112 23419696 23556170 
1398.186 23694788 23833762 23976670 24129500 24298610 24486680 24691910 
1401.561 24908220 25127658 25341972 25544236 25731438 25903846 26064638 
1404.936 26217572 26365668 26510326 26651648 26789918 26927174 27067012 
1408.312 27214056 27372900 27545678 27733426 27935040 28149720 28377344 
1411.687 28619282 28877500 29153130 29445494 29751786 30068200 30392450 
1415.062 30724730 31068086 31427954 31810510 32221310 32664292 33141478 
1418.437 33652632 34193320 34753988 35318544 35865880 36371824 36814548 
1421.813 37179212 37460708 37669524 37831912 37989160 38185352 38455696 
1425.188 38818372 39270820 39797592 40378312 40996844 41642508 42308092 
1428.563 42988160 43675524 44362840 45045876 45727412 46418684 47135028 
1431.938 47892440 48700688 49561544 50469848 51418956 52406964 53438444 
1435.313 54526808 55689396 56941376 58283928 59703364 61176588 62675416 
1438.689 64170136 65625584 67001216 68241960 69281280 70055496 70503352 
1442.064 70577720 70251648 69515344 68379352 66873536 65052280 62988600 
1445.439 60764080 58470288 56192280 54006636 51983352 50174592 48608660 
1448.814 47282672 46164864 45205132 44350288 43565288 42840980 42197548 
1452.190 41670552 41298272 41100304 41069312 41169732 41346120 41538548 
1455.565 41689152 41764512 41768928 41750432 41777972 41908408 42172424 
1458.940 42571624 43093016 43719712 44434332 45217008 46039480 46867056 
1462.315 47651432 48331372 48845456 49137396 49177208 48974396 48579612 
1465.691 48067356 47507544 46955428 46443468 45985992 45589132 45252712 
1469.066 44970384 44726700 44495520 44242668 43931600 43539356 43071172 
1472.441 42567420 42089548 41698564 41433124 41301664 41294192 41395396 
1475.816 41595248 41891440 42285740 42776476 43353216 43994844 44674548 
1479.192 45362344 46034064 46676756 47289584 47885000 48484204 49113388 
1482.567 49797776 50560592 51426564 52421208 53570856 54897748 56410456 
1485.942 58091552 59885352 61701488 63407488 64841336 65839344 66242880 
1489.317 65937020 64882920 63133500 60830244 58160112 55317180 52449284 
1492.693 49641400 46932948 44326656 41815076 39406812 37133556 35054888 
1496.068 33247526 31779032 30687604 29972798 29605546 29541880 29736634 
1499.443 30152010 30753930 31510354 32389854 33356924 34373172 35400824 
1502.818 36392180 37290944 38027096 38500912 38588104 38151596 37082704 
1506.194 35372140 33158716 30700798 28255720 25984990 23933604 22073242 
1509.569 20355458 18744926 17227904 15813397 14521426 13368305 12361498 
1512.944 11495640 10755628 10122306 9576678 9102007 8682444 8305263 7962763 
1516.802 7654120 7385463 7165881 7000584 6885541 6806035 6738120 6657732 
1520.659 6550516 6422073 6297568 6210405 6182643 6214035 6286306 6372609 
1524.516 6451094 6509076 6549271 6584693 6632566 6704300 6801020 6915401 
1528.374 7038367 7165005 7296532 7438514 7595580 7766601 7943359 8112052 
1532.231 8258860 8378322 8478963 8582127 8710534 8878309 9083838 9313906 
1536.089 9548903 9770203 9964356 10121492 10235700 10303723 10324386 
1539.464 10299244 10236140 10151100 10064789 9995379 9951914 9930014 9914793 
1543.321 9886386 9829206 9738113 9622240 9500065 9392619 9312585 9259440 
1547.179 9220855 9179871 9122648 9044389 8952344 8861738 8790052 8747079 
1551.036 8731258 8732441 8737952 8739338 8735991 8735450 8749547 8788632 
1554.894 8855686 8945309 9044389 9137029 9203764 9223495 9178449 9062658 
1558.751 8895996 8723076 8597437 8551713 8587805 8687514 8824609 8974736 
1562.608 9116692 9237236 9332186 9406738 9473176 9546329 9637315 9748109 
1566.466 9872455 9998396 10114606 10213514 10294664 10364461 10434710 
1569.841 10518448 10624645 10757496 10917127 11100576 11303181 11517789 
1573.216 11735668 11943883 12128721 12279211 12392419 12478718 12560087 
1576.592 12663578 12806609 12991303 13207429 13439863 13674882 13903392 
1579.967 14122849 14334609 14542017 14748051 14954045 15159177 15361934 
1583.342 15560286 15752716 15937155 16110428 16267875 16404323 16515616 
1586.717 16600432 16661920 16707817 16748795 16796252 16860834 16950092 
1590.093 17068762 17219698 17403348 17617714 17856146 18107004 18352098 
1593.468 18568630 18734894 18832012 18850628 18791738 18667544 18497638 
1596.843 18303436 18106142 17922334 17763732 17639384 17556366 17519488 
1600.218 17532388 17595836 17708542 17867192 18068246 18308344 18583568 
1603.594 18888660 19214052 19545304 19863766 20146816 20371084 20517300 
1606.969 20570486 20524004 20379348 20145532 19835602 19464590 19049300 
1610.344 18607432 18158168 17722658 17319100 16960152 16649352 16380340 
1613.719 16138177 15902750 15654361 15377210 15066719 14733483 14402832 
1617.094 14107515 13873766 13714755 13627868 13600073 13611868 13643118 
1620.470 13675156 13692595 13687022 13658436 13617167 13579970 13564040 
1623.845 13581578 13634467 13716361 13816195 13923646 14030748 14132947 
1627.220 14227945 14314918 14393276 14463563 14527627 14589370 14653453 
1630.595 14724570 14804238 14890091 14974348 15044524 15085208 15078999 
1633.971 15011905 14877128 14682241 14450409 14215175 14008641 13848041 
1637.346 13732708 13648930 13578296 13502237 13406475 13283914 13135158 
1640.721 12968463 12795553 12628851 12476432 12338964 12210570 12079488 
1644.096 11931656 11752690 11532794 11270195 10974995 10668959 10381462 
1647.472 10141502 9967746 9865811 9828189 9839746 9878319 9915641 9918827 
1651.329 9848152 9665333 9354699 8948725 8531707 8193756 7982573 7888087 
1655.187 7870913 7887648 7907151 7911808 7894802 7857755 7806609 7748184 
1659.044 7686967 7623736 7555592 7477986 7386272 7277831 7153922 7020485 
1662.901 6887460 6766220 6666446 6593642 6547354 6522228 6508773 6495925 
1666.759 6471441 6424831 6349712 6245563 6118925 5982244 5851350 5739296 
1670.616 5654427 5598103 5566185 5549942 5537189 5514739 5469036 5389788 
1674.474 5275339 5136208 4994071 4872555 4787989 4742631 4726485 4723437 
1678.331 4717742 4701095 4672759 4640240 4614487 4602699 4604039 4606818 
1682.188 4590275 4531511 4414844 4244502 4049142 3873227 3753126 3698720 
1686.046 3697282 3724752 3759577 3785747 3794538 3784477 3758307 3721979 
1689.903 3682412 3647661 3624840 3619527 3633627 3664034 3702128 3733041 
1693.761 3740259 3708578 3632792 3524048 3410489 3326776 3293922 3312185 
1697.618 3361201 3411625 3430494 3391688 3287345 3136634 2983474 2871824 
1701.476 2825631 2839072 2890102 2952048 3002724 3028015 3021609 2986643 
1705.333 2933667 2877327 2830000 2798752 2784112 2782778 2789181 2798585 
1709.190 2808390 2817994 2828133 2840239 2855181 2873058 2892604 2912351 
1713.048 2930664 2946410 2959253 2967727 2969795 2961289 2936469 2891403 
1716.905 2826532 2749733 2675881 2622042 2600242 2613475 2656112 2717723 
1720.763 2785946 2850178 2904412 2946110 2977435 3002925 3027781 3056043 
1724.620 3089413 3127323 3168108 3209062 3247518 3280835 3306609 3323437 
1728.478 3331584 3333921 3335690 3342068 3356192 3375660 3391755 3389184 
1732.335 3348913 3255730 3106699 2920190 2732461 2584842 2502387 2484858 
1736.192 2514084 2564877 2614375 2644444 2646111 2618609 2570543 2515451 
1740.050 2466664 2433109 2416549 2413550 2418781 2427978 2438907 2451802 
1743.907 2468096 2488691 2513685 2541580 2569943 2596008 2617842 2633476 
1747.765 2642077 2642410 2633343 2612742 2579609 2534214 2480126 2424579 
1751.622 2377234 2346152 2336225 2346418 2370738 2399623 2422180 2429410 
1755.479 2416549 2385164 2342987 2301614 2272169 2259545 2262110 2272136 
1759.337 2279730 2274567 2250653 2207157 2149413 2086817 2030354 1988878 
1763.194 1966743 1963315 1974399 1993971 2014642 2029356 2032985 2022931 
1767.052 2001460 1974632 1951599 1939983 1942879 1956991 1972868 1979159 
1770.909 1964846 1925805 1866935 1802150 1748286 1717814 1714454 1733116 
1774.767 1764421 1799189 1831264 1858682 1882608 1904539 1924973 1941847 
1778.624 1952232 1953496 1945708 1932295 1919316 1913092 1916520 1928202 
1782.481 1943345 1955493 1959621 1953896 1940616 1925007 1913059 1909332 
1786.339 1915655 1931829 1955859 1985250 2017605 2049796 2077228 2094807 
1790.196 2096605 2078027 2038444 1982387 1919881 1862809 1821514 1800386 
1794.054 1798057 1809037 1826505 1845272 1861544 1873923 1882109 1886136 
1797.911 1885570 1879913 1868665 1852060 1831896 1811167 1792701 1779026 
1801.769 1771374 1769811 1773404 1781355 1792834 1807107 1823311 1840514 
1805.626 1857518 1873324 1887101 1898582 1907867 1914923 1919249 1920081 
1809.483 1916886 1909598 1899181 1888066 1878715 1873524 1873357 1877550 
1813.341 1884039 1890096 1894156 1895820 1896319 1898549 1905138 1918617 
1817.198 1939418 1966377 1997366 2029023 2059217 2086251 2109657 2130367 
1821.056 2149413 2167728 2185177 2200696 2212086 2217714 2216948 2211353 
1824.913 2204926 2203260 2210620 2228771 2255349 2284726 2308976 2320968 
1828.771 2317103 2298883 2273867 2252318 2244491 2255982 2286458 2330661 
1832.628 2381266 2431776 2477794 2517950 2553312 2585942 2617675 2649211 
1836.485 2680515 2711555 2743464 2778810 2821096 2874025 2939638 3017205 
1840.343 3103595 3192740 3278598 3354255 3414764 3458782 3488842 3512257 
1844.200 3538746 3577598 3633961 3706907 3790059 3874197 3950025 4009546 
1848.058 4049410 4069711 4073992 4066233 4050346 4027304 3995868 3953870 
1851.915 3899839 3834081 3760011 3682111 3604927 3531430 3462322 3396497 
1855.772 3332285 3268917 3206826 3147181 3091114 3038492 2987644 2936669 
1859.630 2883898 2829700 2776309 2727359 2686150 2654278 2631376 2615142 
1863.487 2603508 2594375 2587509 2582909 2580509 2578476 2573743 2562244 
1867.345 2541013 2509752 2471962 2433575 2401922 2382032 2375402 2380266 
1871.202 2392627 2408753 2425612 2441172 2454301 2463631 2467363 2464298 
1875.060 2453468 2436075 2414450 2391660 2370705 2352781 2337091 2321467 
1878.917 2304079 2284027 2262476 2241660 2224175 2211553 2202828 2195734 
1882.774 2187309 2175986 2161734 2146683 2133664 2124674 2120245 2118680 
1886.632 2116716 2111855 2101866 2086917 2068938 2050695 2035847 2026992 
1890.489 2025394 2031553 2044003 2060549 2078094 2093575 2104230 2109058 
1894.347 2109058 2107393 2107526 2113286 2125706 2143187 2162533 2179683 
1898.204 2192204 2199930 2204859 2209788 2217581 2228538 2240994 2251918 
1902.062 2258313 2259246 2255482 2250120 2245890 2245290 2248221 2253550 
1905.919 2258879 2262476 2263642 2262643 2260811 2259012 2258313 2259246 
1909.776 2262143 2267772 2276699 2289389 2305445 2323999 2343087 2361676 
1913.634 2378767 2394559 2408686 2420947 2428844 2429544 2419914 2399190 
1917.491 2369439 2336458 2308243 2290689 2286558 2293286 2305212 2314638 
1921.349 2315704 2306377 2288224 2266473 2246556 2233200 2228038 2230603 
1925.206 2238829 2251152 2266273 2283527 2301514 2318502 2331727 2338989 
1929.063 2339722 2335658 2330162 2327097 2328996 2335958 2346285 2356846 
1932.921 2366107 2373337 2380499 2389795 2402189 2416682 2430710 2440406 
1936.778 2444638 2443938 2441872 2442472 2448403 2458799 2470129 2476227 
1940.636 2471929 2454768 2426911 2393726 2362642 2339689 2328863 2330595 
1944.493 2343953 2366107 2395592 2429910 2466530 2501954 2532714 2555145 
1948.351 2568677 2573876 2574143 2572143 2570110 2567110 2561311 2549612 
1952.208 2530881 2505953 2478793 2453268 2432742 2418049 2407320 2397291 
1956.065 2385297 2370871 2355980 2343953 2337291 2336624 2339922 2343620 
1959.923 2345519 2344653 2343620 2346385 2356246 2374803 2400956 2431810 
1963.780 2463098 2491656 2514818 2530448 2536381 2531115 2513518 2484492 
1967.638 2447870 2408852 2374669 2350050 2337091 2334526 2338856 2345885 
1971.495 2353947 2362509 2372903 2386263 2402056 2417682 2431110 2442905 
1975.353 2457233 2482259 2525382 2590642 2674514 2766572 2851279 2916787 
1979.210 2955350 2967827 2961422 2945042 2926761 2909449 2892170 2872058 
1983.067 2847710 2820362 2794317 2775942 2768940 2775009 2791449 2813592 
1986.925 2836404 2856949 2873992 2887034 2896573 2901610 2901043 2894705 
1990.782 2884699 2874693 2870957 2877961 2896607 2924059 2952615 2975834 
1994.640 2987177 2985409 2972631 2953816 2934267 2917755 2904946 2894505 
1998.497 2883832 2870623 2853413 2831501 2804388 2771107 2731894 2687050 
2002.354 2638976 2592209 2551478 2520916 2502620 2495589 2496355 2502120 
2006.212 2509919 2521883 2539813 2566177 2600408 2638743 2674847 2701986 
2010.069 2715756 2715456 2703920 2686016 2667113 2649844 2635776 2624609 
2013.927 2615209 2607942 2604042 2604742 2611442 2624342 2643043 2666813 
2017.784 2695818 2730927 2772508 2820295 2870657 2919256 2961655 2994484 
2021.642 3017605 3033654 3046634 3060515 3077666 3096854 3116777 3134198 
2025.499 3146780 3153522 3153522 3146614 3133030 3112139 3086409 3059380 
2029.356 3036991 3025980 3031118 3053407 3089780 3134232 3180591 3224685 
2033.214 3267581 3312686 3364674 3426119 3496023 3569112 3638906 3699521 
2037.071 3748347 3786115 3815496 3839396 3859755 3876804 3891113 3903048 
2040.929 3914449 3928659 3947216 3969385 3991956 4009144 4015666 4009412 
2044.786 3992926 3972495 3957314 3955709 3973063 4008911 4059410 4117140 
2048.644 4174844 4224694 4261834 4282948 4287231 4276189 4254373 4228341 
2052.501 4206025 4194416 4197995 4216363 4244234 4273679 4296467 4307376 
2056.358 4305670 4295062 4281543 4270601 4265281 4265849 4270534 4276658 
2060.216 4283752 4292452 4304833 4322235 4343754 4366646 4386694 4399982 
2064.073 4405237 4403664 4398409 4393489 4391581 4393522 4398342 4404233 
2067.931 4410024 4414810 4418459 4421103 4420902 4416484 4405739 4387832 
2071.788 4364839 4340474 4320160 4308782 4308682 4319256 4337295 4358212 
2075.646 4378026 4394526 4407245 4417053 4425455 4433254 4440317 4446175 
2079.503 4449958 4451866 4452603 4453674 4456218 4461440 4469575 4480321 
2083.360 4492942 4506233 4518889 4529670 4536969 4540150 4538576 4533487 
2087.218 4525820 4517483 4509749 4503254 4497194 4490666 4482162 4471014 
2091.075 4457490 4442761 4428501 4416183 4406911 4401790 4401321 4406543 
2094.933 4417689 4434660 4456017 4478815 4499738 4515642 4524614 4528096 
2098.790 4529268 4532817 4542293 4559972 4584985 4614386 4644794 4673362 
2102.647 4698918 4722231 4745009 4768726 4794187 4821056 4848229 4875168 
2106.505 4901573 4928449 4956132 4985122 5014249 5041803 5065972 5086120 
2110.362 5102278 5116024 5128831 5142142 5155856 5169335 5181909 5193511 
2114.220 5204745 5217488 5233752 5254310 5279028 5305726 5331990 5355806 
2118.077 5376068 5392841 5407603 5421090 5434175 5446790 5457963 5467425 
2121.935 5475277 5482491 5490746 5501282 5515242 5532390 5552660 5574945 
2125.792 5598640 5622874 5646438 5667721 5685177 5696759 5701459 5699848 
2129.649 5694275 5687795 5684774 5687997 5699747 5719689 5747153 5780192 
2133.507 5817298 5856656 5897362 5937265 5975122 6008448 6036333 6057736 
2137.364 6072856 6081928 6084885 6080550 6067614 6044767 6012076 5971730 
2141.222 5928061 5887219 5854372 5832846 5823611 5823510 5828782 5833853 
2145.079 5834659 5827809 5810783 5781300 5737584 5678564 5604481 5517155 
2148.937 5420989 5321826 5225503 5136610 5058261 4989178 4927075 4868433 
2152.794 4808995 4745243 4674736 4595366 4507305 4413003 4319792 4239382 
2156.651 4186420 4175848 4217735 4313267 4452334 4616228 4782294 4929354 
2160.509 5044484 5122998 5166619 5182647 5178925 5163098 5141908 5119846 
2164.366 5101206 5087628 5078241 5070296 5059435 5040495 5010160 4968197 
2168.224 4916519 4859889 4803266 4749967 4700492 4654540 4609731 4564927 
2172.081 4521233 4481158 4448083 4424551 4410526 4403664 4399848 4393690 
2175.938 4381439 4360554 4330099 4291615 4246911 4199601 4153903 4114732 
2179.796 4087037 4074460 4077905 4094897 4120619 4148316 4171834 4187959 
2183.653 4196590 4199401 4199334 4199200 4199200 4199334 4198531 4196825 
2187.511 4195520 4196791 4202345 4213085 4226936 4241858 4254908 4264277 
2191.368 4270065 4273880 4277862 4283082 4289909 4296635 4301955 4304432 
2195.226 4304833 4304399 4305335 4308682 4313567 4317717 4318721 4314538 
2199.083 4304833 4291113 4276289 4263975 4255610 4252164 4252632 4255711 
2202.940 4259626 4263407 4267154 4271538 4277494 4286328 4298007 4312831 
2206.798 4330568 4349945 4369725 4387966 4403129 4414442 4421907 4427396 
2210.655 4433355 4441991 4454879 4471550 4489929 4506167 4516914 4519257 
2214.513 4511791 4495788 4473960 4450058 4428702 4413840 4408350 4413907 
2218.370 4430710 4456887 4489762 4525116 4558900 4587798 4608794 4620715 
2222.228 4623629 4617769 4604708 4585755 4563621 4540954 4521635 4508811 
2226.085 4505196 4511222 4525619 4544603 4563856 4579392 4588869 4592117 
2229.942 4590979 4587965 4585721 4585721 4588735 4594227 4602264 4612277 
2233.800 4624767 4639134 4654674 4669477 4681836 4690477 4695033 4696909 
2237.657 4698348 4702301 4710407 4723437 4740822 4760954 4782294 4803668 
2241.515 4824440 4844309 4863005 4879357 4892827 4902746 4909884 4915983 
2245.372 4923657 4935152 4952244 4974498 5000205 5027087 5052563 5074620 
2249.229 5092657 5106436 5116494 5122998 5126686 5127893 5127826 5128597 
2253.087 5132084 5140332 5153810 5171246 5190259 5207528 5220204 5226877 
2256.944 5227280 5222988 5216046 5208366 5201291 5195423 5190627 5186470 
2260.802 5182982 5179998 5177818 5176745 5177047 5179126 5183619 5190996 
2264.659 5201660 5215308 5230667 5245825 5257832 5264271 5263332 5255148 
2268.517 5240761 5222618 5203202 5184893 5169201 5156794 5147507 5141539 
2272.374 5138588 5138454 5141069 5146065 5152402 5159578 5166786 5173492 
2276.231 5179864 5186201 5193042 5200654 5209104 5218729 5229326 5241231 
2280.089 5254947 5270912 5289190 5309717 5331554 5353659 5374390 5392338 
2283.946 5405791 5413910 5416191 5412669 5403979 5391231 5375833 5359026 
2287.804 5341684 5324543 5307236 5289694 5272186 5254847 5239252 5226777 
2291.661 5219299 5217957 5222719 5232813 5246429 5261386 5275540 5287580 
2295.519 5296603 5302506 5305458 5305726 5303210 5297978 5290230 5280067 
2299.376 5268396 5255987 5244182 5233886 5225771 5220103 5216985 5215543 
2303.233 5215073 5214704 5213732 5211988 5209507 5206723 5204376 5202800 
2307.091 5202498 5203169 5204477 5206052 5207528 5209373 5212122 5216482 
2310.948 5223155 5231707 5241834 5252264 5261822 5270174 5277250 5283355 
2314.806 5289627 5295899 5302070 5307202 5310053 5309516 5305022 5297106 
2318.663 5287111 5276647 5267725 5261957 5259978 5261521 5265411 5269134 
2322.521 5269671 5263533 5248341 5222451 5186805 5143651 5097250 5051691 
2326.378 5011165 4977983 4952914 4935119 4922618 4913604 4907035 4902713 
2330.235 4901272 4903216 4908544 4916419 4925064 4933409 4940715 4947518 
2334.093 4955360 4965750 4979927 4997859 5019009 5041568 5063860 5084913 
2337.950 5103385 5118539 5129502 5135671 5136443 5132184 5124171 5114381 
2341.808 5105430 5099026 5095305 5093059 5090377 5086555 5083102 5084510 
2345.665 5097484 5129200 5184524 5264371 5365635 5481820 5604245 5723516 
2349.522 5831469 5920705 5986074 6025078 6037778 6027262 5997966 5955706 
2353.380 5906027 5854272 5804638 5760315 5723986 5697229 5680343 5673058 
2357.237 5673528 5679470 5688735 5699243 5709852 5719890 5729157 5738054 
2361.095 5746414 5754405 5762497 5771160 5781770 5795202 5812462 5833853 
2364.952 5858470 5885371 5912577 5938743 5963029 5984932 6005055 6023902 
2368.810 6042045 6060491 6079139 6099233 6121243 6146044 6174207 6206170 
2372.667 6241496 6280019 6321034 6363901 6408588 6454962 6503258 6553308 
2376.524 6604979 6657766 6711232 6765311 6820609 6878034 6938631 7003177 
2380.382 7071808 7143615 7217287 7291241 7364163 7435008 7503572 7569753 
2384.239 7633515 7694691 7752636 7806441 7855056 7897704 7934045 7964181 
2388.097 7988580 8007953 8023039 8034448 8042954 8048962 8053181 8055915 
2391.954 8057400 8058109 8058244 8058346 8058953 8060640 8063948 8069484 
2395.812 8077214 8087476 8100101 8115260 8132916 8153577 8177245 8204020 
2399.669 8233736 8266053 8300636 8337214 8375991 8417035 8460785 8507277 
2403.526 8556478 8608015 8661182 8715876 8772030 8829884 8890078 8952682 
2407.384 9018069 9086376 9157502 9231415 9308049 9387067 9467825 9549377 
2411.241 9630336 9709311 9785114 9857338 9926285 9992192 10055497 10115759 
2415.099 10171723 10221994 10265045 10300499 10329205 10353093 10374438 
2418.474 10395173 10416689 10438954 10461388 10483654 10505413 10527104 
2421.849 10549476 10573105 10597992 10623355 10648244 10672150 10695174 
2425.224 10718778 10745065 10775940 10812727 10855598 10904148 10957154 
2428.600 11014313 11075763 11142728 11216640 11298454 11388447 11485909 
2431.975 11589076 11696012 11805323 11916058 12028321 12142520 12259340 
2435.350 12379361 12503338 12631375 12763886 12900465 13040604 13183246 
2438.725 13327201 13471955 13617133 13763659 13912527 14065690 14223803 
2442.101 14387214 14555071 14725599 14896948 15067748 15237173 15404982 
2445.476 15571345 15736535 15900275 16062427 16222849 16382026 16540399 
2448.851 16698658 16857010 17015040 17171162 17323132 17469226 17607672 
2452.226 17738016 17860564 17976652 18087212 18193376 18295900 18394858 
2455.602 18490204 18581840 18668858 18750428 18824712 18889870 18943998 
2458.977 18985086 19012260 19025276 19024824 19011740 18987404 18952790 
2462.352 18909390 18858276 18800732 18738492 18673008 18606082 18539132 
2465.727 18473886 18411866 18355452 18306650 18267978 18241576 18229102 
2469.103 18231142 18247728 18278484 18322790 18380410 18451170 18534948 
2472.478 18630950 18737454 18852152 18972036 19094550 19217136 19338506 
2475.853 19457764 19574278 19687292 19795928 19898660 19994304 20081362 
2479.228 20159276 20227136 20284418 20329796 20362160 20380528 20384314 
2482.604 20374450 20352192 20320074 20280980 20236752 20189056 20138138 
2485.979 20083792 20025358 19963044 19897100 19828528 19758372 19687292 
2489.354 19615286 19541700 19465318 19384616 19298806 19207368 19109958 
2492.729 19006928 18898662 18785370 18666748 18542106 18410622 18271124 
2496.104 18122930 17965982 17800840 17628824 17452012 17271964 17090542 
2499.480 16908784 16726997 16545046 16362585 16179206 15995454 15812160 
2502.855 15630797 15453047 15280312 15113409 14952879 14798546 14650505 
2506.230 14508749 14373240 14244072 14121206 14004364 13892821 13786267 
2509.605 13684115 13586295 13493351 13405996 13324502 13249377 13180378 
2512.981 13116854 13058119 13003524 12952897 12906097 12863637 12826095 
2516.356 12793846 12767196 12746177 12730652 12720211 12714241 12712399 
2519.731 12714070 12719120 12727752 12740411 12757949 12780948 12809749 
2523.106 12844081 12882478 12922890 12963377 13001476 13035756 13065325 
2526.482 13089842 13109717 13125187 13136799 13144789 13149400 13150493 
2529.857 13148273 13142296 13132460 13118424 13099574 13075706 13047262 
2533.232 13014382 12978466 12940709 12902376 12864865 12828860 12794768 
2536.607 12762146 12730993 12700799 12671356 12642973 12616025 12591023 
2539.983 12569058 12550878 12536452 12525709 12517490 12510329 12502759 
2543.358 12493142 12480968 12466475 12450995 12435924 12422797 12412433 
2546.733 12404659 12398385 12391907 12383658 12372509 12358293 12341589 
2550.108 12324033 12307604 12293356 12282858 12275802 12272393 12271337 
2553.484 12271440 12271405 12270280 12267213 12262100 12255318 12247650 
2556.859 12240322 12234290 12230473 12228735 12228326 12227712 12225088 
2560.234 12218749 12207231 12190123 12167837 12141668 12113252 12084463 
2563.609 12056493 12030024 12005294 11982029 11960163 11939625 11920894 
2566.985 11904616 11891573 11882311 11876590 11873968 11873423 11874172 
2570.360 11875534 11877475 11880710 11885852 11893583 11904684 11918783 
2573.735 11935709 11954679 11975218 11996880 12019737 12043718 12068927 
2577.110 12095126 12121463 12146745 12170291 12191214 12209480 12225872 
2580.486 12241754 12259034 12279790 12305491 12337022 12374623 12417171 
2583.861 12463134 12510806 12558314 12604564 12649114 12692201 12734269 
2587.236 12776307 12818485 12860975 12903708 12946103 12988366 13030633 
2590.611 13073520 13117707 13163779 13211630 13260684 13309810 13357713 
2593.987 13402920 13444613 13482208 13516081 13546914 13575937 13604415 
2597.362 13633613 13664795 13698682 13735376 13774672 13815681 13857551 
2600.737 13899013 13939419 13978221 14015862 14052925 14090538 14129968 
2604.112 14172210 14218222 14268416 14322657 14380569 14441606 14504912 
2607.488 14570181 14637174 14706096 14777463 14851310 14927365 15004804 
2610.863 15082533 15158971 15232678 15302792 15369279 15432482 15493460 
2614.238 15553074 15611838 15669612 15725849 15779551 15829720 15875941 
2617.613 15918009 15956128 15991261 16024023 16055103 16085325 16114863 
2620.989 16143749 16171845 16198466 16223470 16246721 16268151 16288482 
2624.364 16308950 16330486 16354226 16380616 16409449 16439904 16470704 
2627.739 16500715 16528971 16555062 16578985 16601223 16622465 16643466 
2631.114 16664950 16687468 16711537 16737191 16764395 16792670 16821256 
2634.490 16849294 16875954 16900826 16923494 16944338 16963664 16982168 
2637.865 17000222 17018450 17037162 17057046 17078274 17101538 17126732 
2641.240 17153858 17182710 17212598 17243038 17273688 17304684 17336236 
2644.615 17368894 17403140 17439252 17477262 17517278 17559162 17602806 
2647.990 17648458 17696014 17745404 17796180 17847928 17899890 17951754 
2651.366 18003418 18055018 18107004 18159654 18213520 18268426 18324692 
2654.741 18382172 18440836 18500786 18562126 18625036 18689128 18754406 
2658.116 18820316 18886550 18952930 19019804 19087210 19155562 19224926 
2661.491 19295550 19367052 19439432 19512378 19585648 19659034 19732296 
2664.867 19805292 19877986 19950660 20023484 20097048 20172048 20248868 
2668.242 20327956 20409074 20492118 20576394 20661970 20748398 20835956 
2671.617 20924714 21014600 21105588 21197254 21289286 21381304 21473340 
2674.992 21565432 21657578 21749918 21842696 21935806 22029494 22123934 
2678.368 22219582 22316854 22416068 22516978 22619310 22722574 22826418 
2681.743 22930990 23037086 23145516 23257572 23374274 23496042 23623060 
2685.118 23754908 23891068 24031156 24174864 24321912 24471990 24624506 
2688.493 24779074 24935064 25092342 25251008 25411596 25574634 25740438 
2691.869 25909084 26080224 26253510 26428730 26605852 26785620 26968318 
2695.244 27154442 27344068 27536640 27731838 27928856 28127552 28327792 
2698.619 28530000 28734000 28940116 29147674 29356360 29565502 29775062 
2701.994 29984654 30194630 30404462 30613610 30820976 31025202 31224538 
2705.370 31417980 31604812 31784986 31958494 32125648 32286406 32440584 
2708.745 32587532 32726630 32857378 32979760 33094242 33201314 33302438 
2712.120 33398252 33489544 33576484 33658828 33735848 33806296 33869052 
2715.495 33923216 33968212 34003688 34029628 34046400 34053964 34052672 
2718.871 34042816 34025548 34002288 33974988 33945820 33916908 33890292 
2722.246 33867260 33848740 33835880 33829400 33830364 33840144 33859412 
2725.621 33888896 33928696 33978532 34037836 34106252 34183212 34268716 
2728.996 34362268 34463412 34571216 34684648 34802484 34923980 35048784 
2732.372 35176780 35308052 35442416 35579056 35716704 35853860 35989080 
2735.747 36120920 36248944 36372436 36491272 36605352 36714372 36818444 
2739.122 36918072 37014508 37108796 37202640 37297156 37392772 37489312 
2742.497 37586632 37684376 37782896 37883108 37986448 38094228 38207312 
2745.873 38326112 38450264 38578728 38710448 38844384 38979376 39113688 
2749.248 39245720 39372964 39492952 39603104 39701844 39787896 39861108 
2752.623 39922020 39971320 40009572 40037476 40055208 40063092 40060948 
2755.998 40048776 40026140 39992496 39947160 39889040 39817456 39731872 
2759.374 39631636 39516504 39386316 39240824 39079864 38904136 38714360 
2762.749 38512316 38300344 38080988 37856860 37631076 37405772 37183760 
2766.124 36967492 36759412 36561952 36377116 36206340 36050348 35909248 
2769.499 35782616 35670120 35571716 35487504 35417468 35361932 35320340 
2772.875 35291480 35273800 35265068 35263380 35266508 35272904 35281024 
2776.250 35289400 35296368 35299784 35297628 35287708 35267908 35236896 
2779.625 35193844 35138084 35070440 34991820 34904196 34809880 34711492 
2783.000 34611116 34510976 34412300 34315904 34222140 34130984 34041924 
2786.375 33954528 33867940 33781012 33691952 33599220 33501032 33396464 
2789.751 33284836 33166480 33042754 32914988 32785154 32654860 32525782 
2793.126 32399028 32275662 32156974 32044094 31938378 31841282 31754326 
2796.501 31678726 31615644 31565722 31529200 31505794 31495106 31496458 
2799.876 31509284 31533334 31568502 31614468 31671100 31737502 31812400 
2803.252 31894158 31980962 32071206 32163754 32257962 32353762 32451294 
2806.627 32550030 32649464 32748140 32844332 32936364 33022232 33100500 
2810.002 33169806 33229142 33277430 33313922 33337784 33348374 33345080 
2813.377 33327836 33296678 33252106 33195090 33127536 33051870 32971252 
2816.753 32889292 32809488 32735310 32669540 32614424 32571960 32543886 
2820.128 32532104 32537996 32562782 32606780 32669290 32748782 32842330 
2823.503 32947876 33062492 33184004 33310522 33439870 33569292 33695852 
2826.878 33815896 33925832 34022716 34104784 34170984 34221604 34257884 
2830.254 34280904 34292376 34293780 34286608 34272228 34252116 34227376 
2833.629 34198624 34166504 34131340 34093852 34054608 34014864 33975632 
2837.004 33937940 33901900 33867152 33832908 33798452 33764144 33731012 
2840.379 33701472 33678488 33664880 33662984 33674224 33698932 33737424 
2843.755 33790500 33859272 33946720 34055256 34188120 34346632 34530244 
2847.130 34736256 34958420 35188528 35416964 35632608 35825216 35985732 
2850.505 36107240 36186100 36221572 36216460 36175296 36105076 36013776 
2853.880 35908744 35798012 35688392 35584916 35492072 35411964 35345504 
2857.256 35292128 35250260 35217636 35191724 35170172 35150408 35130364 
2860.631 35107804 35080608 35046340 35003420 34949908 34884232 34805968 
2864.006 34714720 34611260 34497024 34374644 34247632 34120340 33997596 
2867.381 33884488 33785092 33703084 33640280 33598036 33575948 33572872 
2870.757 33587300 33616224 33656500 33704768 33756444 33808304 33857124 
2874.132 33901220 33939516 33972228 33999820 34022572 34040524 34053068 
2877.507 34059664 34060128 34055004 34045112 34032212 34018056 34004188 
2880.882 33991504 33980540 33971404 33963628 33957860 33953812 33952340 
2884.258 33954028 33959508 33969612 33984804 34005588 34031960 34063784 
2887.633 34100300 34140088 34181740 34223612 34264304 34302956 34339208 
2891.008 34373388 34405880 34437800 34469188 34500720 34532432 34564256 
2894.383 34595796 34626836 34657228 34687264 34717448 34748964 34783316 
2897.759 34822160 34866244 34915792 34970056 35026908 35084524 35140600 
2901.134 35193488 35242536 35287460 35328212 35364516 35395752 35420848 
2904.509 35438316 35447556 35448676 35442668 35431776 35418188 35404060 
2907.884 35391476 35381340 35374760 35372572 35375660 35385292 35402296 
2911.260 35427208 35459600 35498288 35540540 35582936 35621672 35652172 
2914.635 35670120 35671740 35653716 35613832 35551292 35467116 35363728 
2918.010 35244692 35114304 34976628 34835296 34692324 34548616 34403872 
2921.385 34256992 34106860 33952592 33794332 33632940 33470288 33308804 
2924.760 33150706 32998708 32854982 32720950 32597746 32485538 32383606 
2928.136 32290440 32203502 32120190 32037318 31952500 31864136 31772510 
2931.511 31679046 31587030 31500522 31423572 31360104 31313096 31284712 
2934.886 31275776 31286384 31315730 31362348 31423822 31497742 31581114 
2938.261 31670812 31764414 31859822 31956070 32052730 32150086 32247968 
2941.637 32346014 32443046 32536962 32624926 32703336 32768004 32814458 
2945.012 32837972 32834292 32799948 32732740 32632570 32501534 32344300 
2948.387 32166858 31976790 31781812 31588670 31403378 31230378 31072178 
2951.762 30930512 30805644 30697242 30604330 30525872 30460222 30405812 
2955.138 30361144 30324298 30293812 30268092 30246280 30227772 30212854 
2958.513 30202090 30196620 30197508 30205536 30220916 30242976 30270650 
2961.888 30302270 30336734 30372764 30409722 30447498 30485706 30524096 
2965.263 30562416 30600030 30636258 30670822 30703252 30733232 30760190 
2968.639 30784018 30803972 30820158 30832892 30843066 30852102 30861776 
2972.014 30873340 30887568 30904432 30923040 30942254 30961146 30979152 
2975.389 30996374 31013314 31030326 31047194 31063174 31076094 31083140 
2978.764 31081112 31066876 31037906 30992958 30931934 30856298 30768368 
2982.140 30671496 30569420 30465304 30362032 30261022 30162702 30066140 
2985.515 29969530 29871168 29769066 29662020 29549506 29431700 29309176 
2988.890 29182152 29050524 28913022 28767596 28611390 28441866 28257206 
2992.265 28057174 27843178 27618726 27388640 27157580 26930206 26709644 
2995.641 26496730 26290856 26089794 25890620 25690342 25486642 25278154 
2999.016 25064610 24847204 24627312 24407600 24190384 23978210 23772826 
3002.391 23575342 23385882 23203882 23028492 22858410 22692828 22531428 
3005.766 22374518 22222790 22077358 21939222 21808862 21686416 21571142 
3009.142 21461922 21357498 21256090 21156202 21056752 20957050 20856780 
3012.517 20756636 20657314 20559786 20465164 20374208 20287334 20204676 
3015.892 20126340 20052284 19982298 19916420 19854228 19795304 19738954 
3019.267 19684172 19630366 19577262 19524958 19474118 19425642 19379906 
3022.643 19337224 19297214 19259458 19223576 19189880 19159440 19134058 
3026.018 19115982 19107084 19108330 19119066 19137520 19160166 19183266 
3029.393 19202414 19213602 19214018 19201446 19175196 19135788 19084718 
3032.768 19023994 18956254 18883952 18809522 18734754 18661040 18588894 
3036.144 18518316 18449340 18381064 18313390 18246034 18179244 18113500 
3039.519 18049802 17989050 17931552 17877654 17826868 17778574 17732116 
3042.894 17687144 17643800 17602702 17564302 17529008 17496754 17466880 
3046.269 17438492 17410970 17384344 17359100 17336444 17317202 17302342 
3049.645 17291550 17283930 17277792 17272032 17265482 17257622 17248590 
3053.020 17238454 17227008 17214044 17198910 17181502 17162510 17143242 
3056.395 17125422 17111188 17101950 17098056 17099194 17104226 17111842 
3059.770 17121010 17131246 17142484 17154720 17168506 17183778 17200704 
3063.146 17219526 17240522 17264034 17290446 17319376 17350202 17382034 
3066.521 17413488 17443908 17472778 17499718 17525076 17548742 17570374 
3069.896 17589384 17604912 17616402 17623304 17626236 17625684 17622682 
3073.271 17618058 17612676 17607154 17602116 17598390 17596458 17596906 
3076.646 17599632 17604014 17609052 17613226 17615228 17614538 17611052 
3080.022 17605532 17598736 17591870 17585556 17579932 17575444 17571858 
3083.397 17569614 17569132 17570752 17574928 17581896 17591490 17603496 
3086.772 17617506 17633138 17649806 17667300 17685038 17702812 17720726 
3090.147 17738984 17758380 17779748 17803774 17830840 17860564 17891950 
3093.523 17923576 17954344 17983422 18010878 18037576 18064482 18092840 
3096.898 18123622 18157064 18192788 18230242 18268220 18305786 18342456 
3100.273 18377678 18411486 18444776 18478380 18513302 18550510 18590624 
3103.648 18632886 18676778 18720502 18762812 18802774 18840352 18876410 
3107.024 18912228 18949434 18989102 19031610 19076756 19123532 19171214 
3110.399 19219006 19266040 19312282 19357560 19401284 19443312 19483268 
3113.774 19520524 19555458 19588318 19619828 19650786 19682332 19714924 
3117.149 19749148 19785490 19823742 19863558 19904418 19945524 19985700 
3120.525 20024490 20061548 20096944 20131372 20165524 20199956 20234946 
3123.900 20270148 20304832 20338616 20371360 20403552 20436338 20471312 
3127.275 20509694 20551900 20597656 20645672 20694288 20741622 20786352 
3130.650 20827648 20865818 20901348 20935388 20969290 21003822 21039920 
3134.026 21078110 21118458 21160968 21205324 21251148 21297638 21345002 
3137.401 21392616 21440546 21488936 21537680 21586952 21636646 21686208 
3140.776 21735358 21783814 21831232 21877678 21923122 21967870 22012136 
3144.151 22056510 22101134 22146320 22192626 22240366 22290068 22342178 
3147.527 22396846 22453820 22512722 22572436 22632016 22690594 22747294 
3150.902 22801940 22854602 22905980 22956278 23006096 23055954 23105642 
3154.277 23155510 23205560 23255964 23307144 23359272 23412354 23466350 
3157.652 23521156 23576636 23633170 23691078 23751200 23814232 23880706 
3161.028 23950374 24022086 24094510 24165930 24234910 24300782 24363546 
3164.403 24424178 24483628 24542912 24602660 24663150 24724142 24785246 
3167.778 24846326 24906886 24966930 25026244 25084654 25141666 25197108 
3171.153 25250834 25302950 25354126 25405308 25457444 25511204 25566970 
3174.529 25624084 25681906 25739382 25795710 25850564 25904336 25957870 
3177.904 26012534 26069458 26129416 26192162 26256958 26322504 26387428 
3181.279 26450596 26511876 26571330 26630440 26690088 26751612 26815822 
3184.654 26882934 26952664 27024590 27097974 27172290 27246934 27321450 
3188.030 27395486 27469004 27541936 27614454 27687126 27760412 27834592 
3191.405 27910306 27987056 28064774 28143250 28222342 28301904 28382440 
3194.780 28464226 28547478 28631774 28716548 28800770 28883840 28965260 
3198.155 29045068 29123864 29202634 29282096 29363378 29446592 29531772 
3201.531 29618778 29707184 29796390 29886254 29976454 30066814 30157658 
3204.906 30248944 30340856 30433282 30526158 30618944 30710896 30801768 
3208.281 30891164 30979188 31066556 31154154 31242802 31333000 31424462 
3211.656 31516730 31608876 31700254 31790618 31880752 31971474 32064178 
3215.031 32159686 32258212 32358974 32460724 32561850 32660752 32756928 
3218.407 32850586 32942798 33034924 33128608 33224634 33323616 33424876 
3221.782 33527196 33629220 33729544 33827536 33922856 34016084 34108224 
3225.157 34200272 34293416 34388124 34484792 34583236 34683032 34783672 
3228.532 34884772 34985928 35086860 35187632 35288248 35388744 35489552 
3231.908 35590384 35691092 35791284 35889920 35986344 36080412 36172232 
3235.283 36262740 36353700 36446264 36541548 36639740 36739936 36840804 
3238.658 36941232 37040592 37139260 37238560 37339832 37444236 37551952 
3242.033 37662044 37772416 37881768 37988652 38093500 38197508 38303168 
3245.409 38412760 38527812 38649164 38776308 38907944 39042632 39178596 
3248.784 39314924 39450752 39585716 39719924 39853412 39986612 40120252 
3252.159 40254628 40390168 40526368 40663052 40799560 40935196 41069712 
3255.534 41203356 41336612 41470048 41603928 41738320 41872760 42006908 
3258.910 42140732 42274420 42408800 42544688 42682372 42821636 42961568 
3262.285 43100372 43236400 43368372 43496064 43620128 43741920 43863084 
3265.660 43985200 44108744 44234124 44360744 44487888 44614916 44741756 
3269.035 44868164 44994348 45120384 45245540 45369040 45489332 45605176 
3272.411 45715780 45821516 45923524 46023676 46124552 46228028 46335216 
3275.786 46446120 46559448 46673360 46786232 46896660 47004496 47110064 
3279.161 47214220 47317700 47421388 47525104 47628732 47732716 47837168 
3282.536 47942572 48050408 48161192 48275640 48394112 48516212 48641420 
3285.912 48769560 48900148 49032852 49167376 49303204 49439744 49576288 
3289.287 49712168 49847204 49981496 50115312 50249168 50383848 50519836 
3292.662 50657500 50797820 50940900 51087200 51236864 51389420 51544224 
3296.037 51700240 51856280 52011252 52164748 52316916 52468316 52620104 
3299.413 52773964 52930912 53092112 53258088 53428628 53603428 53781564 
3302.788 53962512 54145940 54331920 54521172 54714456 54912076 55114184 
3306.163 55319924 55528736 55739608 55952584 56168336 56388684 56615528 
3309.538 56850228 57093412 57344176 57600952 57861664 58125260 58391368 
3312.914 58661088 58935948 59217476 59506288 59802068 60103792 60409876 
3316.289 60719492 61032264 61348660 61669408 61995020 62325924 62661752 
3319.664 63001940 63346224 63693768 64043828 64395240 64746096 65094500 
3323.039 65438560 65776920 66109596 66437668 66762588 67086048 67409200 
3326.415 67731600 68052024 68368920 68680312 68984296 69279536 69564352 
3329.790 69836864 70095560 70338640 70565368 70775672 70970592 71150728 
3333.165 71316728 71467784 71602064 71717536 71812520 71886416 71940176 
3336.540 71975800 71995352 72000280 71990928 71966216 71924808 71865336 
3339.916 71786992 71689904 71574280 71440096 71287208 71114544 70921592 
3343.291 70708168 70474904 70222784 69953112 69666448 69363216 69042792 
3346.666 68705144 68350304 67979824 67595264 67198976 66792920 66378288 
3350.041 65955488 65524584 65085492 64638108 64182968 63720860 63252532 
3353.417 62779620 62303472 61825556 61348124 60872936 60401464 59934644 
3356.792 59472588 59014968 58561356 58112384 57669020 57232912 56805628 
3360.167 56388272 55980888 55582620 55192020 54807560 54428512 54054932 
3363.542 53687484 53327128 52974856 52631436 52297332 51973380 51659972 
3366.917 51357604 51065844 50783888 50509300 50239572 49971940 49705072 
3370.293 49438816 49174684 48914904 48661656 48415780 48177336 47944680 
3373.668 47716112 47489580 47264648 47041120 46819632 46600832 46384988 
3377.043 46171976 45961828 45754288 45549824 45348808 45151448 44957564 
3380.418 44766076 44575516 44384528 44192336 43999168 43805652 43613056 
3383.794 43422564 43234572 43049108 42865776 42683724 42502992 42323616 
3387.169 42145624 41969424 41794644 41620956 41448284 41276664 41106752 
3390.544 40939164 40774844 40613968 40456356 40301160 40147548 39994820 
3393.919 39842844 39691280 39540460 39390200 39239956 39089108 38937516 
3397.295 38785144 38633120 38482628 38334908 38190560 38049156 37909424 
3400.670 37769852 37629376 37487724 37345212 37202820 37061664 36922036 
3404.045 36783788 36645872 36507092 36366888 36224632 36080556 35935412 
3407.420 35789668 35643788 35497892 35352296 35207108 35062680 34919532 
3410.796 34777680 34636772 34496628 34356460 34216084 34075216 33934572 
3414.171 33794332 33655500 33518068 33382400 33248350 33115376 32982908 
3417.546 32850624 32718092 32584318 32449402 32312964 32175030 32037176 
3420.921 31900506 31766698 31637740 31513880 31394970 31279870 31166542 
3424.297 31053172 30938162 30820584 30700300 30578414 30455602 30333572 
3427.672 30213386 30096324 29982986 29873440 29767434 29664256 29563160 
3431.047 29463436 29364654 29266678 29169820 29074118 28979500 28885292 
3434.422 28790324 28693680 28594614 28493308 28390434 28287512 28185852 
3437.798 28086266 27988610 27891862 27794638 27695286 27592810 27486830 
3441.173 27377804 27266726 27154548 27041938 26928866 26814236 26696782 
3444.548 26574712 26446548 26311346 26169180 26021646 25871312 25721734 
3447.923 25576354 25437664 25307130 25184290 25067312 24953452 24839870 
3451.299 24723792 24603852 24479248 24350718 24219494 24087226 23955836 
3454.674 23826938 23701716 23580868 23463902 23350394 23239150 23128706 
3458.049 23018394 22907692 22796248 22684378 22571912 22458392 22343330 
3461.424 22226418 22107338 21986724 21865516 21745180 21626756 21510698 
3464.800 21396862 21284796 21173734 21063570 20954580 20847880 20744122 
3468.175 20643552 20545646 20449222 20352368 20253554 20151848 20047218 
3471.550 19940252 19832066 19723800 19616258 19510160 19406066 19304592 
3474.925 19206502 19112278 19022160 18935970 18853120 18772362 18692760 
3478.301 18613276 18533218 18452070 18369140 18284152 18197004 18107868 
3481.676 18017786 17928100 17840366 17755482 17673858 17594456 17515520 
3485.051 17434976 17350686 17261724 17168128 17070898 16971108 16870304 
3488.426 16769320 16668497 16567903 16467469 16366921 16266190 16164863 
3491.802 16062494 15958810 15853224 15746016 15637942 15530066 15424104 
3495.177 15321326 15222348 15127200 15035229 14945094 14855939 14766905 
3498.552 14677751 14588205 14497958 14406634 14313377 14217571 14118845 
3501.927 14017094 13913314 13808978 13706136 13607047 13513175 13425714 
3505.302 13343806 13266491 13191069 13114839 13035072 12950200 12859780 
3508.678 12765012 12668150 12571855 12478274 12389010 12304229 12223316 
3512.053 12145586 12070699 11998652 11930157 11864943 11802565 11741762 
3515.428 11679844 11614566 11544056 11468184 11387970 11305902 11225174 
3518.803 11148541 11077463 11011900 10950359 10890285 10828795 10763440 
3522.179 10693307 10618466 10540853 10463119 10387876 10317396 10252255 
3525.554 10191566 10132887 10074352 10013484 9949948 9884149 9817818 9752954 
3529.411 9690811 9631319 9573461 9516085 9457462 9397156 9335571 9273420 
3533.269 9211548 9150192 9089150 9027372 8964183 8899582 8834111 8769191 
3537.126 8706207 8646073 8588920 8534444 8482442 8432643 8384808 8339713 
3540.984 8296718 8254977 8212395 8166305 8114044 8054059 7986117 7911673 
3544.841 7833227 7753716 7675973 7602189 7533913 7472559 7418594 7371847 
3548.698 7331105 7293735 7256166 7214356 7165510 7108316 7044294 6977250 
3552.556 6911530 6851811 6800145 6755989 6716583 6677987 6636670 6590546 
3556.413 6539416 6484221 6426982 6369381 6312326 6255749 6199381 6142885 
3560.271 6086431 6031294 5978717 5930883 5888998 5853230 5822335 5793456 
3564.128 5761825 5722039 5668459 5597197 5506853 5400423 5284897 5170408 
3567.986 5066475 4980196 4914575 4867662 4834893 4809598 4785811 4759045 
3571.843 4726217 4687028 4642216 4593892 4544168 4495252 4448552 4404702 
3575.700 4363768 4324778 4286529 4247546 4206493 4162500 4115267 4065062 
3579.558 4012556 3959253 3906325 3855676 3808877 3767732 3733375 3705603 
3583.415 3682847 3661695 3637035 3603357 3555048 3488241 3402976 3303271 
3587.273 3196812 3094018 3005093 2936669 2891603 2868522 2862218 2866221 
3591.130 2873692 2878462 2875260 2860484 2832635 2791916 2740697 2682382 
3594.988 2621909 2563277 2509919 2463998 2425912 2394659 2367973 2343020 
3598.845 2317204 2288190 2255182 2218147 2178750 2139025 2101333 2067574 
3602.702 2038544 2014309 1994337 1977361 1961418 1944310 1923409 1895654 
3606.560 1858782 1811533 1755272 1693764 1632962 1579120 1536855 1506231 
3610.417 1484387 1465270 1442597 1411448 1370961 1324297 1278069 1239024 
3614.275 1212441 1199350 1196825 1198453 1196759 1184798 1157754 1113138 
3618.132 1052817 981179 905237 832660 770884 724350 694613 679845 676295 
3622.472 679414 685023 691461 698828 709083 723587 741576 758536 765374 
3626.811 749907 699824 608966 481804 336374 199081 95867 39530 28098 48212 
3631.633 82776 116415 138323 144190 135439 117111 95270 74690 57325 42678 
3636.455 29158 15076 497 -13783 -26141 -35982 -43535 -50592 -59471 -71629 
3641.277 -87398 -105353 -122048 -134006 -138378 -134006 -121849 -105386 
3645.134 -89717 -80143 -82363 -100583 -137285 -192896 -264892 -349622 
3648.991 -441187 -531873 -613474 -677129 -715470 -725195 -707464 -668229 
3652.849 -617047 -565825 -526346 -508309 -517841 -554574 -612282 -677790 
3656.706 -738162 -782384 -806230 -810960 -802129 -786519 -769287 -754171 
3660.564 -742958 -736144 -733564 -735151 -740212 -748085 -756850 -764557 
3664.421 -768195 -765615 -755527 -738658 -718050 -698301 -686259 -689104 
3668.279 -713617 -762705 -833514 -914893 -989315 -1038768 -1050535 -1022835 
3672.136 -964619 -893335 -829976 -794853 -804014 -862681 -962040 -1077737 
3675.993 -1180252 -1247261 -1272039 -1262591 -1233880 -1201202 -1174470 
3679.369 -1157484 -1148793 -1144365 -1139904 -1132997 -1123842 -1113432 
3682.744 -1102261 -1089504 -1072680 -1049147 -1018670 -983992 -951395 
3686.119 -929078 -925308 -946072 -991860 -1056947 -1131080 -1202457 -1261401 
3689.977 -1303456 -1328364 -1338769 -1337580 -1327571 -1310790 -1289284 
3693.352 -1265696 -1242569 -1222415 -1207050 -1196212 -1188150 -1180186 
3696.727 -1169050 -1153387 -1133426 -1111218 -1090661 -1075920 -1070664 
3700.102 -1076349 -1092809 -1117101 -1144530 -1169183 -1187125 -1195122 
3703.478 -1192842 -1181838 -1164655 -1144530 -1123710 -1103616 -1084976 
3706.853 -1067095 -1050105 -1033941 -1020355 -1011959 -1012719 -1026140 
3710.228 -1054931 -1098295 -1152792 -1210916 -1263483 -1301970 -1320932 
3713.603 -1318751 -1298039 -1264903 -1225818 -1187588 -1155502 -1132104 
3716.979 -1117762 -1110292 -1106459 -1102988 -1097899 -1091123 -1084711 
3720.354 -1081208 -1082530 -1089306 -1099749 -1110590 -1118290 -1121066 
3723.729 -1118654 -1113829 -1110292 -1111317 -1118323 -1129593 -1140333 
3727.104 -1144167 -1136037 -1113729 -1079126 -1037247 -995463 -961082 
3730.479 -939096 -931524 -936219 -948816 -964156 -980025 -997645 -1022108 
3734.337 -1058732 -1109698 -1171430 -1234541 -1286641 -1317463 -1322517 
3737.712 -1304613 -1270751 -1227999 -1180979 -1130617 -1075589 -1014207 
3741.087 -949378 -888474 -845023 -836028 -875776 -968156 -1098097 -1233153 
3744.945 -1332427 -1368695 -1338934 -1260278 -1158872 -1060286 -985017 
3748.320 -945344 -944485 -976917 -1031628 -1096015 -1159335 -1215344 
3751.695 -1260278 -1290969 -1303919 -1296816 -1269561 -1226082 -1173577 
3755.071 -1120703 -1074333 -1039924 -1018802 -1009612 -1009149 -1014538 
3758.446 -1023893 -1036586 -1051758 -1067161 -1078167 -1079919 -1068714 
3761.821 -1044883 -1012323 -978008 -950171 -934268 -932086 -939889 -950634 
3765.678 -956155 -951494 -936781 -917142 -900708 -894591 -903453 -927325 
3769.536 -961379 -997447 -1027892 -1047229 -1053840 -1049808 -1038272 
3772.911 -1023264 -1007298 -991761 -976620 -961412 -945344 -929078 -913835 
3776.769 -902593 -898757 -904908 -921737 -946865 -974967 -998207 -1009877 
3780.626 -1006009 -987100 -957809 -925474 -897931 -880571 -876074 -883216 
3784.483 -898030 -915918 -932119 -944584 -952684 -957445 -959660 -959991 
3788.341 -958701 -955527 -951097 -945609 -939988 -934136 -927127 -917472 
3792.198 -903618 -885267 -864599 -845453 -833250 -831861 -842642 -862582 
3796.056 -883712 -895980 -890921 -865129 -822402 -772263 -729230 -708324 
3799.913 -721093 -771635 -852761 -946138 -1026140 -1071292 -1071292 -1030140 
3803.771 -961941 -885498 -820749 -782186 -778349 -807884 -859738 -916844 
3807.628 -960949 -981480 -976752 -953213 -919687 -884142 -850810 -819591 
3811.485 -787345 -751227 -710408 -668957 -634980 -618172 -627337 -665583 
3815.343 -726320 -793596 -846676 -868369 -852199 -804014 -738360 -675805 
3819.200 -635244 -631572 -670975 -747423 -842377 -930169 -989678 -1010240 
3823.058 -994373 -953841 -903618 -857490 -823990 -806329 -801402 -802923 
3826.915 -802493 -794589 -777059 -752385 -725228 -701245 -684672 -677592 
3830.772 -679114 -686458 -695621 -702767 -704719 -700319 -690031 -675971 
3834.630 -661911 -652779 -653276 -667667 -697309 -739915 -790190 -839202 
3838.487 -878521 -902494 -909338 -901866 -885233 -865062 -846213 -831695 
3842.345 -822667 -818169 -816450 -814796 -810827 -802096 -787246 -765384 
3846.202 -736871 -702899 -664226 -622374 -577142 -528894 -477795 -425663 
3850.060 -377001 -340252 -327141 -350549 -421790 -542694 -701510 -869560 
3853.917 -1012356 -1103253 -1133459 -1111581 -1054766 -981513 -905371 
3857.292 -835002 -775009 -726220 -688377 -660356 -640935 -628726 -622208 
3861.150 -619826 -620653 -624789 -633855 -649669 -673291 -702171 -729727 
3865.007 -746729 -744579 -719042 -673027 -616683 -565395 -534255 -535182 
3868.865 -571815 -636535 -711235 -773752 -808645 -810960 -788701 -754733 
3872.722 -724202 -707034 -705843 -715370 -725228 -724732 -706075 -668263 
3876.579 -616418 -560167 -510494 -477530 -468957 -486996 -527968 -581278 
3880.437 -633491 -670148 -681363 -665318 -628065 -582006 -541337 -520455 
3884.294 -527868 -564270 -619793 -677261 -717884 -727775 -704090 -653706 
3888.152 -590841 -530714 -486962 -468693 -478258 -511156 -556692 -602885 
3892.009 -638090 -656022 -655095 -638123 -609602 -574197 -535910 -497818 
3895.866 -462172 -431058 -406331 -389547 -382132 -383456 -392163 -405238 
3899.724 -419208 -431455 -440988 -449197 -458962 -473922 -496527 -526313 
3903.581 -560067 -592066 -615492 -625583 -620058 -601033 -572840 -540576 
3907.439 -509402 -482395 -460683 -443835 -430529 -419208 -408747 -398717 
3911.296 -388620 -378226 -367102 -354853 -341775 -328896 -318268 -312639 
3915.154 -314195 -324062 -341510 -364255 -389051 -412620 -432846 -448668 
3919.011 -459955 -466376 -467567 -462602 -450952 -433276 -411925 -390507 
3922.868 -373525 -364685 -365447 -374451 -388157 -401663 -410204 -411694 
3926.726 -406066 -395506 -383059 -371671 -363427 -359521 -360282 -365712 
3930.583 -375974 -390276 -407754 -425927 -441187 -449859 -449297 -438638 
3934.441 -419473 -395374 -370777 -349489 -333333 -322307 -314394 -306679 
3938.298 -297375 -285620 -273369 -263534 -259097 -262507 -273932 -291779 
3942.156 -312275 -330816 -344159 -350184 -349224 -342967 -334458 -326645 
3946.013 -321347 -319360 -320552 -323963 -328201 -332108 -334889 -336710 
3949.870 -337835 -338365 -338100 -336577 -332935 -326645 -317407 -305852 
3953.728 -293302 -280819 -270024 -261779 -255951 -252010 -249195 -246944 
3957.585 -244857 -243632 -243764 -246016 -250619 -257077 -264362 -271316 
3961.443 -276846 -280057 -281250 -280620 -278998 -277144 -275289 -273799 
3965.300 -272508 -270985 -269064 -266713 -263700 -260388 -256878 -253235 
3969.157 -249560 -246149 -242738 -239393 -236214 -233333 -231048 -229326 
3973.015 -228564 -228498 -229127 -229690 -229955 -229756 -228962 -228299 
3976.872 -227836 -228366 -229458 -230617 -230882 -228962 -224259 -216675 
3980.730 -207038 -197400 -189286 -184384 -183556 -186338 -191737 -198129 
3984.587 -203825 -208031 -210515 -211542 -211939 -212535 -213595 -215483 
3988.445 -217602 -218927 -219159 -217172 -212734 -205912 -197036 -187332 
3992.302 -177860 -169845 -164346 -161564 -160968 -161597 -162028 -161067 
3996.159 -157987 -152952 -146494 -139703 -133973 -129766 -127944 -128441 
4000.017 -130561 -134238 
##END=
