
##TITLE=mdmaHCL00405_1
##JCAMP-DX=5.01  $$ Nicolet v. 1
##DATATYPE=INFRARED SPECTRUM
##ORIGIN=UniL
##OWNER=Nicolet
##LONGDATE=2011/08/23
##TIME=13:52:00
##SPECTROMETER/DATA SYSTEM=Nicolet iS5
##DATA PROCESSING=
Ratio against background
%Transmittance->Absorbance
Truncated
ElementMultiply or ElementDivide
##COMMENTS=
Number of sample scans: 32
Collection length: 51.20 sec
Sample gain: 2.0
Background collected on: Mar Aout 23 13:50:33 2011 (GMT+02:00);
Number of background scans: 32
Background gain: 2.0
Sample spacing:  1.000
Number of scan points: 12415
Resolution points: 8192
Number of FFT points: 65536
Apodization: N-B fort;
Phase correction: Mertz;
Laser frequency: 15798.0 cm-1
Number of rejected sample scans: 0
Number of rejected background scans: 0
Bench serial number: ASB1000141;
##RESOLUTION=4.000
##XUNITS=1/CM
##YUNITS=ABSORBANCE
##FIRSTX=649.893372
##LASTX=4000.122314
##FIRSTY=0.089811
##MAXX=4000.122314
##MINX=649.893372
##MAXY=0.219849
##MINY=0.000868
##XFACTOR=1.000000
##YFACTOR=1.000000E-009
##NPOINTS=6950
##DELTAX=0.482117
##ZPD=6100
##XYDATA=(X++(Y..Y))
649.893 89810696 89688848 89646976 89680328 89765144 89870640 89970008 
653.268 90053000 90127408 90210072 90314448 90443616 90586824 90729592 
656.643 90861216 90983440 91107048 91246680 91409496 91590128 91771048 
660.018 91930992 92054664 92138272 92189512 92222008 92248640 92278760 
663.393 92315352 92360064 92411544 92464880 92502560 92489560 92365848 
666.767 92052336 91488192 90679088 89728520 88791616 87991296 87364856 
670.142 86872040 86436384 85976480 85434896 84782240 84024008 83189640 
673.517 82319256 81443984 80577968 79720848 78867912 78020104 77188664 
676.892 76391288 75642696 74948672 74303280 73694024 73110152 72549320 
680.267 72019680 71534240 71103928 70730480 70405848 70115920 69845928 
683.642 69587800 69340864 69109928 68899648 68710888 68539288 68378384 
687.016 68224824 68080856 67954528 67854960 67787952 67750416 67731400 
690.391 67714992 67688112 67644976 67589376 67530776 67479480 67440944 
693.766 67413272 67388664 67357352 67313632 67256496 67188608 67113504 
697.141 67031996 66940172 66833532 66709152 66569432 66422960 66282324 
700.516 66157288 66051924 65961972 65877476 65786748 65681436 65559424 
703.890 65425040 65285312 65145424 65007440 64869344 64727636 64580092 
707.265 64427792 64274052 64122708 63975676 63831224 63686712 63540480 
710.640 63395372 63260428 63148752 63071580 63033960 63028364 63033620 
714.015 63015380 62936784 62763460 62472244 62057780 61532024 60923520 
717.390 60269652 59615368 59007756 58489884 58103404 57883128 57851520 
720.765 58014552 58351764 58812704 59311128 59738912 59983564 59941608 
724.139 59552160 58807736 57761620 56510904 55178664 53885608 52716312 
727.514 51715472 50886432 50204976 49635532 49145968 48716480 48337408 
730.889 48003884 47710820 47448296 47204136 46968164 46734536 46503868 
734.264 46280516 46069100 45869644 45678344 45488524 45295736 45100536 
737.639 44909168 44730704 44572320 44435980 44317188 44206792 44095140 
741.013 43976216 43848860 43715864 43580564 43445228 43309320 43171252 
744.388 43030924 42891452 42758888 42640300 42539388 42454508 42378116 
747.763 42300496 42213140 42113060 42003220 41892132 41789208 41700644 
751.138 41628248 41568956 41517184 41467748 41417048 41363760 41307276 
754.513 41247152 41182736 41114584 41045712 40981840 40930536 40898608 
757.888 40888740 40899044 40923220 40953616 40984572 41015448 41050300 
761.262 41096628 41161136 41248316 41359132 41493524 41652536 41842476 
764.637 42075712 42372088 42756880 43256532 43896772 44694012 45647684 
768.012 46730624 47883928 49020612 50027448 50796704 51249840 51362192 
771.387 51179008 50810260 50407476 50108172 50001500 50093408 50303632 
774.762 50483020 50457120 50091328 49317644 48163452 46732616 45183396 
778.136 43679628 42348236 41272620 40477776 39945416 39629928 39478768 
781.511 39445816 39493496 39597040 39739896 39911416 40105532 40320572 
784.886 40558560 40823908 41122124 41457944 41834812 42255648 42723720 
788.261 43243428 43821188 44463400 45175716 45962752 46828524 47778284 
791.636 48821652 49972428 51247568 52664728 54235768 55962080 57830816 
795.010 59814120 61870408 63944384 65977244 67907680 69679368 71254408 
798.385 72619424 73796464 74840400 75838552 76892200 78087520 79480576 
801.760 81067208 82775984 84458456 85915296 86933360 87309024 86911016 
805.135 85706656 83777208 81299720 78510592 75662496 72947040 70473968 
808.510 68253320 66215172 64242320 62217160 60067984 57780472 55402128 
811.885 53014876 50716072 48587948 46680404 45014156 43582652 42365256 
815.259 41334312 40464208 39732776 39119888 38608780 38185244 37837408 
818.634 37558564 37344996 37195420 37108112 37079420 37103672 37174556 
822.009 37287368 37441092 37638340 37884876 38187196 38550120 38975936 
825.384 39463928 40009972 40606616 41241396 41897096 42549552 43172680 
828.759 43742176 44242084 44672236 45051244 45418772 45826932 46336876 
832.133 47010548 47895028 49017940 50372500 51912548 53540868 55111964 
835.508 56456488 57384560 57731912 57397796 56360280 54692096 52537976 
838.883 50098876 47578188 45149612 42947704 41045092 39465084 38193600 
842.258 37195492 36427708 35846088 35413800 35097852 34870912 34712064 
845.633 34605768 34542728 34518332 34530456 34576420 34651808 34750076 
849.008 34864376 34990380 35126628 35275272 35439792 35622824 35825036 
852.382 36044552 36278984 36527420 36791864 37077220 37390096 37736384 
855.757 38119980 38542876 39006056 39511716 40064616 40672620 41346704 
859.132 42099184 42944960 43900952 44985824 46219920 47620188 49192240 
862.507 50921044 52762144 54639484 56439696 58034476 59292100 60093364 
865.882 60361444 60067376 59239504 57954196 56330096 54510132 52628856 
869.256 50810072 49146932 47693812 46476136 45492940 44728280 44158260 
872.631 43758192 43507012 43384960 43375476 43463504 43634816 43878260 
876.006 44186576 44557636 44994200 45501808 46086120 46748964 47485516 
879.381 48281044 49112872 49948972 50750744 51480952 52105048 52599160 
882.756 52955876 53186140 53318172 53390480 53446800 53525016 53650364 
886.131 53835872 54082136 54383968 54734788 55130848 55572004 56059180 
889.505 56591672 57163896 57764876 58380340 58994772 59593664 60165328 
892.880 60699564 61186504 61616252 61978928 62266072 62473048 62599248 
896.255 62648236 62626764 62542988 62406748 62228904 62023228 61805576 
899.630 61591932 61397508 61231444 61096144 60987076 60896304 60814652 
903.005 60737136 60664164 60601948 60560200 60548732 60576960 60652052 
906.379 60779816 60966260 61218092 61541532 61942204 62422968 62984316 
909.754 63624368 64341708 65135844 66009028 66965064 68008464 69143104 
913.129 70371840 71698344 73129368 74675408 76352416 78179656 80174160 
916.504 82348248 84703384 87228328 89894152 92652352 95435936 98148128 
919.879 100669552 102867480 104596896 105735704 106207080 106001944 
922.771 105195056 103944208 102487128 101089792 100029664 99557440 99840600 
926.146 100952232 102843248 105354104 108214288 111080296 113609336 
929.039 115471144 116419136 116323448 115160328 113004424 109989296 
931.932 106288072 102077816 97527656 92808360 88075776 83475256 79144064 
935.306 75190776 71698624 68723424 66289968 64402736 63051008 62215900 
938.681 61870676 61976448 62480548 63302748 64334640 65451504 66508912 
942.056 67369544 67925544 68102440 67878592 67281136 66383116 65284036 
945.431 64092056 62914068 61831784 60899888 60145612 59571996 59165948 
948.806 58906804 58774428 58750524 58819948 58970864 59191044 59468180 
952.181 59791608 60151856 60543252 60963748 61413156 61891080 62395960 
955.555 62923224 63467532 64023668 64588396 65160632 65740832 66328840 
958.930 66922860 67519192 68113648 68703520 69289016 69873328 70460680 
962.305 71054560 71655472 72260816 72866152 73468048 74065120 74659232 
965.680 75253816 75851696 76454064 77059728 77666880 78274840 78886424 
969.055 79507512 80145912 80808552 81499704 82220664 82971104 83751168 
972.429 84563632 85413960 86309080 87255592 88256704 89312736 90422032 
975.804 91583016 92795304 94060368 95378984 96749384 98164912 99614992 
979.179 101084984 102560472 104028616 105477056 106893904 108265432 
982.072 109574992 110805880 111944344 112983880 113927136 114785560 
984.964 115575768 116313576 117012600 117682680 118330912 118965728 
987.857 119598288 120240208 120903088 121593760 122312584 123054104 
990.750 123810464 124574768 125342800 126113848 126887144 127659496 
993.643 128423456 129168256 129882528 130558504 131193232 131788480 
996.535 132347080 132869792 133354200 133795664 134190824 134541760 
999.428 134857040 135151888 135443264 135746480 136073120 136430784 
1002.321 136825680 137265504 137759840 138318416 138948528 139651024 
1005.213 140420256 141246128 142118880 143033872 143993312 145004672 
1008.106 146076672 147214432 148416720 149675680 150980656 152321264 
1010.999 153687920 155071728 156460816 157836544 159175136 160452096 
1013.891 161647824 162755536 163783280 164753360 165694224 166633904 
1016.784 167596784 168600208 169657792 170783024 171988752 173286672 
1019.677 174683200 176176624 177756624 179408496 181120704 182889488 
1022.570 184721616 186630448 188630272 190728256 192921264 195196016 
1025.462 197534224 199918192 202330624 204754096 207164704 209524416 
1028.355 211783136 213879792 215747856 217328320 218568736 219422368 
1031.249 219848784 219806480 219257792 218178992 216567664 214452560 
1034.142 211889088 208957568 205747552 202343072 198826112 195269728 
1037.035 191740048 188306816 185035552 181985936 179211104 176748832 
1039.928 174623648 172849968 171431536 170361424 169615440 169147488 
1042.821 168878448 168693952 168464608 168048832 167323792 166213456 
1045.714 164693328 162797760 160604208 158223632 155775200 153366272 
1048.607 151093056 149023664 147198112 145631072 144311840 143210656 
1051.500 142283184 141483984 140771232 140111760 139485936 138882144 
1054.393 138292272 137708464 137119232 136509904 135866832 135177584 
1057.286 134432416 133623912 132743168 131780000 130724224 129568472 
1060.179 128313424 126969424 125557456 124104168 122636648 121180240 
1063.072 119754200 118373472 117051120 115797760 114621808 113526488 
1065.965 112506640 111546416 110620408 109700384 108758160 107773816 
1068.858 106739416 105658192 104543064 103411792 102285304 101184096 
1071.751 100126664 99129192 98203336 97353904 96578720 95867664 95206128 
1075.127 94576984 93966240 93364480 92767328 92173952 91583872 90994840 
1078.502 90402816 89803488 89195584 88582680 87974248 87383936 86825904 
1081.877 86313568 85857320 85464344 85141904 84897368 84738744 84674680 
1085.252 84712008 84854224 85101632 85452328 85903432 86452192 87095656 
1088.628 87828008 88637208 89504560 90403104 91301216 92170960 92989864 
1092.003 93746656 94441720 95083408 95683960 96254248 96802424 97332144 
1095.378 97845192 98343312 98831104 99317608 99817384 100348448 100929200 
1098.753 101573520 102283120 103040544 103801904 104502768 105057872 
1101.646 105374888 105377760 105014448 104273160 103181664 101804384 
1104.540 100228944 98545768 96846856 95208600 93686672 92319536 91124504 
1107.915 90101112 89233224 88493712 87848696 87260376 86694120 86119680 
1111.290 85511224 84849920 84120960 83314136 82425440 81457568 80422032 
1114.665 79336288 78223888 77109192 76012944 74952048 73937232 72974672 
1118.041 72068104 71220056 70431880 69703288 69031064 68408944 67827416 
1121.416 67275680 66743268 66220076 65697008 65163904 64608232 64015300 
1124.791 63368724 62653288 61859408 60984832 60037208 59031744 57990960 
1128.166 56940428 55904076 54903992 53956436 53070472 52248448 51486472 
1131.542 50775660 50104192 49460608 48835888 48224652 47626472 47044812 
1134.917 46485616 45955604 45460820 45007212 44599600 44242816 43941900 
1138.292 43701028 43522800 43407880 43354132 43357828 43414764 43522468 
1141.667 43680616 43890760 44154848 44473352 44842852 45256680 45704624 
1145.042 46176176 46662624 47158076 47659492 48165896 48676448 49189232 
1148.418 49701360 50210072 50713764 51213300 51710876 52209696 52711860 
1151.793 53218012 53726480 54234380 54738960 55237396 55727704 56207404 
1155.168 56673624 57122208 57548368 57947116 58313068 58641176 58924944 
1158.543 59155584 59322944 59414608 59418252 59323552 59123004 58812324 
1161.919 58390040 57856368 57212652 56461880 55609624 54664740 53639116 
1165.294 52548072 51407952 50234252 49042384 47845564 46656056 45486172 
1168.669 44347388 43250860 42206824 41222668 40303412 39451552 38667056 
1172.044 37949456 37297984 36712064 36191864 35737356 35347836 35022272 
1175.420 34759232 34557620 34417676 34340860 34330208 34389240 34521740 
1178.795 34731016 35019976 35391944 35850800 36401580 37049792 37800864 
1182.170 38659772 39629600 40712500 41908624 43216268 44629272 46134092 
1185.545 47708268 49315488 50906400 52424984 53806916 54990552 55924500 
1188.921 56567172 56894872 56901596 56599900 56018168 55197964 54191656 
1192.296 53051976 51830968 50576228 49325032 48106740 46942692 45845452 
1195.671 44821540 43871808 42992732 42177756 41418940 40708864 40041764 
1199.046 39414400 38826268 38278848 37773648 37311380 36891088 36510192 
1202.422 36164960 35851664 35567148 35308300 35071628 34852276 34642944 
1205.797 34434608 34218056 33985236 33730800 33453864 33157360 32846976 
1209.172 32530102 32214924 31909562 31621598 31359606 31132262 30947804 
1212.547 30814004 30736964 30720216 30765454 30872770 31041216 31270004 
1215.923 31557884 31903002 32302004 32750424 33242374 33772164 34335372 
1219.298 34929620 35554528 36211128 36901148 37626524 38388724 39189836 
1222.673 40032352 40918776 41851376 42830668 43853956 44915452 46006212 
1226.048 47114976 48227836 49330228 50405464 51434844 52399976 53283184 
1229.424 54070052 54752792 55330536 55810060 56203628 56529284 56809520 
1232.799 57069868 57341720 57660276 58061740 58584596 59263616 60126700 
1236.174 61195696 62483800 63997216 65735556 67692448 69854448 72197200 
1239.549 74687328 77279944 79920064 82552768 85122960 87580656 89885640 
1242.925 92001960 93897376 95543560 96912208 97977744 98719504 99119200 
1246.300 99163248 98843080 98156112 97108576 95717704 94012520 92029144 
1249.675 89804464 87371864 84753408 81961840 79004368 75889808 72635792 
1253.050 69274792 65851024 62422204 59052888 55802524 52727312 49870804 
1256.426 47259660 44905788 42805840 40944920 39299620 37842976 36548864 
1259.801 35391584 34350400 33408880 32553960 31776608 31069830 30427524 
1263.176 29844160 29313892 28831220 28391104 27990060 27625824 27297140 
1266.551 27003082 26742378 26512756 26311310 26135362 25983126 25854468 
1269.927 25751020 25674628 25627492 25610762 25624330 25667492 25739560 
1273.302 25841000 25973242 26139058 26341304 26581862 26860690 27174228 
1276.677 27514152 27867060 28213608 28529080 28788696 28967882 29049142 
1280.052 29025514 28901442 28692194 28419014 28106768 27777048 27446132 
1283.427 27124708 26817902 26528288 26257416 26007258 25780730 25580782 
1286.803 25410016 25270464 25163610 25090306 25051270 25046532 25074754 
1290.178 25132538 25214768 25315384 25428812 25551368 25681906 25822152 
1293.553 25975142 26144302 26332608 26542412 26775786 27035380 27324274 
1296.928 27645916 28003560 28399558 28835434 29312614 29832482 30397142 
1300.304 31007584 31662438 32354794 33070642 33790000 34487052 35134348 
1303.679 35708684 36191648 36573520 36854008 37041352 37151096 37203436 
1307.054 37222820 37233000 37254624 37303904 37389556 37512972 37669524 
1310.429 37850932 38047892 38251380 38454536 38651480 38836632 39003808 
1313.805 39146356 39257364 39330956 39362736 39349748 39290440 39183816 
1317.180 39029800 38829784 38587704 38310660 38009084 37695580 37382404 
1320.555 37079456 36793488 36527348 36281292 36055248 35850188 35668968 
1323.930 35516340 35397048 35315708 35275672 35279012 35327780 35423544 
1327.306 35567620 35759052 35994044 36264688 36558852 36862736 37163332 
1330.681 37449692 37714984 37956032 38171168 38359480 38519556 38649524 
1334.056 38747616 38813440 38847900 38853844 38834816 38795216 38739068 
1337.431 38671400 38598712 38529044 38472784 38441176 38443672 38487116 
1340.807 38573872 38702188 38867320 39063292 39283876 39522456 39772936 
1344.182 40029740 40288364 40546668 40805308 41067308 41335516 41610308 
1347.557 41886040 42150116 42381476 42554188 42642348 42622644 42480012 
1350.932 42209780 41818684 41324040 40751040 40132684 39503080 38894968 
1354.308 38338744 37856680 37463272 37165280 36962080 36848776 36818048 
1357.683 36862696 36975756 37149436 37374748 37640616 37934228 38244868 
1361.058 38565004 38893956 39236944 39604304 40005904 40446536 40923764 
1364.433 41426452 41937092 42431852 42885052 43269676 43557816 43727260 
1367.809 43762040 43656948 43417472 43058108 42598524 42057096 41450072 
1371.184 40789404 40083732 39343252 38582456 37822152 37090936 36419632 
1374.559 35833672 35348200 34963484 34668496 34445908 34280548 34164892 
1377.934 34101380 34102456 34188876 34388016 34729040 35241892 35952868 
1381.310 36875396 38000948 39286196 40653736 41985992 43140588 43977980 
1384.685 44363240 44196188 43430180 42089584 40282144 38180792 36003224 
1388.060 33945036 32140526 30654890 29486662 28595464 27924014 27417332 
1391.435 27028680 26720672 26468310 26254424 26070550 25916576 25798942 
1394.811 25726798 25707076 25740790 25821236 25937364 26075088 26222254 
1398.186 26370984 26519130 26669794 26829428 27004808 27199274 27411720 
1401.561 27636276 27864764 28088528 28300136 28495962 28676196 28844286 
1404.936 29004082 29158834 29309708 29456060 29597566 29735640 29873758 
1408.312 30017388 30172220 30342312 30529534 30733942 30954564 31191072 
1411.687 31444378 31715758 32006178 32315318 32640536 32978688 33327624 
1415.062 33687364 34060988 34453656 34871416 35319408 35801504 36319944 
1418.437 36874096 37459476 38066012 38676184 39267120 39812336 40287340 
1421.813 40675968 40972156 41187804 41352028 41511096 41713920 41999900 
1425.188 42389368 42879672 43454168 44090920 44773312 45490440 46235328 
1428.563 47001648 47780168 48559932 49333272 50100588 50872912 51667476 
1431.938 52502936 53391456 54335712 55328880 56361860 57429372 58533904 
1435.313 59689224 60916124 62236396 63658052 65171800 66755092 68375744 
1438.689 69998424 71581120 73076912 74424192 75549832 76383976 76859488 
1442.064 76924912 76550688 75726904 74466392 72803416 70799032 68534008 
1445.439 66097604 63588768 61099536 58712632 56504224 54531356 52825676 
1448.814 51384048 50171916 49133796 48211840 47367584 46592164 45908168 
1452.190 45355320 44974320 44785288 44778232 44912584 45126712 45355688 
1455.565 45537572 45637964 45663328 45665792 45718544 45881096 46185464 
1458.940 46633220 47211376 47902944 48690644 49553560 50461436 51376812 
1462.315 52247068 53005776 53586372 53927284 53995304 53799416 53392580 
1465.691 52854340 52260144 51671056 51123504 50634680 50212344 49856420 
1469.066 49559168 49302240 49055516 48780424 48436416 47999408 47476680 
1472.441 46914968 46383696 45951108 45660016 45519764 45519540 45642236 
1475.816 45876864 46220512 46674504 47236164 47893028 48621152 49390512 
1479.192 50167932 50926856 51652920 52345512 53018656 53695508 54405112 
1482.567 55174564 56028720 56993204 58094276 59359828 60813244 62464132 
1485.942 64293720 66241728 68209512 70051480 71589088 72642024 73037360 
1489.317 72652592 71450840 69497504 66953780 64027696 60931528 57824568 
1492.693 54795152 51882564 49085976 46394940 43816756 41383548 39158320 
1496.068 37221664 35644512 34466640 33686756 33274178 33182860 33366300 
1499.443 33786668 34410792 35207396 36145512 37188708 38296328 39426880 
1502.818 40527204 41533808 42368800 42921184 43054012 42617344 41492504 
1506.194 39669208 37297804 34657944 32027722 29582208 27370500 25363120 
1509.569 23508004 21767162 20125992 18594324 17194190 15943652 14851755 
1512.944 13913075 13111937 12427843 11840189 11330524 10881316 10478189 
1516.319 10112470 9782233 9493935 9256800 9076497 8948860 8858255 8779029 
1520.177 8685080 8560364 8410414 8261427 8149391 8098549 8110027 8165563 
1524.034 8237855 8304149 8351839 8383355 8411731 8453961 8520590 8611564 
1527.892 8718411 8831541 8946154 9064113 9191953 9334724 9491327 9652797 
1531.749 9804160 9930963 10028303 10106298 10188784 10300873 10457824 
1535.124 10657990 10886922 11123828 11349264 11549535 11714564 11838486 
1538.500 11917557 11949366 11934279 11878769 11798650 11714597 11645569 
1541.875 11600613 11575328 11554945 11519831 11455392 11357937 11238095 
1545.250 11114921 11009419 10933232 10884476 10850638 10814799 10764425 
1548.625 10696058 10617854 10544825 10492718 10468957 10470281 10485522 
1552.000 10502867 10515291 10523845 10537187 10567130 10622812 10705906 
1555.376 10810111 10922122 11026616 11104485 11135012 11098809 10987738 
1558.751 10819079 10637854 10500491 10444146 10473710 10571985 10711714 
1562.126 10866707 11014144 11140043 11240033 11319913 11393277 11475635 
1565.501 11577948 11701493 11838589 11976069 12101668 12207742 12294242 
1568.877 12368111 12442062 12529768 12640484 12779139 12946069 13138403 
1572.252 13351289 13577064 13805831 14023322 14214730 14368582 14482576 
1575.627 14568811 14651841 14760392 14912277 15108914 15338558 15585083 
1579.002 15834255 16077178 16311428 16538369 16761020 16981616 17200842 
1582.378 17418074 17632552 17843992 18052462 18256920 18453662 18636206 
1585.753 18796580 18927180 19024272 19089842 19132222 19163976 19199714 
1589.128 19254020 19337778 19459148 19622844 19829950 20077408 20355978 
1592.503 20650434 20937612 21190294 21383044 21494752 21515120 21446432 
1595.879 21302788 21106562 20881600 20651858 20435988 20247582 20097464 
1599.254 19993680 19942194 19947156 20009500 20127796 20298930 20519594 
1602.629 20786422 21095396 21440166 21809594 22186174 22548842 22871924 
1606.004 23129614 23301094 23370392 23330220 23182246 22935320 22603116 
1609.380 22201414 21748664 21264370 20770676 20291708 19848366 19454992 
1612.755 19115706 18823396 18561852 18308620 18042308 17746128 17415660 
1616.130 17062698 16715566 16408864 16170435 16012816 15931759 15912030 
1619.505 15932033 15969638 16005596 16023988 16017456 15987204 15945267 
1622.881 15909623 15898108 15922273 15983216 16073154 16180340 16294055 
1626.256 16406354 16513208 16613171 16706198 16792670 16873784 16951812 
1629.631 17030512 17113944 17205564 17305858 17410970 17512242 17596250 
1633.006 17647422 17648252 17584002 17447874 17246348 17002496 16750585 
1636.382 16524738 16344145 16210778 16111802 16029043 15943617 15840476 
1639.757 15712107 15558775 15388778 15214249 15047954 14897737 14763854 
1643.132 14638922 14510018 14361492 14177551 13947699 13670404 13356551 
1646.507 13030428 12723897 12468794 12285618 12180479 12145859 12165214 
1649.883 12214728 12263737 12277029 12211047 12024846 11700403 11271555 
1653.258 10827470 10464612 10235292 10129869 10107518 10122814 10142825 
1656.633 10149336 10134922 10101210 10053904 9999210 9940523 9877641 9806838 
1660.490 9723067 9621664 9501114 9363739 9217572 9074432 8946526 8844289 
1664.348 8772741 8730751 8711955 8705802 8700022 8681227 8637927 8562527 
1668.205 8453758 8318199 8168906 8023377 7897534 7801583 7738875 7705618 
1672.063 7692600 7686158 7671319 7632167 7556671 7442053 7298789 7149543 
1675.920 7019610 6927117 6874971 6853663 6846560 6838516 6821417 6795500 
1679.778 6769417 6753735 6755383 6771336 6787725 6780624 6724457 6601715 
1683.635 6416087 6199011 5998840 5856857 5784725 5770656 5789963 5819984 
1687.492 5843491 5851282 5840838 5814275 5776834 5735167 5697497 5672017 
1691.350 5665001 5679571 5712806 5755849 5792851 5806350 5780024 5708475 
1695.207 5603004 5492759 5412904 5384723 5407402 5459104 5508564 5520812 
1699.065 5468901 5345072 5171078 4994340 4862637 4801591 4804975 4849770 
1702.922 4907069 4954053 4976174 4966823 4929119 4873493 4814188 4763199 
1706.780 4727188 4706957 4699019 4698617 4701631 4705918 4711144 4718547 
1710.637 4729566 4745210 4765343 4788893 4814087 4839417 4863708 4885925 
1714.494 4904791 4917022 4917525 4899864 4858951 4795158 4716905 4640441 
1718.352 4584483 4561780 4576111 4621385 4686090 4757403 4824138 4879725 
1722.209 4922149 4953920 4979760 5005735 5036104 5072743 5115521 5162595 
1726.067 5211351 5258737 5301298 5335713 5359395 5371841 5375598 5376168 
1729.924 5379825 5390695 5407301 5421224 5416594 5373317 5274399 5115723 
1733.781 4915514 4711211 4546880 4449489 4420233 4441489 4487820 4535663 
1737.639 4566535 4570955 4547817 4504961 4455214 4411195 4381607 4368554 
1741.496 4369123 4378461 4392719 4409455 4428266 4449656 4474228 4501948 
1745.354 4532248 4563822 4595231 4625270 4652397 4674568 4689272 4693157 
1749.211 4682204 4654071 4608626 4549927 4486849 4431078 4393121 4378661 
1753.069 4387531 4413204 4445271 4471249 4481124 4468604 4435129 4388468 
1756.926 4341880 4307477 4292117 4294794 4308314 4321666 4323975 4307644 
1760.783 4270501 4216731 4155542 4097773 4053356 4027438 4020649 4029310 
1764.641 4047403 4067704 4082622 4086903 4077838 4058105 4034293 4015766 
1768.498 4010516 4020782 4042052 4063123 4070982 4053657 4006603 3936115 
1772.356 3858317 3792633 3753461 3745139 3761950 3793568 3829468 3863164 
1776.213 3892350 3918729 3943839 3968415 3990251 4005433 4010683 4005198 
1780.071 3991956 3977209 3967613 3967111 3975471 3988946 4001955 4010014 
1783.928 4011519 4008008 4003694 4002858 4008208 4020749 4039577 4063591 
1787.785 4091652 4122893 4155609 4185885 4208401 4216296 4203683 4168622 
1791.643 4114966 4052286 3993260 3948620 3923276 3916121 3921470 3932437 
1795.500 3944240 3953769 3960791 3966141 3970221 3972528 3971993 3966877 
1799.358 3956411 3941531 3924513 3908565 3896061 3888672 3886031 3887736 
1803.215 3892584 3900173 3910170 3922841 3937486 3953669 3970054 3985670 
1807.073 3999781 4011920 4021685 4028407 4031451 4029946 4023725 4013693 
1810.930 4001988 3991923 3986706 3988244 3996471 4009981 4025865 4041249 
1814.787 4054293 4064861 4073691 4083023 4094763 4109948 4128614 4150089 
1818.645 4173105 4196590 4220846 4245840 4272776 4301487 4331271 4359785 
1822.502 4383849 4400217 4406878 4404401 4396334 4388870 4389271 4402057 
1826.360 4428367 4464252 4502250 4533319 4549458 4546712 4526723 4497227 
1830.217 4468604 4451699 4452636 4472186 4506267 4548822 4594059 4637895 
1834.074 4678654 4716637 4753283 4789698 4826651 4864211 4902880 4943765 
1837.932 4989044 5042171 5106335 5183686 5274433 5375967 5483162 5589477 
1841.789 5686822 5767735 5827741 5867000 5891820 5913249 5944050 5992860 
1845.647 6062003 6145943 6235042 6317840 6384647 6429673 6452103 6454929 
1849.504 6442721 6419685 6388144 6347897 6298004 6238068 6169099 6094831 
1853.362 6019233 5945797 5875463 5807425 5739363 5669030 5595888 5521585 
1857.219 5448535 5379255 5314447 5253270 5194182 5135604 5077705 5022193 
1861.076 4972018 4929119 4894570 4867261 4845280 4827188 4812814 4803031 
1864.934 4799078 4800753 4805109 4807454 4801424 4783064 4751407 4710675 
1868.791 4668607 4633609 4612109 4605612 4611473 4624433 4639336 4652531 
1872.649 4662310 4668071 4670013 4668004 4661975 4651626 4637661 4621151 
1876.506 4603838 4587396 4571691 4556188 4539748 4521300 4501245 4481057 
1880.364 4462746 4447983 4436568 4426526 4414911 4399514 4379833 4357910 
1884.221 4337495 4322670 4315810 4316747 4321934 4326619 4325983 4315910 
1888.078 4295865 4267422 4234933 4204252 4180532 4168020 4168555 4181770 
1891.936 4204519 4232590 4260897 4284990 4302089 4312061 4317081 4320428 
1895.793 4325214 4333045 4343319 4354095 4363165 4369089 4372135 4374244 
1899.651 4377055 4382142 4389473 4398308 4407279 4416049 4425823 4437639 
1903.508 4453071 4471684 4491302 4508912 4521467 4527326 4526590 4521635 
1907.365 4514771 4508477 4502819 4497194 4490498 4482531 4473827 4466595 
1911.223 4463081 4464319 4470646 4481326 4495286 4512427 4532650 4555485 
1915.080 4579426 4600556 4613817 4614621 4601159 4575408 4544067 4515809 
1918.938 4496826 4489561 4491335 4495989 4497295 4491670 4479752 4466361 
1922.795 4457858 4458126 4468202 4485477 4504760 4522070 4535931 4547416 
1926.653 4559336 4573566 4589606 4604842 4616161 4620849 4619175 4613616 
1930.510 4607755 4604005 4603034 4602799 4600991 4596805 4591481 4588434 
1934.367 4591347 4601862 4618706 4637828 4654909 4667468 4676645 4686760 
1938.225 4701866 4724676 4752646 4779346 4796901 4798609 4782730 4753350 
1942.082 4719886 4691449 4675841 4675372 4687865 4708632 4733385 4759681 
1945.940 4786649 4814054 4840723 4863809 4879893 4887164 4886192 4880731 
1949.797 4876307 4878921 4891655 4914308 4943061 4972855 4998864 5017970 
1953.655 5029970 5035467 5035702 5032249 5025679 5017031 5007545 4999066 
1957.512 4992563 4989412 4989245 4990250 4991725 4993233 4995244 4999635 
1961.369 5007478 5018238 5030104 5040663 5047401 5050786 5052563 5055345 
1965.227 5061681 5071369 5082264 5091383 5096847 5098323 5099294 5104122 
1969.084 5114013 5128831 5144187 5154481 5155118 5146803 5132486 5119746 
1972.942 5114750 5119981 5133726 5152201 5171179 5190091 5212692 5245289 
1976.799 5291840 5351982 5417366 5474304 5511115 5519034 5498262 5456017 
1980.656 5404215 5356075 5320350 5301768 5300393 5313507 5336350 5364662 
1984.514 5393949 5419983 5438738 5448535 5448803 5442596 5434342 5429377 
1988.371 5430652 5437664 5446488 5451789 5449743 5439107 5423203 5407838 
1992.229 5399450 5400692 5410622 5424680 5437798 5446388 5450514 5452696 
1996.086 5457057 5466049 5480142 5497457 5514772 5530477 5544404 5558936 
1999.944 5576388 5596895 5618276 5635159 5641403 5632810 5608206 5569642 
2003.801 5522725 5473196 5426491 5385998 5353793 5330682 5318472 5317834 
2007.658 5329440 5352149 5382945 5417433 5452092 5484538 5513866 5541552 
2011.516 5569005 5596526 5623546 5648419 5669332 5685815 5698001 5706763 
2015.373 5713444 5718615 5722475 5725430 5729324 5736375 5750510 5773812 
2019.231 5806653 5846514 5889267 5931151 5969815 6006432 6043221 6083138 
2023.088 6126553 6170980 6210741 6240723 6256925 6259110 6250303 6235412 
2026.946 6219446 6205262 6194305 6186373 6183214 6186273 6199515 6224891 
2030.803 6262338 6308393 6357546 6403679 6444402 6480454 6517586 6561448 
2034.660 6616417 6682328 6754206 6825557 6888604 6939574 6977351 7004591 
2038.518 7025435 7043182 7060492 7078206 7096360 7114682 7132769 7149038 
2042.375 7161468 7167362 7163691 7149611 7126033 7096898 7068777 7046853 
2046.233 7036279 7038468 7052679 7075512 7104207 7134857 7163455 7187338 
2050.090 7201993 7204452 7193065 7169518 7138495 7107979 7086626 7080833 
2053.948 7093194 7120879 7156348 7191953 7220252 7238107 7246564 7249125 
2057.805 7250136 7253201 7258727 7265600 7272204 7276652 7278033 7277359 
2061.662 7275338 7272474 7268734 7263916 7257177 7248956 7239590 7229281 
2065.520 7218129 7206136 7192560 7178243 7164904 7154832 7150318 7152474 
2069.377 7159918 7169283 7176559 7178243 7173561 7164364 7154832 7149274 
2073.235 7150486 7158133 7169148 7179995 7186698 7188080 7184947 7180129 
2077.092 7176492 7176155 7179389 7185486 7192829 7200713 7208326 7216041 
2080.949 7223823 7230797 7236221 7239118 7239152 7237569 7236322 7237804 
2084.807 7243633 7253909 7267521 7281908 7294476 7303069 7306203 7303406 
2088.664 7294510 7279752 7259637 7235109 7207820 7180399 7155573 7135800 
2092.522 7122833 7117275 7119262 7128155 7143851 7165948 7194008 7226552 
2096.379 7260883 7293465 7320827 7340473 7352133 7357524 7359883 7361906 
2100.237 7366186 7373094 7382497 7393518 7406056 7421088 7440266 7465109 
2104.094 7495987 7531823 7570427 7609102 7645959 7679987 7711689 7742214 
2107.951 7772133 7802055 7832147 7861905 7891765 7921931 7952537 7983147 
2111.809 8012442 8038025 8058008 8071206 8078666 8082953 8087780 8096456 
2115.666 8111040 8131329 8155299 8180250 8203885 8225057 8244711 8264364 
2119.524 8285911 8310497 8338598 8369269 8401630 8434399 8466732 8497478 
2123.381 8526031 8551375 8572867 8590373 8604737 8617445 8630626 8645735 
2127.239 8663717 8684844 8708202 8732847 8758067 8783425 8809089 8835058 
2131.096 8861265 8887778 8914632 8942772 8973349 9007887 9046961 9089725 
2134.953 9133950 9175979 9212800 9242279 9265195 9283304 9299552 9316579 
2138.811 9334691 9353345 9370984 9385847 9397257 9405553 9411512 9414966 
2142.668 9415237 9409921 9396783 9375047 9345186 9309674 9271964 9234596 
2146.526 9197875 9161157 9122106 9078120 9029334 8977070 8924440 8874657 
2150.383 8830053 8790999 8756783 8726187 8696574 8667672 8637420 8603791 
2154.240 8563371 8513934 8454467 8389942 8330391 8289626 8283142 8321644 
2158.098 8406258 8525997 8661824 8791573 8896199 8966720 9002542 9011743 
2161.955 9004132 8989180 8973011 8957722 8942299 8925793 8905940 8881556 
2165.813 8851560 8815919 8772843 8722535 8664461 8600445 8532823 8465009 
2169.670 8400009 8340423 8287734 8242719 8205777 8177178 8157595 8146859 
2173.528 8144563 8148513 8156008 8162896 8164483 8157291 8137844 8104186 
2177.385 8056725 7997052 7929928 7861129 7797467 7745418 7709126 7690036 
2181.242 7686326 7693274 7705449 7719008 7731117 7741472 7751523 7762317 
2185.100 7773719 7784986 7794161 7798985 7799458 7795612 7789371 7782354 
2188.957 7775945 7770109 7764240 7756887 7747037 7734726 7720526 7706529 
2192.815 7695163 7688687 7688283 7693847 7703831 7715062 7724033 7726496 
2196.672 7720391 7705449 7684404 7661606 7643295 7634864 7639080 7655840 
2200.530 7682145 7712903 7743259 7768659 7786740 7796252 7797467 7790585 
2204.387 7776248 7755841 7731117 7705112 7681268 7662787 7651861 7649196 
2208.244 7653479 7662416 7673815 7685888 7697928 7710104 7722280 7733950 
2212.102 7745047 7754424 7762722 7770413 7779217 7790012 7803202 7816898 
2215.959 7829144 7837309 7840649 7839603 7836736 7835150 7836972 7843281 
2219.817 7852862 7863693 7873072 7879382 7881811 7880124 7874151 7863389 
2223.674 7846958 7824523 7796826 7766635 7737627 7714286 7699750 7695703 
2227.531 7701133 7713477 7730982 7750579 7771290 7792609 7813694 7833024 
2231.389 7849388 7861061 7867606 7870913 7873106 7877897 7887007 7900841 
2235.246 7917071 7932695 7944472 7950817 7952537 7951930 7951863 7954933 
2239.104 7961683 7971233 7982269 7993204 8003532 8014061 8025841 8039544 
2242.961 8055071 8071476 8086599 8099528 8109250 8116002 8120560 8124205 
2246.819 8127514 8131734 8136967 8143550 8151181 8159688 8167724 8174342 
2250.676 8178393 8179406 8178258 8177076 8178495 8185281 8198889 8218439 
2254.533 8241536 8263858 8281554 8291179 8291349 8282365 8265648 8243900 
2258.391 8219351 8194668 8171573 8151316 8135043 8122721 8113909 8107394 
2262.248 8101959 8096692 8091156 8086194 8082548 8081062 8082109 8085114 
2266.106 8088793 8091763 8092912 8092439 8090211 8087105 8082716 8076911 
2269.963 8068877 8058244 8045215 8031343 8018247 8008189 8002316 8001202 
2273.821 8004004 8009910 8018213 8028338 8040388 8054159 8068472 8081771 
2277.678 8091966 8096928 8096760 8091831 8084776 8078565 8075425 8076337 
2281.535 8081029 8087915 8095004 8100878 8104659 8106380 8106280 8104997 
2285.393 8102870 8100372 8097705 8095477 8093687 8092371 8090244 8086228 
2289.250 8078633 8066750 8050784 8032524 8014231 7998638 7987804 7982539 
2293.108 7982067 7985543 7991449 7999043 8008054 8018247 8029655 8041232 
2296.965 8051730 8059797 8064522 8065906 8065096 8063510 8062903 8064084 
2300.823 8067223 8071645 8076505 8081603 8086835 8092810 8100034 8108643 
2304.680 8118466 8129202 8140512 8152261 8165057 8179642 8196288 8214758 
2308.537 8233838 8252140 8268113 8280912 8290807 8299116 8307593 8317894 
2312.395 8331370 8348698 8369809 8394131 8420886 8448893 8477037 8504270 
2316.252 8529140 8551003 8569792 8585574 8599195 8611970 8624847 8638603 
2320.110 8653983 8670883 8689103 8707594 8725038 8738932 8746641 8745626 
2323.967 8734098 8711887 8680855 8644992 8608758 8577328 8554517 8542386 
2327.824 8540798 8547827 8560938 8576990 8593516 8609198 8623258 8635156 
2331.682 8645160 8653306 8660337 8667401 8675818 8686973 8701677 8720372 
2335.539 8742313 8767061 8793771 8821904 8851357 8882130 8913448 8944226 
2339.397 8972571 8996487 9014551 9026391 9032615 9034375 9032074 9025105 
2343.254 9011100 8987488 8952445 8907394 8857173 8810407 8778117 8769833 
2347.112 8791946 8846420 8930190 9036540 9156046 9279919 9399086 9506703 
2350.969 9599307 9675937 9738620 9790807 9836289 9877370 9914861 9948456 
2354.826 9977681 10002533 10024877 10046748 10070588 10096768 10125155 
2358.202 10153780 10180203 10202760 10221078 10235733 10247980 10258701 
2361.577 10267963 10275528 10280380 10282449 10282381 10281601 10281398 
2364.952 10282313 10284316 10286181 10286555 10284180 10278854 10270439 
2368.327 10259345 10245775 10229424 10209681 10186478 10160258 10132548 
2371.703 10105111 10079778 10057430 10038475 10022368 10008941 9998227 
2375.078 9990768 9987953 9990632 9999346 10013281 10031151 10051462 10072961 
2378.935 10095615 10119864 10146725 10176878 10210596 10247404 10286827 
2382.311 10328391 10372062 10418182 10466988 10518176 10570728 10622574 
2385.686 10671471 10715484 10753420 10785246 10811844 10834298 10853186 
2389.061 10869051 10881961 10891679 10898542 10903128 10906594 10909550 
2392.436 10912574 10915360 10917501 10918520 10918622 10918384 10919370 
2395.812 10922598 10928918 10938534 10951038 10965854 10982912 11002317 
2399.187 11025087 11052005 11083955 11120870 11162650 11208310 11257035 
2402.562 11308147 11360930 11415217 11470498 11526329 11582441 11638661 
2405.937 11695365 11753405 11813631 11877066 11944223 12015343 12090527 
2409.313 12169541 12252592 12339714 12430877 12525607 12622915 12720929 
2412.688 12817700 12911080 12999325 13081306 13156197 13223620 13283060 
2416.063 13334581 13378385 13415189 13446117 13472468 13495641 13516422 
2419.438 13535325 13551801 13565954 13577236 13586227 13593748 13600756 
2422.813 13608278 13616996 13627356 13639699 13655188 13674712 13699811 
2426.189 13731785 13771594 13819239 13874519 13936682 14005220 14080201 
2429.564 14161667 14249755 14344369 14444551 14549247 14657119 14767659 
2432.939 14880900 14997842 15119858 15247812 15382084 15522305 15667312 
2436.314 15815802 15967026 16120365 16275650 16432919 16591515 16751068 
2439.690 16910852 17070624 17230662 17392104 17556020 17723934 17897196 
2443.065 18075916 18260098 18449478 18643262 18840558 19040506 19241864 
2446.440 19443036 19642464 19838758 20030908 20218390 20401260 20579762 
2449.815 20754132 20924366 21090352 21251672 21407826 21558468 21703414 
2453.191 21842452 21975606 22102738 22224290 22340226 22450680 22555752 
2456.566 22654356 22745442 22827048 22896898 22952786 22993414 23017800 
2459.941 23026430 23019650 22998516 22963860 22916632 22857640 22787936 
2463.316 22709166 22623114 22532056 22438362 22344586 22253340 22167242 
2466.692 22088792 22020850 21965604 21924828 21899282 21889526 21895520 
2470.067 21917056 21954556 22008370 22078334 22164068 22264292 22376366 
2473.442 22497262 22624092 22754556 22887154 23021050 23155300 23288686 
2476.817 23419102 23543438 23658642 23762326 23852876 23930174 23994774 
2480.193 24047300 24087996 24116296 24131848 24133598 24122076 24097908 
2483.568 24063024 24019390 23968826 23912702 23851964 23787280 23719422 
2486.943 23649720 23578944 23508566 23439002 23369868 23300116 23228314 
2490.318 23152680 23071676 22984086 22889006 22785564 22673208 22551354 
2493.694 22419836 22278732 22128886 21971426 21807748 21639050 21466274 
2497.069 21289912 21110284 20927078 20740438 20549886 20355458 20157228 
2500.444 19955586 19751160 19545338 19339822 19136134 18936214 18741674 
2503.819 18552824 18370178 18193480 18022482 17857044 17697600 17544464 
2507.195 17398140 17259002 17126904 17001464 16882326 16768942 16661404 
2510.570 16559640 16463751 16373664 16289135 16209677 16135393 16066380 
2513.945 16003292 15947055 15898420 15857762 15824944 15799480 15780341 
2517.320 15766665 15757561 15752373 15750038 15749693 15750278 15750999 
2520.696 15751995 15753953 15758902 15769346 15787419 15814153 15849652 
2524.071 15891889 15938392 15985657 16031003 16072089 16107503 16136665 
2527.446 16159154 16175078 16184501 16187871 16185567 16178483 16167203 
2530.821 16152551 16134877 16114382 16090689 16063664 16033100 15999030 
2534.197 15962111 15923234 15883537 15844325 15806833 15772164 15740898 
2537.572 15712898 15687751 15664427 15641823 15619222 15596554 15574332 
2540.947 15553623 15535594 15520793 15509324 15500018 15491538 15482370 
2544.322 15471897 15459811 15446695 15433339 15420568 15408209 15396125 
2547.698 15383457 15369554 15354107 15337597 15320880 15304955 15290814 
2551.073 15279007 15269467 15262019 15256185 15251243 15247056 15243315 
2554.448 15239677 15236109 15232197 15227804 15222589 15216342 15208862 
2557.823 15200043 15189886 15178494 15166382 15153893 15141198 15128709 
2561.198 15115981 15102498 15087472 15069737 15048743 15024424 14997293 
2564.574 14968347 14938956 14910493 14884192 14860568 14839927 14822030 
2567.949 14806740 14793850 14783325 14775406 14770675 14769305 14771807 
2571.324 14778285 14788090 14800604 14814968 14830122 14845687 14861699 
2574.699 14878432 14896640 14916734 14938887 14962619 14987347 15012728 
2578.075 15038453 15065003 15093098 15123632 15156844 15192563 15229794 
2581.450 15267235 15303959 15339552 15374292 15408998 15444738 15481992 
2584.825 15520828 15560561 15600813 15641067 15681498 15722619 15765086 
2588.200 15809240 15854944 15901238 15947055 15991502 16034096 16074942 
2591.576 16114863 16154891 16195748 16237848 16281154 16325153 16369157 
2594.951 16412891 16455423 16496481 16535718 16572755 16607352 16639920 
2598.326 16670803 16700827 16731130 16762570 16796012 16832244 16871546 
2601.701 16914262 16960668 17010768 17064282 17120976 17179952 17240556 
2605.077 17302376 17365136 17429112 17494958 17563232 17634450 17708680 
2608.452 17785374 17863636 17942638 18021482 18099612 18176790 18252704 
2611.827 18327388 18400492 18471950 18541310 18608538 18673424 18736034 
2615.202 18796304 18854158 18909528 18961860 19011014 19056640 19098430 
2618.578 19136516 19170832 19201930 19230400 19257102 19282734 19308194 
2621.953 19333726 19359534 19385380 19410846 19435414 19458976 19481432 
2625.328 19502986 19524022 19544680 19565058 19585024 19604610 19623848 
2628.703 19642916 19662536 19683096 19705146 19729036 19754626 19781362 
2632.079 19808828 19836192 19863246 19889296 19914756 19939316 19963218 
2635.454 19986532 20009432 20031812 20053602 20075048 20095834 20116276 
2638.829 20136612 20157540 20179234 20202838 20228524 20256852 20287682 
2642.204 20320422 20354346 20389002 20424078 20459190 20495312 20532968 
2645.580 20572814 20615340 20660684 20708014 20756636 20805504 20854032 
2648.955 20901730 20948948 20996346 21044684 21095152 21148304 21204454 
2652.330 21263466 21324574 21387012 21450260 21513796 21577758 21642254 
2655.705 21708222 21776012 21845866 21918032 21992164 22068084 22145344 
2659.081 22223766 22302936 22382716 22462438 22541582 22619660 22696388 
2662.456 22771978 22846850 22921976 22998166 23076288 23156560 23238800 
2665.831 23322702 23407772 23493280 23579118 23664730 23750534 23836458 
2669.206 23923030 24010672 24100288 24192310 24287290 24385238 24485698 
2672.582 24587932 24691068 24794298 24897624 25001078 25105400 25210906 
2675.957 25317842 25425544 25533412 25640462 25746028 25850176 25953684 
2679.332 26057462 26162988 26271250 26382778 26498104 26617300 26740442 
2682.707 26867564 26998638 27133598 27271842 27413238 27557080 27703512 
2686.083 27852680 28005258 28161846 28322806 28488248 28657788 28830866 
2689.458 29006952 29185766 29367492 29552484 29740714 29932328 30127184 
2692.833 30324794 30524878 30727542 30933074 31141730 31353798 31568642 
2696.208 31785912 32004788 32224596 32445048 32666720 32890186 33116232 
2699.583 33345334 33577416 33811884 34048012 34285172 34522136 34758544 
2702.959 34993652 35226400 35455788 35680660 35899744 36112528 36318900 
2706.334 36518624 36712136 36899168 37079060 37250940 37413644 37566116 
2709.709 37707612 37838492 37958856 38069880 38172904 38269044 38359156 
2713.084 38444040 38523540 38597156 38664412 38723924 38774424 38814744 
2716.460 38844024 38861776 38868048 38863264 38848224 38824096 38792248 
2719.835 38754280 38711608 38665896 38618992 38572460 38528356 38489072 
2723.210 38457000 38434660 38424020 38426516 38442120 38470284 38509712 
2726.585 38558628 38616060 38681360 38754824 38837140 38928856 39030344 
2729.961 39140448 39258668 39383232 39513020 39647536 39786444 39929504 
2733.336 40076356 40225944 40376640 40526444 40673676 40817136 40956168 
2736.711 41090872 41221356 41347360 41468920 41585476 41696960 41803728 
2740.086 41906440 42006692 42106052 42205912 42307728 42412420 42520824 
2743.462 42633464 42751324 42874808 43004256 43139524 43280108 43425128 
2746.837 43573824 43725280 43878332 44031512 44183056 44330216 44470340 
2750.212 44600740 44719316 44824888 44917472 44997472 45065688 45122588 
2753.587 45168252 45202704 45225464 45236568 45236456 45225244 45203108 
2756.963 45169724 45124280 45065760 44992620 44903912 44799096 44677892 
2760.338 44540340 44386728 44217100 44032208 43832736 43620128 43396932 
2763.713 43165140 42927844 42687672 42446980 42208028 41972928 41743720 
2767.088 41522836 41312704 41115384 40932648 40765928 40615532 40481960 
2770.464 40365224 40265276 40182000 40115200 40064108 40027264 40003176 
2773.839 39989408 39983668 39983780 39987592 39993296 39999036 40003104 
2777.214 40003504 39998308 39985592 39963000 39929108 39882428 39821960 
2780.589 39747808 39660748 39562524 39455432 39342856 39227080 39110788 
2783.965 38995868 38883196 38773264 38666184 38561416 38458552 38356404 
2787.340 38253516 38147688 38036896 37919260 37793124 37658432 37515680 
2790.715 37366624 37213540 37058852 36905048 36754108 36607908 36467776 
2794.090 36334788 36209724 36093232 35985876 35888300 35801256 35726020 
2797.466 35663720 35615772 35583008 35565676 35563016 35574164 35597504 
2800.841 35631672 35676020 35729872 35793228 35865736 35946712 36035012 
2804.216 36128840 36226616 36326752 36427956 36529800 36631484 36732328 
2807.591 36831176 36926652 37017176 37101184 37177520 37244840 37302244 
2810.967 37349076 37383888 37405232 37412092 37403316 37378688 37338856 
2814.342 37284844 37219028 37143556 37060980 36974204 36885784 36798576 
2817.717 36715236 36638944 36572652 36519168 36481184 36461436 36461508 
2821.092 36483020 36526088 36590428 36674604 36776464 36893360 37022156 
2824.468 37159684 37302784 37447848 37591260 37729296 37858380 37975384 
2827.843 38077840 38164148 38233652 38286412 38323252 38344640 38351880 
2831.218 38346124 38328176 38299764 38262276 38217336 38166684 38112168 
2834.593 38055088 37996788 37938860 37881984 37827032 37774188 37723224 
2837.969 37673140 37623524 37573556 37523268 37473636 37425960 37382404 
2841.344 37345180 37316180 37297188 37289752 37295348 37315748 37352724 
2844.719 37408700 37485808 37586024 37710140 37857656 38026300 38211400 
2848.094 38406352 38602736 38790472 38959844 39101976 39209596 39278836 
2851.469 39309008 39302844 39265052 39202092 39121812 39031068 38936940 
2854.845 38845580 38762180 38690924 38634640 38594840 38571156 38561636 
2858.220 38563300 38571880 38583072 38592452 38596072 38590856 38574668 
2861.595 38545880 38503952 38448200 38378772 38295528 38198412 38087892 
2864.970 37964896 37831408 37690952 37548012 37408156 37277804 37161888 
2868.346 37065452 36991520 36941448 36915328 36911828 36928640 36962696 
2871.721 37010032 37066716 37128504 37191380 37252132 37308200 37358068 
2875.096 37400896 37436400 37464248 37484508 37497152 37502788 37502028 
2878.471 37496500 37487328 37476236 37464140 37451640 37438892 37426216 
2881.847 37413792 37402268 37392664 37385804 37382624 37383744 37389268 
2885.222 37399452 37414292 37433908 37458324 37487216 37519836 37555056 
2888.597 37591476 37627824 37662768 37695796 37726768 37755968 37783368 
2891.972 37809356 37833864 37857040 37879344 37901256 37923708 37947392 
2895.348 37972924 38000660 38030604 38062828 38097444 38134776 38175184 
2898.723 38218888 38265928 38315508 38366792 38418588 38469484 38518144 
2902.098 38563080 38603096 38636596 38662272 38678972 38686684 38685636 
2905.473 38677268 38663288 38645432 38624752 38601864 38577348 38551496 
2908.849 38525572 38501528 38481540 38467968 38462320 38465036 38475352 
2912.224 38491176 38510112 38528900 38544544 38553596 38551748 38535528 
2915.599 38500768 38444292 38364836 38263216 38142264 38006264 37860332 
2918.974 37708804 37554696 37399704 37243864 37086856 36928348 36768280 
2922.350 36607548 36447452 36289468 36135108 35985876 35842744 35706992 
2925.725 35579808 35462120 35354992 35258852 35173368 35097600 35029676 
2929.100 34967148 34907216 34847252 34785504 34721148 34655216 34589800 
2932.475 34528844 34476432 34437012 34414592 34411616 34429768 34469040 
2935.851 34528664 34606740 34700652 34807548 34923840 35046160 35171712 
2939.226 35298636 35426164 35554852 35685556 35819532 35956360 36094492 
2942.601 36230396 36359212 36474768 36571212 36642552 36683616 36690072 
2945.976 36658884 36588588 36479704 36335072 36160564 35963232 35752324 
2949.352 35537016 35324872 35122208 34933104 34759192 34601032 34458748 
2952.727 34332216 34221316 34126072 34045936 33980004 33926656 33884060 
2956.102 33850348 33824060 33804112 33790140 33781688 33778968 33781440 
2959.477 33788960 33801172 33817900 33839104 33864932 33895236 33930272 
2962.853 33969540 34012468 34058264 34105860 34154460 34203104 34251364 
2966.228 34298584 34344660 34389272 34432060 34472628 34510476 34544704 
2969.603 34575304 34602324 34625936 34647324 34667708 34688092 34708980 
2972.978 34730548 34752480 34774016 34795052 34815372 34835656 34856660 
2976.354 34879100 34902724 34926064 34946604 34960288 34962836 34950052 
2979.729 34918632 34867428 34796780 34709052 34608176 34498604 34385184 
2983.104 34271724 34160948 34053712 33949724 33847056 33743300 33635984 
2986.479 33523008 33403474 33277218 33144950 33007898 32866814 32721772 
2989.854 32571566 32413520 32244150 32059972 31858108 31637636 31399816 
2993.230 31148636 30890024 30630428 30376104 30131270 29897398 29673054 
2996.605 29454642 29237508 29017190 28790750 28557530 28318810 28077642 
2999.980 27837350 27601108 27371066 27148162 26932250 26722646 26518566 
3003.355 26319652 26125758 25937222 25754290 25577620 25407522 25244230 
3006.731 25088128 24939346 24797946 24663746 24536076 24414154 24296786 
3010.106 24182746 24071046 23960880 23851824 23743814 23637158 23532140 
3013.481 23429106 23328506 23230586 23135696 23044214 22956418 22872380 
3016.856 22792406 22716674 22644966 22576972 22512340 22450576 22390948 
3020.232 22333284 22277022 22222164 22168634 22116648 22066166 22017504 
3023.607 21970970 21927336 21887646 21853426 21826772 21809386 21802698 
3026.982 21807088 21821510 21843566 21869454 21895102 21915908 21927720 
3030.357 21927824 21914444 21886914 21845796 21792070 21727692 21654268 
3033.733 21573720 21488066 21399054 21308600 21218614 21130528 21045658 
3037.108 20964806 20888242 20815864 20747530 20682610 20620550 20560828 
3040.483 20503024 20446756 20391606 20337332 20284070 20232100 20181906 
3043.858 20134424 20090316 20050098 20014186 19982230 19953678 19927834 
3047.234 19904002 19881628 19860330 19840008 19820482 19801856 19784066 
3050.609 19767180 19751402 19736942 19724044 19712568 19702268 19692456 
3053.984 19682160 19670684 19657336 19642360 19626032 19609462 19593830 
3057.359 19580172 19569254 19561558 19557538 19557816 19562702 19572684 
3060.735 19587798 19607452 19630712 19655742 19680738 19704418 19725846 
3064.110 19745264 19763712 19782784 19804112 19828978 19857836 19890162 
3067.485 19924850 19960200 19993888 20024176 20049264 20068246 20080460 
3070.860 20086430 20086776 20082820 20075844 20067170 20057870 20048744 
3074.236 20040554 20033788 20028828 20025878 20024872 20025704 20027820 
3077.611 20030666 20033164 20034692 20034588 20032644 20028828 20023552 
3080.986 20017446 20011374 20005996 20002318 20000618 20001208 20003810 
3084.361 20008042 20013456 20019806 20026954 20035350 20045274 20057176 
3087.737 20071126 20086950 20104198 20122382 20141402 20161186 20182322 
3091.112 20205406 20230468 20257582 20286154 20315284 20344136 20371952 
3094.487 20398656 20424564 20450402 20477286 20506012 20537310 20571808 
3097.862 20609432 20649738 20692064 20735156 20777836 20818922 20857510 
3101.238 20893596 20927598 20960666 20993632 21027538 21062666 21098944 
3104.613 21135990 21173386 21211238 21249930 21290050 21332090 21376430 
3107.988 21422342 21468954 21515154 21559964 21603006 21644378 21684710 
3111.363 21724766 21765560 21807504 21850674 21894964 21939814 21984460 
3114.739 22028136 22070036 22109850 22147820 22184328 22220664 22258048 
3118.114 22297916 22340714 22386380 22433862 22481596 22528112 22571946 
3121.489 22612294 22649296 22683332 22715172 22745652 22775156 22804594 
3124.864 22834032 22864102 22895432 22928440 22963684 23001554 23041976 
3128.240 23085060 23130418 23177528 23225588 23273444 23319974 23363924 
3131.615 23404730 23442428 23478066 23513112 23549876 23590208 23635270 
3134.990 23685026 23738564 23794212 23850110 23904406 23956362 24005802 
3138.365 24053148 24099624 24146350 24194588 24244826 24297278 24351524 
3141.740 24406444 24460738 24513148 24562862 24609602 24653892 24696748 
3145.116 24739366 24782828 24827732 24873904 24921484 24970228 25020382 
3148.491 25072332 25126746 25183798 25243002 25303442 25363400 25421292 
3151.866 25476348 25528280 25578360 25627984 25678918 25732598 25789344 
3155.241 25848982 25910598 25973278 26036316 26099226 26162426 26225632 
3158.617 26289028 26352466 26415700 26478312 26540368 26601730 26662994 
3161.992 26724584 26786746 26849624 26913354 26977412 27041728 27106298 
3165.367 27170702 27235046 27299434 27363690 27427320 27490254 27552030 
3168.742 27612618 27672012 27730638 27788882 27847488 27906772 27966912 
3172.118 28028016 28089908 28152370 28215162 28278246 28341090 28403874 
3175.493 28466138 28527734 28588210 28647454 28705434 28762426 28818474 
3178.868 28874066 28929560 28985486 29042306 29100654 29161350 29224998 
3182.243 29292128 29362672 29435848 29510636 29585504 29659184 29730850 
3185.619 29800258 29868364 29936160 30004926 30075514 30148422 30223688 
3188.994 30301204 30380404 30461288 30543434 30626658 30710292 30793800 
3192.369 30876398 30957874 31038474 31119232 31200862 31284322 31369578 
3195.744 31456202 31542846 31628116 31711162 31792294 31872552 31953964 
3199.120 32038532 32127752 32221988 32320458 32421410 32522854 32622714 
3202.495 32720092 32814566 32906734 32997276 33087306 33177350 33267666 
3205.870 33358000 33447958 33537004 33625284 33713364 33802212 33893412 
3209.245 33988068 34086756 34189052 34293416 34397880 34500072 34598880 
3212.621 34693940 34786224 34877628 34970452 35066384 35166004 35268952 
3215.996 35373864 35479052 35583192 35685048 35784628 35882112 35978316 
3219.371 36073968 36170004 36267136 36365660 36465756 36567068 36668940 
3222.746 36770912 36872256 36973084 37073752 37174772 37277116 37381180 
3226.122 37486676 37593244 37699808 37805668 37910148 38013496 38115892 
3229.497 38217952 38319924 38421956 38524228 38626636 38729612 38833552 
3232.872 38938604 39044628 39150636 39255364 39357548 39456340 39551816 
3236.247 39645248 39738336 39832784 39929760 40029192 40130464 40232852 
3239.623 40335696 40439152 40543904 40650864 40760212 40871812 40984352 
3242.998 41097248 41209772 41322652 41437276 41555324 41678140 41805992 
3246.373 41937492 42070860 42203716 42334388 42462548 42588688 42714180 
3249.748 42840356 42968332 43098356 43230692 43365224 43502252 43642000 
3253.124 43784904 43930904 44079588 44229832 44380564 44530836 44679872 
3256.499 44827344 44973512 45118400 45262048 45404572 45545960 45686444 
3259.874 45826524 45966468 46106864 46247672 46388932 46530460 46672144 
3263.249 46813836 46955760 47098176 47240784 47383028 47524068 47662640 
3266.625 47797960 47929624 48057808 48183108 48306296 48427896 48547852 
3270.000 48665924 48781648 48894808 49005736 49114840 49223332 49332084 
3273.375 49442008 49553336 49666252 49780352 49895404 50010904 50126652 
3276.750 50242508 50358320 50473980 50589368 50704564 50819424 50933860 
3280.125 51048180 51162604 51277396 51393408 51511392 51632096 51756268 
3283.501 51883984 52014580 52147452 52281452 52415376 52548408 52680364 
3286.876 52811380 52941728 53072340 53203816 53336868 53472320 53610588 
3290.251 53752428 53897840 54046752 54199168 54354636 54512836 54673756 
3293.626 54837672 55004244 55173472 55344236 55515444 55685440 55852788 
3297.002 56017188 56178668 56338660 56498676 56660636 56825756 56994416 
3300.377 57166728 57342288 57521092 57703076 57888808 58078708 58273732 
3303.752 58474192 58680468 58892728 59110588 59333620 59561052 59791916 
3307.127 60025488 60261316 60499560 60741212 60987500 61239952 61499688 
3310.503 61766572 62040156 62319156 62602424 62889552 63181020 63477924 
3313.878 63781640 64093016 64412340 64739020 65071940 65410128 65753400 
3317.253 66101612 66455164 66814056 67177888 67545600 67915744 68287096 
3320.628 68658528 69029632 69399832 69769080 70137072 70503512 70868304 
3324.004 71232008 71595144 71958240 72321448 72683928 73044016 73399656 
3327.379 73748672 74089912 74423208 74748448 75065624 75374008 75671848 
3330.754 75956544 76225352 76475880 76707176 76918544 77109984 77281168 
3334.129 77431352 77559200 77664072 77746056 77806928 77849296 77875824 
3337.505 77888584 77888432 77874152 77844224 77796312 77728896 77641008 
3340.880 77532464 77402640 77251168 77077224 76880216 76659656 76416648 
3344.255 76152024 75867352 75563904 75241760 74900672 74540144 74160072 
3347.630 73761160 73345200 72914232 72470544 72016160 71552520 71080984 
3351.006 70602672 70119240 69631832 69141624 68648832 68152912 67652800 
3354.381 67147688 66637568 66123448 65607704 65093188 64582744 64078428 
3357.756 63581176 63091816 62610656 62138208 61675480 61223700 60783592 
3361.131 60355620 59939056 59532436 59134128 58742676 58356804 57976004 
3364.507 57599968 57228984 56863184 56503468 56150576 55805956 55470944 
3367.882 55147064 54834552 54533572 54242712 53960264 53684144 53412628 
3371.257 53144088 52878068 52614192 52352648 52093880 51838660 51587912 
3374.632 51342540 51103188 50869892 50642084 50418156 50196128 49974472 
3378.008 49752000 49529048 49306620 49086640 48870856 48660212 48454452 
3381.383 48252236 48051740 47850892 47648288 47443712 47237716 47031852 
3384.758 46828008 46628204 46433620 46244832 46061508 45882716 45706872 
3388.133 45531980 45356756 45179944 45001184 44820956 44639772 44459072 
3391.509 44279836 44103204 43929876 43760240 43594300 43431240 43269928 
3394.884 43108456 42944848 42777904 42607148 42433572 42260064 42090132 
3398.259 41927200 41773596 41629924 41494288 41363832 41234364 41102200 
3401.634 40965452 40823144 40675860 40524840 40371512 40217040 40061636 
3405.010 39905568 39748900 39591888 39435040 39278760 39123372 38969228 
3408.385 38815904 38663400 38511340 38360096 38209916 38061240 37914196 
3411.760 37768876 37624392 37480208 37335248 37188672 37040196 36890188 
3415.135 36739324 36588872 36440424 36295232 36153688 36015572 35879880 
3418.510 35744516 35607932 35469020 35327496 35184292 35040952 34899600 
3421.886 34761308 34626944 34496164 34368296 34242432 34118256 33995516 
3425.261 33874568 33755472 33638028 33521612 33405408 33288628 33170804 
3428.636 33052016 32932896 32814350 32697476 32582852 32470968 32362186 
3432.011 32256428 32153550 32053408 31955570 31859248 31763666 31667714 
3435.387 31571068 31473090 31374100 31274424 31174696 31075204 30975842 
3438.762 30876398 30776336 30674696 30570414 30462460 30349986 30232426 
3442.137 30109678 29982240 29851220 29717154 29581142 29442656 29301272 
3445.512 29156214 29007200 28855368 28702918 28553636 28410948 28277290 
3448.888 28153078 28036606 27924404 27812480 27697438 27577416 27452096 
3452.263 27322614 27190560 27057560 26924354 26791364 26658872 26526950 
3455.638 26396194 26267202 26140922 26017214 25896002 25776266 25657546 
3459.013 25539068 25420696 25302144 25183414 25064504 24945242 24825802 
3462.389 24706746 24589054 24474094 24362424 24254006 24147820 24042152 
3465.764 23935356 23826342 23715328 23603258 23492230 23383646 23278302 
3469.139 23176026 23075486 22975214 22873812 22770512 22665214 22558020 
3472.514 22449284 22339250 22228196 22116996 22006140 21897088 21790818 
3475.890 21687950 21588588 21492036 21397488 21304458 21212596 21122458 
3479.265 21034044 20947384 20862376 20777698 20692794 20607488 20522478 
3482.640 20439428 20359276 20282682 20208286 20133974 20056552 19973002 
3486.015 19881732 19782750 19677722 19568942 19458906 19349350 19241136 
3489.391 19134542 19029878 18927180 18826926 18729496 18634720 18541378 
3492.766 18448164 18353310 18255606 18154472 18050458 17944192 17836948 
3496.141 17729388 17622234 17515934 17411246 17308858 17210012 17114910 
3499.516 17023344 16934140 16845162 16754029 16658889 16558815 16454322 
3502.892 16346863 16239084 16133362 16031964 15935883 15845666 15760070 
3506.267 15677307 15595008 15510629 15422354 15329530 15233124 15135502 
3509.642 15039963 14949622 14866088 14789324 14717578 14648106 14578680 
3513.017 14507961 14435988 14364061 14294097 14226748 14162249 14098889 
3516.393 14034923 13968606 13899013 13826320 13751792 13676831 13602295 
3519.768 13528762 13455447 13381870 13307385 13232262 13157153 13083183 
3523.143 13011650 12943270 12877904 12814766 12752182 12688209 12621244 
3526.518 12550026 12474660 12395727 12315239 12235653 12159421 12088210 
3529.894 12022564 11962343 11906046 11852141 11799127 11745745 11691349 
3533.269 11635530 11577914 11517755 11454780 11388753 11320322 11250438 
3536.644 11181145 11113935 11050339 10991069 10935917 10884476 10835929 
3540.019 10789527 10744861 10700813 10656122 10609129 10558337 10502018 
3543.395 10440378 10373929 10304877 10235665 10167958 10102974 10041086 
3546.770 9981512 9924183 9868930 9816226 9765865 9717307 9669195 9619394 
3550.627 9565840 9507380 9444222 9378602 9313432 9251723 9195371 9145083 
3554.485 9099504 9056636 9014484 8971624 8926773 8879357 8828971 8775041 
3558.342 8717567 8656315 8592739 8528768 8467070 8410312 8360588 8319077 
3562.199 8285472 8258590 8235762 8214150 8189232 8155536 8108170 8042177 
3566.057 7955609 7850568 7733613 7615340 7506471 7415223 7345258 7294476 
3569.914 7257548 7227023 7196872 7162546 7122664 7077567 7028971 6978563 
3573.772 6927185 6874870 6821686 6767297 6712444 6658069 6605382 6554922 
3577.629 6506385 6459099 6412119 6365246 6318411 6272658 6229261 6189264 
3581.487 6153807 6123360 6097755 6076787 6059348 6043288 6025213 6000587 
3585.344 5963668 5909587 5835667 5743325 5638684 5532021 5434846 5356209 
3589.201 5301064 5268698 5254981 5252398 5253673 5252566 5244450 5226676 
3593.059 5198541 5160416 5114147 5061848 5006473 4950534 4896849 4847157 
3596.916 4802763 4762897 4726686 4691415 4655344 4616094 4573734 4528900 
3600.774 4484138 4442024 4405639 4376586 4356003 4343218 4336592 4334049 
3604.631 4332576 4328627 4318520 4298341 4264946 4217133 4156211 4086836 
3608.489 4015733 3950325 3895827 3853737 3821446 3793134 3762585 3724819 
3612.346 3678469 3626711 3575527 3532032 3501434 3485769 3482228 3485201 
3616.203 3486938 3480625 3460218 3422579 3367913 3299531 3223884 3148416 
3620.061 3080836 3026847 2989079 2967260 2958853 2959987 2967293 2978470 
3623.918 2992949 3011332 3033787 3058879 3080970 3092383 3081437 3037591 
3627.776 2954783 2837804 2702853 2574143 2474761 2416816 2398591 2408353 
3631.633 2430776 2452668 2464531 2463031 2449869 2429677 2407720 2387463 
3635.490 2369805 2353648 2336824 2317903 2296751 2274867 2253917 2235066 
3639.348 2218380 2202761 2186776 2169659 2151744 2135096 2122975 2118147 
3643.205 2122742 2136993 2158837 2184811 2209555 2228138 2234899 2225507 
3647.063 2196800 2147582 2078627 1993172 1896585 1796593 1702446 1624515 
3650.920 1570972 1546963 1552450 1581913 1626311 1673606 1711494 1729390 
3654.778 1720109 1682754 1623583 1555044 1490870 1442830 1415637 1407625 
3658.635 1413110 1424645 1436580 1444924 1448614 1448049 1444392 1438807 
3662.492 1432192 1425244 1419460 1416335 1418662 1428236 1446786 1473682 
3666.350 1506830 1541543 1571371 1589029 1587699 1563124 1515541 1453036 
3670.207 1390107 1342643 1323466 1336428 1376379 1429399 1477405 1502208 
3674.065 1488111 1429200 1332439 1219785 1119383 1052518 1026412 1033420 
3677.922 1058762 1086929 1107391 1116427 1115962 1111610 1109351 1113072 
3681.780 1123436 1138651 1156558 1176492 1199118 1225932 1257599 1292126 
3685.637 1324928 1348692 1355605 1339918 1300601 1241981 1173967 1107292 
3689.494 1051588 1010968 985562 973275 971515 978190 992503 1012895 1036940 
3693.834 1061054 1081781 1096031 1102641 1102741 1099851 1098123 1101013 
3697.691 1109883 1123403 1138053 1149083 1151873 1144000 1125097 1097924 
3701.549 1067132 1038867 1018009 1008145 1010337 1023755 1045875 1073709 
3705.406 1104568 1136027 1166159 1194134 1219220 1240685 1257133 1266604 
3709.264 1265973 1251950 1222310 1176492 1117922 1053348 992071 943156 
3713.121 913869 906764 920145 948967 986758 1026644 1063113 1092809 1114334 
3717.461 1128253 1136525 1141408 1144565 1146458 1147289 1146491 1144133 
3721.318 1140844 1138053 1137057 1138419 1142007 1145761 1147289 1144465 
3725.176 1136525 1124831 1113138 1106993 1111577 1130346 1163335 1206926 
3729.033 1254874 1299570 1333503 1352149 1354143 1343108 1325227 1308411 
3732.890 1297643 1293023 1289667 1279963 1257300 1219452 1170744 1120114 
3736.748 1078857 1054776 1050491 1064110 1091546 1129250 1174797 1227759 
3740.605 1286909 1348293 1404135 1441766 1446320 1405631 1316919 1194499 
3744.463 1068494 976364 942459 969423 1040893 1132838 1221213 1286643 
3748.320 1318082 1312199 1273849 1212973 1141043 1067830 999610 940533 
3752.177 895641 870043 867885 890163 933062 988917 1048167 1102276 1144565 
3756.517 1172505 1186492 1188984 1182970 1170511 1152903 1131376 1109484 
3760.375 1092476 1085966 1094038 1117058 1150611 1187057 1217791 1236299 
3764.232 1239954 1231780 1218256 1207823 1205995 1213903 1227560 1240020 
3768.089 1245171 1238392 1219785 1193303 1165495 1142937 1130047 1128320 
3771.947 1136392 1151342 1169947 1190114 1209783 1228324 1245669 1261819 
3775.804 1276341 1288437 1296347 1297610 1289833 1271921 1244971 1212906 
3779.662 1181741 1158319 1147222 1149880 1163800 1183801 1203902 1219020 
3783.519 1226164 1225201 1218389 1208886 1199383 1191277 1184698 1178983 
3787.376 1173402 1168119 1163966 1161607 1161707 1164398 1169714 1178020 
3791.234 1189914 1206560 1228457 1254940 1283153 1308510 1325792 1330977 
3795.091 1322701 1304256 1282688 1267867 1267701 1285746 1319611 1361023 
3798.949 1397952 1417033 1408157 1366807 1298607 1217857 1145993 1101910 
3802.806 1094868 1122506 1172870 1229852 1275643 1296812 1286344 1245703 
3806.664 1186193 1125396 1081349 1064475 1076067 1108986 1153634 1200945 
3810.521 1245902 1287706 1328883 1372324 1418994 1465503 1504868 1527844 
3814.378 1526281 1496755 1444725 1384124 1334002 1309707 1317816 1353744 
3818.236 1404468 1452038 1479599 1473947 1429964 1353445 1262052 1179083 
3822.093 1124566 1108554 1128585 1173468 1228756 1280561 1319843 1342277 
3825.951 1349722 1347961 1345335 1348493 1360292 1379304 1401576 1421055 
3829.808 1433255 1435981 1430297 1419992 1410351 1406562 1412445 1428601 
3833.666 1453867 1484021 1513845 1537021 1547695 1541510 1517137 1476707 
3837.523 1426175 1374352 1330246 1299703 1285214 1284749 1294087 1307380 
3841.380 1320109 1328850 1332373 1331210 1327188 1323233 1322535 1328019 
3845.238 1341779 1364779 1396656 1436048 1481262 1530737 1583609 1639980 
3849.095 1699618 1760795 1819684 1867833 1893357 1882176 1821415 1705639 
3852.953 1544370 1364347 1200580 1082578 1023323 1017611 1050027 1103206 
3856.810 1163800 1222974 1276308 1322801 1362885 1397354 1426773 1451640 
3860.667 1472052 1488310 1500413 1507661 1508592 1501177 1484753 1461081 
3864.525 1435948 1418030 1415371 1432956 1469226 1516140 1560165 1587633 
3868.382 1586868 1553680 1493563 1422518 1360691 1323765 1317550 1336827 
3872.240 1370363 1404468 1429333 1441167 1442464 1440636 1444126 1459485 
3876.097 1488344 1527611 1570773 1610047 1638350 1650191 1643805 1621122 
3879.955 1588797 1555808 1532133 1524884 1536157 1562725 1596113 1625778 
3883.812 1640645 1632829 1600403 1549989 1495226 1452005 1433920 1445855 
3887.669 1483855 1537553 1593885 1639947 1665990 1667586 1646266 1609682 
3891.527 1568179 1532266 1509822 1503272 1511784 1532133 1561063 1595415 
3895.384 1632729 1671378 1709232 1743928 1772872 1793200 1802782 1801484 
3899.242 1790904 1774136 1754873 1736044 1718379 1700949 1681224 1656643 
3903.099 1626610 1592621 1558735 1529872 1510753 1503871 1508858 1523255 
3906.957 1543538 1565751 1587433 1606822 1623683 1638317 1651388 1663661 
3910.814 1676267 1689938 1705606 1724334 1745957 1769245 1791969 1810568 
3914.671 1821548 1822479 1812797 1794531 1771541 1748685 1730056 1717548 
3918.529 1711094 1708899 1709232 1710728 1713623 1718246 1725565 1734547 
3922.386 1743495 1749084 1748685 1740701 1726064 1708300 1692367 1683286 
3926.244 1683685 1694329 1712758 1735112 1757302 1775167 1786912 1790804 
3930.101 1787444 1776930 1760728 1740402 1718346 1697356 1680858 1671311 
3933.958 1670081 1676467 1688309 1702179 1714853 1724201 1729856 1733083 
3937.816 1736443 1742198 1751713 1764554 1778328 1790006 1796227 1794996 
3941.673 1786279 1772173 1756304 1742664 1734979 1734547 1741233 1752977 
3945.531 1766683 1779326 1788009 1791802 1790272 1784949 1777197 1769179 
3949.388 1762492 1758300 1756869 1758200 1761859 1767282 1773803 1780790 
3953.246 1787544 1793366 1797758 1800619 1802283 1803381 1804645 1806775 
3957.103 1810002 1814028 1818054 1820849 1821614 1819651 1814827 1807606 
3960.960 1798823 1789673 1781289 1774934 1771607 1772040 1776764 1785614 
3964.818 1797957 1812231 1826705 1839649 1849132 1854323 1855222 1852759 
3968.675 1848300 1843509 1839615 1837552 1837020 1837685 1838617 1838617 
3972.533 1837087 1833260 1827171 1819385 1810634 1802283 1795495 1791802 
3976.390 1791337 1794298 1799987 1807074 1813862 1819318 1822379 1823178 
3980.248 1822379 1821115 1820616 1822047 1825840 1831630 1839016 1846470 
3984.105 1852926 1857651 1860313 1860845 1859880 1858216 1856553 1855754 
3987.962 1855954 1857484 1860313 1864373 1869264 1874888 1880978 1886935 
3991.820 1892592 1897351 1901012 1903474 1905138 1905937 1906436 1906802 
3995.677 1907135 1907435 1907401 1907202 1906969 1907068 1907934 1909797 
3999.535 1912793 1916520 1920381 
##END=
