
##TITLE=mdmaHCL00405_7
##JCAMP-DX=5.01  $$ Nicolet v. 1
##DATATYPE=INFRARED SPECTRUM
##ORIGIN=UniL
##OWNER=Nicolet
##LONGDATE=2011/08/23
##TIME=14:17:10
##SPECTROMETER/DATA SYSTEM=Nicolet iS5
##DATA PROCESSING=
Ratio against background
%Transmittance->Absorbance
Truncated
ElementMultiply or ElementDivide
##COMMENTS=
Number of sample scans: 32
Collection length: 51.21 sec
Sample gain: 2.0
Background collected on: Mar Aout 23 14:15:13 2011 (GMT+02:00);
Number of background scans: 32
Background gain: 2.0
Sample spacing:  1.000
Number of scan points: 12415
Resolution points: 8192
Number of FFT points: 65536
Apodization: N-B fort;
Phase correction: Mertz;
Laser frequency: 15798.0 cm-1
Number of rejected sample scans: 0
Number of rejected background scans: 0
Bench serial number: ASB1000141;
##RESOLUTION=4.000
##XUNITS=1/CM
##YUNITS=ABSORBANCE
##FIRSTX=649.893372
##LASTX=4000.122314
##FIRSTY=0.093547
##MAXX=4000.122314
##MINX=649.893372
##MAXY=0.229951
##MINY=-0.000562
##XFACTOR=1.000000
##YFACTOR=1.000000E-009
##NPOINTS=6950
##DELTAX=0.482117
##ZPD=6100
##XYDATA=(X++(Y..Y))
649.893 93546840 93541120 93582464 93660152 93752496 93841240 93919264 
653.268 93998736 94107896 94276816 94520880 94835152 95191032 95552072 
656.643 95888536 96185648 96446424 96683352 96904048 97105792 97275800 
660.018 97399264 97468312 97489256 97479216 97457816 97441016 97434592 
663.393 97434472 97430568 97411368 97362488 97262576 97077544 96757992 
666.767 96249864 95529896 94649296 93743240 92961496 92385072 91994792 
670.142 91710400 91432400 91075096 90585400 89943712 89166328 88293400 
673.517 87373688 86443784 85520584 84605664 83696080 82794624 81914912 
676.892 81074552 80286360 79552088 78860760 78197032 77550448 76922296 
680.267 76326184 75782056 75302760 74891776 74539632 74230816 73950824 
683.642 73694336 73464360 73269568 73115608 72999640 72909608 72829000 
687.016 72743200 72645160 72538432 72432176 72336976 72257304 72190392 
690.391 72127560 72060472 71983936 71899392 71812792 71729768 71653608 
693.766 71583576 71516464 71449776 71384520 71324032 71271400 71226184 
697.141 71181760 71126688 71050896 70948392 70822008 70683296 70547240 
700.516 70425960 70324648 70239112 70159928 70076760 69982848 69877336 
703.890 69764096 69646840 69526544 69399992 69261616 69106888 68935168 
707.265 68750208 68557448 68360816 68160008 67950808 67728264 67492528 
710.640 67251272 67021788 66825264 66679364 66592024 66554948 66543936 
714.015 66520884 66446624 66285140 66012272 65620312 65117320 64525268 
717.390 63874864 63205464 62561476 61987452 61529884 61229536 61114220 
720.765 61192988 61446096 61823452 62239188 62587768 62760748 62660068 
724.139 62228368 61459644 60405648 59159872 57840160 56563700 55411836 
727.514 54428808 53617824 52954232 52400836 51922892 51497068 51110308 
730.889 50755844 50427944 50118732 49819556 49523848 49230720 48945540 
734.264 48676556 48431300 48212100 48014620 47829844 47648512 47464596 
737.639 47276392 47086728 46898688 46713500 46530348 46346572 46161104 
741.013 45975676 45796004 45628912 45479472 45348732 45233112 45126928 
744.388 45023824 44920192 44815736 44711348 44607204 44502460 44393668 
747.763 44278148 44155916 44030452 43907768 43794472 43693476 43603056 
751.138 43517308 43429228 43333920 43231752 43127228 43026608 42934644 
754.513 42852428 42776808 42703212 42628860 42554812 42486552 42431200 
757.888 42394664 42379796 42385308 42408072 42445372 42496452 42562668 
761.262 42645524 42744520 42856156 42974952 43097368 43224724 43367092 
764.637 43541992 43775156 44095800 44531608 45107040 45835840 46715344 
768.012 47718252 48788208 49843152 50776776 51486884 51898548 51986416 
771.387 51791880 51416940 51005548 50688144 50552144 50606380 50778564 
774.762 50930956 50901520 50563832 49853372 48793584 47478344 46051672 
778.136 44663052 43427652 42420784 41665448 41145472 40820816 40646384 
781.511 40582060 40596324 40667748 40782012 40928316 41100380 41294884 
784.886 41512008 41754404 42026108 42330520 42670968 43049624 43469768 
788.261 43935816 44454040 45031616 45674920 46390112 47182600 48058996 
791.636 49028512 50104044 51300660 52633904 54114828 55746540 57519580 
795.010 59411644 61387128 63396180 65383820 67290696 69060584 70654640 
798.385 72057072 73286008 74391080 75452256 76561632 77796544 79204576 
801.760 80777056 82443352 84062648 85448416 86403560 86740936 86341504 
805.135 85177776 83328344 80960312 78296856 75576088 72979104 70609920 
808.510 68478688 66519916 64623072 62677332 60614600 58421008 56140732 
811.885 53850576 51641912 49591740 47746916 46127312 44727652 43529208 
815.259 42507672 41639952 40906724 40290360 39775840 39350220 39002648 
818.634 38725516 38513800 38363644 38270704 38229708 38234160 38278704 
822.009 38360820 38482192 38647424 38863372 39136244 39469080 39861948 
825.384 40312068 40814408 41360920 41941140 42540156 43137732 43711984 
828.759 44242816 44717408 45137184 45520092 45902532 46331640 46862296 
832.133 47549500 48434932 49541712 50861252 52348164 53909016 55405140 
835.508 56676492 57545228 57859088 57527712 56535812 54956068 52927768 
838.883 50639332 48279192 46006212 43941976 42151576 40656468 39445236 
842.258 38488964 37751632 37195240 36786384 36493220 36286476 36143028 
845.633 36044484 35979252 35942432 35932640 35949560 35991780 36056400 
849.008 36139932 36240264 36357664 36494264 36652824 36834640 37039004 
852.382 37263360 37504880 37762588 38039064 38339104 38668576 39032084 
855.757 39431380 39866196 40335008 40838212 41378956 41965044 42608204 
859.132 43321872 44123088 45030988 46065012 47246172 48589836 50099692 
862.507 51758280 53520104 55309800 57018520 58524500 59705304 60452376 
865.882 60697164 60417112 59642164 58446140 56941260 55260916 53530036 
869.256 51863076 50345784 49028176 47933172 47060064 46393172 45909564 
872.631 45584600 45396664 45325196 45352964 45465676 45651404 45902936 
876.006 46217380 46596520 47045512 47570052 48173632 48854536 49603956 
879.381 50404648 51232988 52058392 52845736 53562236 54177468 54671128 
882.756 55037264 55286320 55444512 55547524 55636024 55745524 55900268 
886.131 56113396 56387064 56717724 57100100 57531040 58009252 58533976 
889.505 59101668 59704584 60330376 60964776 61593152 62202596 62782876 
892.880 63324980 63818984 64255452 64623764 64915128 65124868 65252536 
896.255 65302096 65280028 65195128 65056816 64875960 64666488 64444124 
899.630 64225264 64024896 63852488 63710808 63595748 63499592 63413584 
903.005 63332228 63254336 63184084 63128868 63096792 63096412 63136184 
906.379 63224128 63369148 63580252 63864620 64227028 64668528 65186740 
909.754 65778224 66440216 67173016 67979792 68865360 69834760 70891864 
913.129 72039192 73280008 74621504 76074992 77657336 79388360 81284296 
916.504 83355640 85601608 88009064 90548664 93174072 95822680 98405064 
919.879 100811000 102917112 104587704 105707768 106204496 106067840 
922.771 105366528 104247304 102931720 101667936 100715312 100309128 
925.664 100606896 101678824 103481168 105866328 108582496 111308264 
928.557 113722592 115514504 116451152 116408472 115361456 113377536 
931.450 110579416 107127408 103186632 98915392 94475040 90013904 85671216 
934.824 81578856 77841456 74539200 71725784 69425616 67643544 66370568 
938.199 65589444 65274908 65390064 65884032 66679560 67672896 68746056 
941.574 69763552 70597640 71148776 71348784 71178168 70662128 69868496 
944.949 68889008 67824128 66773444 65812968 64993740 64341440 63858212 
948.324 63532120 63343884 63275300 63310184 63435480 63640900 63915244 
951.698 64247116 64625808 65042116 65490568 65969148 66477560 67015448 
955.073 67580160 68166600 68768184 69379232 69996360 70619240 71249024 
958.448 71887112 72532960 73183720 73835536 74485152 75131800 75777048 
961.823 76423528 77072912 77724648 78376264 79023688 79664872 80300272 
965.198 80933848 81570816 82215336 82869360 83532000 84201232 84876136 
968.573 85558344 86252504 86964728 87700712 88463816 89255600 90076776 
971.947 90929888 91820048 92754576 93741024 94785200 95888864 97050816 
975.322 98268272 99539896 100866704 102251504 103696336 105199104 106751960 
978.697 108342008 109952248 111566120 113169544 114749656 116293824 
981.590 117787704 119212656 120550176 121784632 122907872 123922232 
984.482 124839432 125677152 126452552 127181288 127875704 128546032 
987.375 129204480 129865464 130543288 131250160 131991160 132763760 
990.268 133558688 134364688 135173184 135980336 136786688 137593504 
993.160 138398528 139194528 139969728 140711312 141410960 142065616 
996.053 142677856 143251200 143786896 144281840 144730384 145127808 
998.946 145475616 145782800 146065168 146341456 146627312 146934896 
1001.839 147271776 147644432 148061392 148534032 149074336 149691536 
1004.731 150387504 151156544 151986976 152867248 153790784 154758560 
1007.624 155777536 156856384 158000608 159208944 160473776 161784032 
1010.517 163129376 164500640 165888368 167280800 168658432 169996864 
1013.409 171271136 172461408 173562064 174582384 175545856 176481264 
1016.302 177415632 178371424 179363216 180403008 181503504 182678752 
1019.195 183943328 185307024 186770960 188327216 189961712 191662928 
1022.087 193425600 195254576 197160688 199155536 201242752 203417152 
1024.980 205663536 207964000 210302560 212665568 215039248 217403392 
1027.873 219722064 221946336 224015232 225861984 227427808 228661136 
1030.766 229515696 229951376 229925584 229398160 228341728 226750112 
1033.659 224648320 222089360 219152080 215925984 212495664 208944912 
1036.552 205348384 201774768 198296176 194980384 191888000 189073056 
1039.446 186573376 184413728 182609376 181165856 180079104 179328112 
1042.339 178869488 178626000 178484096 178313760 177972704 177337520 
1045.232 176331808 174930320 173166688 171115536 168884176 166586640 
1048.125 164325920 162193520 160255152 158549296 157089776 155864992 
1051.018 154843600 153979776 153226304 152540960 151892112 151262656 
1053.911 150644208 150032336 149420448 148797296 148147424 147455568 
1056.804 146708032 145894432 145006656 144035056 142968672 141795952 
1059.697 140508480 139106752 137602352 136018592 134385072 132732424 
1062.590 131088808 129476104 127911240 126409280 124982824 123642000 
1065.483 122391192 121225312 120128088 119072288 118028168 116966400 
1068.376 115866976 114722296 113536856 112324088 111101912 109890280 
1071.269 108708024 107571296 106494312 105486816 104552632 103688224 
1074.162 102883432 102123472 101391528 100674408 99964128 99257976 98556872 
1077.538 97861880 97172056 96484488 95796024 95106136 94419312 93745344 
1080.913 93097824 92489600 91932792 91435712 91004528 90645496 90365816 
1084.288 90173984 90078648 90086024 90198368 90413872 90728408 91137416 
1087.663 91637632 92226640 92900680 93650496 94460752 95307960 96163984 
1091.039 97003960 97807840 98565808 99278168 99951904 100596288 101218864 
1094.414 101823776 102411744 102982120 103535328 104075048 104609248 
1097.307 105150808 105715800 106320536 106977872 107689568 108439992 
1100.200 109188944 109876536 110422664 110739904 110755936 110421600 
1103.093 109725584 108695048 107391656 105898808 104302192 102688472 
1105.986 101129608 99678136 98371192 97225640 96241840 95404152 94685720 
1109.361 94052264 93464728 92887672 92290152 91646272 90937688 90150576 
1112.737 89275216 88308384 87253120 86121296 84931456 83708536 82478880 
1116.112 81265560 80087776 78958824 77886368 76875664 75929232 75047984 
1119.487 74230384 73471344 72762712 72093208 71451224 70825672 70207016 
1122.862 69586904 68956024 68302648 67612608 66869824 66059524 65173104 
1126.238 64209820 63178988 62097420 60988720 59878352 58789108 57741184 
1129.613 56748232 55817524 54949976 54141136 53382800 52663604 51972708 
1132.988 51301220 50643948 50000088 49373436 48770784 48199992 47668960 
1136.363 47184780 46752576 46377132 46062504 45811648 45627516 45511080 
1139.739 45462148 45478556 45557260 45695056 45889424 46138444 46440920 
1143.114 46794532 47195788 47639156 48117252 48622412 49147336 49685496 
1146.489 50232168 50783256 51334816 51883872 52427752 52965724 53498852 
1149.864 54030012 54562984 55100340 55643480 56191372 56741848 57291888 
1153.240 57839404 58382800 58920540 59450320 59968080 60467760 60942472 
1156.615 61384568 61786512 62141076 62440220 62673920 62831544 62901088 
1159.990 62871524 62734216 62483532 62116228 61631296 61028072 60306732 
1163.365 59469320 58520708 57470180 56330816 55119792 53855224 52553944 
1166.740 51232392 49904664 48583576 47282192 46012920 44787452 43616648 
1170.116 42507892 41466216 40493704 39590652 38756528 37991400 37295672 
1173.491 36670564 36116924 35634944 35223672 34881432 34606344 34397020 
1176.866 34253260 34176076 34167472 34229776 34365460 34577568 34869368 
1180.241 35245448 35711668 36273980 36938452 37710540 38593788 39590472 
1183.617 40701328 41924428 43253640 44675284 46167516 47694992 49210420 
1186.992 50660628 51984400 53123904 54030612 54665564 55006424 55047380 
1190.367 54800040 54290880 53558260 52651000 51618064 50507548 49363636 
1193.742 48220764 47106632 46041360 45037276 44101188 43234424 42434120 
1197.118 41694188 41006856 40364788 39761680 39193824 38660140 38161148 
1200.493 37697928 37271048 36879504 36520900 36192148 35889308 35609048 
1203.868 35347912 35101408 34864236 34629452 34388736 34134100 33859128 
1207.243 33560020 33236794 32892544 32533426 32166608 31800922 31445372 
1210.619 31109124 30802194 30534226 30313924 30148884 30044196 30002620 
1213.994 30024846 30110280 30257790 30465908 30733232 31057408 31435042 
1217.369 31861462 32331344 32839474 33382542 33958972 34568704 35212856 
1220.744 35892692 36608952 37362220 38153368 38983908 39855884 40771092 
1224.120 41730076 42730668 43767608 44832712 45915640 47003532 48082684 
1227.495 49137396 50149900 51102704 51979096 52765512 53454520 54045508 
1230.870 54544728 54963248 55317364 55627176 55914968 56208572 56539584 
1234.245 56940692 57447528 58092836 58903616 59902240 61103276 62514448 
1237.621 64137840 65969108 67996528 70198408 72544664 74994504 77498520 
1240.996 80008208 82474280 84851968 87104168 89195992 91094512 92769336 
1244.371 94189672 95327472 96160056 96667704 96835960 96655208 96121184 
1247.746 95238680 94022144 92497920 90699344 88661104 86415160 83982640 
1251.122 81376480 78604328 75675352 72607088 69431400 66190704 62940040 
1254.497 59740128 56646936 53712904 50978684 48468864 46194640 44152796 
1257.872 42329568 40703260 39249492 37945044 36767884 35700912 34730876 
1261.247 33847592 33043470 32311998 31646830 31042104 30491608 29990086 
1264.623 29532978 29117306 28741010 28402706 28101430 27835370 27602484 
1267.998 27400392 27227142 27081576 26963626 26873522 26812086 26779452 
1271.373 26775504 26799786 26852090 26932954 27043948 27187280 27365102 
1274.748 27579180 27829930 28115570 28431890 28770216 29118088 29456982 
1278.124 29763884 30014760 30186002 30260420 30230898 30101652 29887352 
1281.499 29608598 29289576 28952122 28612664 28282878 27969244 27675014 
1284.874 27402156 27152290 26927492 26729622 26560340 26421476 26314688 
1288.249 26242034 26204902 26203740 26237108 26300678 26387884 26491942 
1291.625 26606556 26728178 26856920 26995466 27147918 27318700 27511186 
1295.000 27727812 27970376 28241400 28543942 28880938 29255796 29670146 
1298.375 30125018 30620652 31157642 31737146 32359756 33024232 33724964 
1301.750 34449636 35180804 35895032 36567068 37175024 37700568 38133180 
1305.125 38470972 38720448 38895368 39014212 39100528 39176852 39263200 
1308.501 39374888 39519916 39699156 39907784 40137736 40379840 40625320 
1311.876 40867080 41098556 41313180 41504204 41663988 41785596 41863528 
1315.251 41893664 41873632 41802232 41679124 41504608 41280564 41011736 
1318.626 40705808 40373184 40026468 39677412 39335816 39008880 38699908 
1322.002 38411204 38143928 37900460 37683872 37498488 37347920 37235528 
1325.377 37163764 37134496 37150268 37213724 37327160 37490868 37701652 
1328.752 37952128 38230976 38524628 38820980 39109192 39382180 39635920 
1332.127 39867140 40073300 40250952 40396348 40506256 40578792 40613640 
1335.503 40612840 40579552 40518112 40433404 40331880 40221584 40111896 
1338.878 40014116 39939676 39897684 39894524 39931976 40008192 40118544 
1342.253 40257608 40419768 40599160 40790784 40990544 41195596 41405272 
1345.628 41621504 41848092 42088164 42341844 42603820 42861496 43094844 
1349.004 43278968 43389136 43402644 43303864 43087088 42756952 42328512 
1352.379 41824744 41276084 40714832 40171712 39675308 39245900 38896964 
1355.754 38634384 38458120 38364256 38347064 38400996 38519704 38695380 
1359.129 38919144 39178956 39462036 39757796 40059460 40366640 40685172 
1362.505 41025172 41396416 41804056 42246076 42712608 43187504 43648228 
1365.880 44070016 44426368 44690160 44839508 44859972 44747524 44508956 
1369.255 44159508 43718612 43202912 42626300 41998004 41323780 40611420 
1372.630 39873856 39130404 38409032 37740212 37149256 36651960 36249344 
1376.006 35931020 35680264 35481644 35326812 35216844 35162984 35184684 
1379.381 35309200 35565316 35982924 36588696 37396492 38399404 39557624 
1382.756 40799704 42016104 43074136 43843072 44196044 44037488 43320812 
1386.131 42065420 40368492 38389560 36331724 34378728 32658182 31233046 
1389.507 30103960 29234636 28572392 28067002 27674978 27361926 27104218 
1392.882 26885576 26697734 26540510 26419926 26344824 26321906 26351830 
1396.257 26428236 26539630 26671978 26813180 26955694 27097870 27243266 
1399.632 27398908 27571590 27764298 27975218 28197908 28424038 28645190 
1403.008 28854590 29049568 29231130 29402840 29568516 29730424 29888632 
1406.383 30041852 30189092 30331512 30472626 30617914 30773064 30942040 
1409.758 31127028 31328048 31544664 31776998 32026116 32293900 32581638 
1413.133 32889042 33213976 33553324 33904908 34268248 34645168 35039624 
1416.509 35456544 35900500 36375784 36886072 37433148 38013788 38618924 
1419.884 39230304 39823124 40369548 40844548 41232104 41527212 41742148 
1423.259 41906036 42063592 42261744 42537160 42908532 43372984 43913928 
1426.634 44510788 45147960 45815328 46506412 47215512 47934356 48653616 
1430.010 49367164 50076416 50792456 51531276 52309776 53138504 54019280 
1433.385 54945768 55909692 56907224 57941964 59027040 60181844 61425944 
1436.760 62765764 64192340 65685056 67215376 68751376 70254608 71681192 
1440.135 72972160 74057496 74870200 75345864 75435024 75109152 74357304 
1443.510 73189368 71635504 69751024 67610752 65298788 62909776 60532468 
1446.886 58246716 56126140 54225704 52575296 51171996 49983320 48956888 
1450.261 48037896 47190508 46405780 45705508 45126928 44709436 44472580 
1453.636 44407500 44475880 44619136 44775404 44885944 44918756 44882016 
1457.011 44827752 44827568 44938708 45190388 45581876 46099420 46725716 
1460.387 47443492 48232872 49065048 49904516 50702296 51396580 51925656 
1463.762 52233464 52290008 52103964 51724388 51223480 50669268 50116128 
1467.137 49596528 49126116 48712548 48357184 48054144 47787640 47530460 
1470.512 47246840 46899464 46466696 45956928 45415612 44909352 44502052 
1473.888 44232068 44106656 44112816 44233132 44456168 44779076 45203404 
1477.263 45727524 46340820 47021660 47742812 48473532 49189008 49875188 
1480.638 50530440 51166108 51802668 52466220 53182320 53975572 54872336 
1484.013 55900008 57087556 58459368 60025792 61770128 63635648 65529676 
1487.389 67314904 68823192 69883832 70331360 70045800 68986088 67206168 
1490.764 64851916 62115424 59195868 56244700 53347880 50545072 47838500 
1494.139 45220756 42702408 40318536 38134232 36232016 34684108 33530920 
1497.514 32771614 32375574 32296612 32488286 32912418 33534892 34323036 
1500.890 35244080 36259788 37328460 38408128 39446544 40382492 41141320 
1504.265 41618148 41683244 41196144 40047868 38235028 35907736 33337854 
1507.640 30791416 28431432 26299764 24363440 22570934 20885460 19293750 
1511.015 17806570 16446201 15230207 14166870 13250469 12465077 11790922 
1514.391 11208684 10701491 10253476 9852151 9489092 9162679 8878005 8642963 
1518.248 8461630 8329580 8230967 8141187 8036709 7903710 7749769 7602661 
1522.105 7497200 7455165 7475323 7537049 7611867 7677086 7720762 7746902 
1525.963 7770379 7809477 7875467 7967825 8076573 8190244 8302291 8413319 
1529.820 8529443 8656518 8794989 8937969 9072977 9187959 9279343 9357272 
1533.678 9444087 9561538 9721441 9919064 10138856 10359677 10563157 10736880 
1537.535 10873434 10970373 11027024 11044323 11024339 10973194 10904250 
1540.910 10836132 10785722 10761946 10760723 10767516 10762523 10730291 
1544.286 10665189 10574972 10476866 10390320 10326626 10285367 10255783 
1547.661 10223046 10176539 10114709 10046376 9986597 9949981 9942219 9958321 
1551.518 9985614 10011145 10027454 10035898 10045595 10068892 10115455 
1554.894 10186851 10276037 10368635 10448592 10497809 10498658 10438919 
1558.269 10320247 10169315 10032778 9958695 9970662 10062517 10211071 
1561.644 10388555 10570627 10737491 10877986 10990423 11082221 11167818 
1565.019 11262646 11377018 11511630 11658469 11804302 11937650 12051519 
1568.395 12146677 12231189 12318171 12421024 12548491 12704108 12886914 
1571.770 13093325 13317805 13552896 13789345 14013980 14213669 14378445 
1575.145 14507551 14613425 14719497 14852750 15028265 15245889 15492739 
1578.520 15752889 16012264 16262578 16501816 16732059 16956844 17179022 
1581.896 17399726 17618610 17834808 18047834 18257508 18462720 18660660 
1585.271 18845750 19011428 19151128 19261710 19344950 19407726 19460638 
1588.646 19515532 19584192 19675470 19795546 19948404 20135536 20355630 
1592.021 20602206 20863558 21120858 21350710 21530508 21640966 21671580 
1595.396 21622890 21506344 21340442 21146286 20944776 20752638 20582506 
1598.772 20444846 20348130 20299070 20302820 20361464 20474750 20639940 
1602.147 20853686 21112092 21409950 21739886 22090048 22442934 22778020 
1605.522 23071154 23298788 23442114 23487544 23430222 23272674 23024614 
1608.897 22699392 22311588 21877818 21416042 20945576 20488576 20063874 
1612.273 19684344 19353230 19063460 18799522 18540654 18267080 17964392 
1615.648 17629894 17276618 16931934 16628971 16393071 16235026 16149905 
1619.023 16122945 16133638 16161218 16187424 16197329 16182989 16145572 
1622.398 16096294 16052524 16031897 16046576 16097980 16179617 16279915 
1625.774 16388666 16497960 16603049 16701758 16792636 16874782 16948162 
1629.149 17014384 17077206 17141380 17211252 17288204 17369068 17445012 
1632.524 17502618 17525662 17496718 17402380 17238142 17015246 16760813 
1635.899 16511591 16300797 16143851 16037500 15964584 15904434 15836764 
1639.275 15746634 15626950 15479073 15312197 15139483 14974279 14824567 
1642.650 14690604 14564597 14433077 14279476 14088108 13848691 13560827 
1646.025 13238138 12906712 12599959 12349021 12171790 12071006 12035985 
1649.400 12047670 12081090 12105518 12086541 11983665 11761166 11409196 
1652.776 10970271 10537696 10203439 10009890 9938319 9942490 9975477 
1656.151 10004940 10014027 9997176 9957711 9902420 9838696 9770644 9698096 
1660.008 9617497 9523637 9412257 9282119 9136589 8983666 8835463 8703807 
1663.866 8598384 8523226 8476394 8450650 8435177 8417812 8385179 8326540 
1667.723 8235357 8111917 7964349 7806946 7657290 7529834 7432918 7367365 
1671.581 7327768 7304181 7283593 7252494 7197343 7108518 6985028 6838280 
1675.438 6689831 6562861 6472854 6421030 6397055 6384647 6369213 6343122 
1679.295 6307216 6269565 6240521 6226707 6224959 6221799 6194776 6120235 
1683.153 5983319 5790434 5573971 5380999 5248206 5184323 5174532 5193377 
1687.010 5219064 5235899 5236502 5219936 5189756 5151598 5111800 5077470 
1690.868 5054977 5049043 5061379 5088466 5121288 5145026 5142645 5099831 
1694.725 5012473 4893230 4771942 4682942 4645866 4658391 4697980 4733653 
1698.583 4732648 4671554 4546511 4382377 4225865 4120251 4084795 4108911 
1702.440 4167150 4231218 4279803 4300081 4287666 4247513 4190970 4132895 
1706.297 4084762 4052754 4036835 4033156 4036467 4042320 4048139 4053189 
1710.155 4058105 4064193 4072286 4082622 4094562 4107105 4119114 4130019 
1714.012 4139050 4144837 4144737 4133865 4106904 4059978 3994598 3919732 
1717.870 3850662 3804198 3791128 3813055 3862797 3929194 4000149 4065898 
1721.727 4121288 4165277 4200271 4230750 4260964 4293623 4329062 4366345 
1725.584 4403731 4439614 4472420 4500308 4521300 4533889 4537973 4535764 
1729.442 4531913 4531746 4538174 4549190 4556155 4543933 4494081 4392451 
1733.299 4237676 4049778 3865605 3725488 3651403 3640844 3673757 3724585 
1737.157 3770974 3796543 3793234 3762652 3713858 3660826 3616320 3588589 
1741.014 3578768 3583478 3597209 3615518 3635365 3655680 3676197 3697383 
1744.872 3719038 3740593 3761148 3779296 3793736 3802928 3804900 3798215 
1748.729 3781201 3752625 3712387 3662363 3607199 3553612 3510019 3482963 
1752.586 3475715 3486637 3510085 3536909 3556952 3561629 3545995 3511288 
1756.444 3465094 3419306 3385511 3369515 3370117 3379533 3387180 3382338 
1760.301 3358029 3313420 3254495 3192139 3137936 3101393 3086543 3091682 
1764.159 3111104 3137435 3162767 3179723 3183227 3171212 3146013 3114074 
1768.016 3084174 3063951 3056777 3059447 3062984 3056978 3031886 2984141 
1771.874 2919656 2852880 2800253 2773175 2774275 2797551 2832902 2870690 
1775.731 2905079 2934000 2958586 2980805 3000823 3017038 3026380 3026914 
1779.588 3019173 3006895 2996686 2994250 3001924 3017338 3034688 3047368 
1783.446 3050438 3043097 3028182 3012166 3001223 2999622 3008630 3026513 
1787.303 3050738 3078501 3107300 3134599 3156526 3168408 3164770 3141707 
1791.161 3098523 3040294 2977269 2920857 2880930 2861351 2860317 2871957 
1795.018 2889535 2908181 2924393 2936802 2944942 2947944 2944975 2934934 
1798.875 2917688 2894705 2869323 2845942 2828733 2819862 2819528 2825932 
1802.733 2836404 2848844 2861952 2875226 2888468 2901443 2913585 2924026 
1806.590 2932466 2938604 2942874 2945376 2945943 2943841 2938303 2929030 
1810.448 2916988 2904612 2895106 2891003 2893405 2901510 2912184 2922158 
1814.305 2928729 2931231 2931165 2931865 2936769 2948845 2968695 2994917 
1818.163 3024712 3055076 3083973 3110703 3135667 3160197 3185097 3210131 
1822.020 3233831 3253627 3266914 3272289 3270553 3264844 3260704 3263909 
1825.877 3277997 3302937 3334555 3365809 3388349 3395829 3386011 3362770 
1829.735 3335123 3314489 3310916 3329013 3366811 3417636 3472976 3525585 
1833.592 3570883 3607566 3637136 3662597 3686455 3710750 3736249 3763588 
1837.450 3794103 3830270 3874865 3930932 3999781 4080548 4169927 4262403 
1841.307 4352154 4432618 4499337 4550060 4586626 4615190 4644359 4683310 
1845.165 4737271 4806448 4885824 4967560 5042875 5104525 5148848 5175370 
1849.022 5186604 5186101 5176276 5157700 5128999 5087896 5033054 4965549 
1852.879 4888974 4808325 4728394 4652229 4580397 4511691 4444000 4376453 
1856.737 4309184 4243899 4181970 4124031 4069176 4016033 3963098 3910504 
1860.594 3859888 3813858 3774751 3743535 3719004 3698953 3681343 3665270 
1864.452 3651136 3640009 3632257 3626510 3619093 3605194 3581073 3545962 
1868.309 3503305 3460018 3424549 3403276 3398434 3407985 3426920 3450065 
1872.167 3473277 3493585 3509885 3521710 3528491 3529527 3524816 3514361 
1876.024 3499363 3481427 3461854 3441415 3419673 3395562 3368581 3339063 
1879.881 3309013 3281102 3257833 3240307 3227722 3217775 3207627 3195511 
1883.739 3181191 3166472 3153589 3144611 3139805 3137569 3135233 3130193 
1887.596 3120582 3106799 3091181 3077600 3070392 3072594 3085508 3108234 
1891.454 3137102 3167206 3192974 3209530 3213736 3205558 3187733 3165938 
1895.311 3146013 3132663 3128124 3130994 3138070 3145345 3150285 3152120 
1899.168 3152120 3152321 3154090 3157928 3163201 3168541 3173748 3179389 
1903.026 3187400 3199416 3216206 3236635 3258301 3278231 3294456 3306342 
1906.883 3314889 3321200 3326408 3330348 3332085 3330816 3326642 3320866 
1910.741 3315724 3313654 3315323 3320699 3328111 3336292 3344238 3352152 
1914.598 3360199 3368280 3374558 3376027 3370250 3356025 3335924 3315323 
1918.456 3300733 3296593 3302703 3314489 3324138 3324605 3311484 3285743 
1922.313 3252892 3220846 3196779 3184529 3183094 3188968 3197847 3207227 
1926.170 3217241 3229358 3245014 3264109 3284040 3301601 3313654 3319497 
1930.028 3320398 3319030 3317627 3317794 3318228 3317694 3315423 3312652 
1933.885 3311985 3316626 3328211 3345574 3365408 3383106 3395429 3401606 
1937.743 3403744 3405213 3408486 3413194 3416400 3413428 3400738 3377596 
1941.600 3347477 3317460 3295191 3286644 3294089 3315423 3346175 3380668 
1945.458 3414130 3442717 3464159 3477051 3480859 3477051 3468200 3458214 
1949.315 3451568 3451167 3457746 3469236 3481427 3489911 3491881 3486337 
1953.172 3473778 3456110 3433867 3406716 3373389 3333854 3289749 3245081 
1957.030 3205892 3176719 3160698 3156593 3160798 3168408 3176352 3183428 
1960.887 3191572 3201519 3212267 3220579 3220779 3208128 3182426 3147281 
1964.745 3109202 3076966 3056510 3049136 3051972 3058879 3064986 3067322 
1968.602 3066287 3064152 3064018 3066654 3072427 3081604 3095019 3115142 
1972.459 3145679 3188101 3241409 3302669 3366844 3431562 3496992 3566507 
1976.317 3643751 3729030 3818504 3901644 3966242 4004195 4012388 3996471 
1980.174 3966308 3933908 3908331 3892784 3886265 3885396 3886700 3888839 
1984.032 3893553 3902146 3915419 3932270 3948654 3961259 3968783 3971291 
1987.889 3971659 3972628 3974333 3974534 3969385 3955174 3931066 3900173 
1991.747 3868914 3844678 3832610 3833981 3846149 3864803 3885363 3905322 
1995.604 3925014 3944608 3964737 3982961 3995166 3997240 3985770 3959688 
1999.461 3920902 3872759 3819039 3763019 3706974 3653107 3604292 3564603 
2003.319 3538412 3528925 3536241 3558088 3589425 3624372 3658520 3691167 
2007.176 3722547 3754029 3786115 3816432 3841669 3859153 3868379 3870285 
2011.034 3869416 3870653 3876370 3888304 3904419 3922741 3940495 3956545 
2014.891 3969953 3980955 3988713 3992692 3993127 3991990 3992190 3999146 
2018.749 4016870 4046065 4084394 4126105 4164842 4196223 4219475 4237576 
2022.606 4256112 4280807 4313300 4352857 4395932 4437840 4474596 4505095 
2026.463 4528364 4544536 4552405 4550664 4537940 4514938 4485142 4454912 
2030.321 4431313 4420434 4426124 4448485 4486347 4538509 4603302 4680631 
2034.178 4769229 4865451 4962298 5051557 5124607 5176443 5206824 5220372 
2038.036 5224798 5227548 5234456 5247100 5264505 5283187 5300057 5313440 
2041.893 5322665 5329373 5334337 5338262 5342522 5347353 5353559 5363153 
2045.750 5378349 5401463 5434879 5479840 5535746 5600520 5668929 5733387 
2049.608 5785733 5817197 5822704 5801246 5758199 5702432 5646505 5601225 
2053.465 5574441 5567964 5578201 5597868 5620290 5639691 5654494 5665874 
2057.323 5676818 5688634 5701896 5715358 5727881 5738994 5749570 5760617 
2061.180 5773007 5785329 5794396 5795974 5787210 5767701 5740975 5712605 
2065.038 5688534 5672756 5666008 5666042 5668929 5671883 5673528 5675576 
2068.895 5680544 5690682 5706260 5726034 5746951 5766358 5782845 5796411 
2072.752 5808029 5818641 5828379 5836607 5842047 5844163 5843559 5841745 
2076.610 5841107 5843088 5848092 5855447 5863440 5870627 5876336 5880871 
2080.467 5884733 5888293 5892021 5895279 5897798 5899713 5901627 5904583 
2084.325 5909184 5915062 5921243 5925609 5926281 5922552 5914491 5902836 
2088.182 5888797 5872441 5853331 5830663 5804000 5773779 5742217 5712806 
2092.040 5689004 5674233 5670205 5677489 5695584 5722711 5756520 5794262 
2095.897 5832174 5866127 5892861 5910326 5918791 5921847 5923930 5930177 
2099.754 5943714 5964977 5991348 6018997 6043490 6062305 6075578 6085187 
2103.612 6093722 6104005 6116875 6132971 6151892 6173770 6199246 6229530 
2107.469 6264724 6304022 6345207 6385387 6422376 6455332 6484995 6513247 
2111.327 6541804 6571271 6600706 6628293 6652854 6673849 6692658 6711906 
2115.184 6733139 6756730 6781062 6802400 6816940 6822056 6817714 6806169 
2119.042 6791529 6778538 6770898 6770191 6776316 6788399 6804689 6824109 
2122.899 6845786 6869113 6893452 6917523 6940046 6959910 6976105 6988597 
2126.756 6997352 7002840 7005501 7005703 7003716 6999675 6994052 6986880 
2130.614 6978832 6971055 6965230 6963950 6970550 6988092 7018027 7060020 
2134.471 7109764 7160929 7206776 7241915 7263309 7272373 7272171 7266679 
2138.329 7258390 7247676 7233088 7212605 7186429 7156078 7125898 7100637 
2142.186 7083225 7074502 7071942 7071134 7068844 7062782 7053016 7041229 
2146.043 7028029 7011831 6990651 6959910 6916782 6860530 6793986 6720587 
2149.901 6644947 6569118 6492966 6414574 6330918 6240253 6142684 6038887 
2153.758 5930480 5818976 5705622 5593069 5487994 5401463 5347520 5342388 
2157.616 5396968 5513094 5681350 5882382 6092042 6287583 6454256 6583616 
2161.473 6674926 6731860 6759792 6766085 6758345 6743807 6730111 6722101 
2165.331 6720890 6724592 6727418 6722169 6703291 6668028 6616989 6554048 
2169.188 6483750 6410572 6337440 6265094 6193835 6123226 6054410 5988358 
2173.045 5926348 5870358 5821159 5780360 5748664 5727377 5715761 5711833 
2176.903 5710456 5705655 5690783 5662853 5622807 5577261 5536451 5509302 
2180.760 5502826 5517625 5548835 5587095 5623949 5653387 5673897 5687795 
2184.618 5698706 5709751 5722173 5735032 5746179 5754136 5758434 5759609 
2188.475 5757830 5754103 5746918 5736711 5723382 5708879 5696423 5689038 
2192.333 5688333 5693838 5702735 5710456 5714216 5712739 5706864 5700351 
2196.190 5696054 5695718 5698706 5702365 5703641 5700653 5693167 5682827 
2200.047 5672823 5666445 5665169 5670574 5682156 5699176 5720528 5744803 
2203.905 5770287 5795034 5816827 5833752 5844667 5850040 5850342 5847051 
2207.762 5840738 5831771 5819648 5805108 5789023 5774047 5762967 5758602 
2211.620 5762698 5773913 5789729 5806384 5820857 5831166 5837111 5839965 
2215.477 5842014 5845170 5850779 5859645 5871803 5887487 5906329 5927524 
2219.334 5950063 5972233 5992558 6009725 6023197 6032839 6038517 6039861 
2223.192 6036132 6026086 6009557 5987015 5961014 5935821 5914928 5901862 
2227.049 5898705 5904919 5919093 5939448 5964507 5993364 6025314 6059550 
2230.907 6093285 6123360 6146750 6160697 6164696 6160092 6149438 6135592 
2234.764 6120874 6106659 6094193 6084918 6080651 6084179 6097351 6120201 
2238.622 6151220 6185399 6217295 6242303 6257799 6264052 6263816 6260993 
2242.479 6259043 6260085 6264421 6271615 6281061 6292424 6305838 6321437 
2246.336 6338819 6356639 6373854 6389355 6403040 6415919 6429135 6442990 
2250.194 6457249 6470230 6479714 6484692 6485835 6485499 6487483 6495051 
2254.051 6509547 6529594 6552332 6572919 6587687 6594449 6592666 6583616 
2257.909 6568613 6549238 6526667 6501879 6476587 6452877 6432935 6418878 
2261.766 6411379 6409563 6411245 6414339 6417836 6421703 6427554 6437542 
2265.624 6452877 6473694 6498011 6523136 6546244 6565182 6579176 6588528 
2269.481 6594179 6597510 6599259 6600235 6601648 6603767 6607737 6614096 
2273.338 6622775 6632398 6641650 6649018 6653627 6655982 6657127 6658809 
2277.196 6662813 6669643 6679266 6690773 6703156 6715337 6726712 6737076 
2281.053 6745994 6753768 6760364 6765580 6770259 6774970 6780086 6786144 
2284.911 6792606 6798933 6803746 6806473 6806405 6804116 6800313 6795837 
2288.768 6791596 6787557 6783451 6778874 6773321 6766860 6760061 6753499 
2292.625 6747778 6743403 6740542 6739297 6739735 6742057 6746263 6752086 
2296.483 6759287 6766691 6773220 6778504 6781735 6783216 6783519 6783586 
2300.340 6783754 6784966 6786952 6789779 6793346 6797318 6801727 6806068 
2304.198 6809973 6813170 6815593 6817243 6818825 6821080 6824782 6830336 
2308.055 6837809 6846594 6855985 6865444 6874971 6884565 6895236 6907524 
2311.913 6922236 6939507 6959304 6981358 7004962 7029106 7052914 7075108 
2315.770 7094844 7111482 7124955 7136137 7146108 7156247 7167767 7181275 
2319.627 7196771 7214120 7232886 7252427 7272103 7290264 7304012 7309943 
2323.485 7304484 7284435 7249563 7201487 7144760 7085515 7029914 6982940 
2327.342 6947520 6923650 6909241 6902070 6898872 6898030 6899006 6901801 
2331.200 6906648 6913314 6921764 6931191 6941325 6952368 6964792 6979170 
2335.057 6995635 7013886 7033989 7055440 7078004 7101715 7126538 7151430 
2338.915 7175380 7196670 7213952 7226619 7235547 7242016 7247710 7252999 
2342.772 7256570 7255628 7247070 7229314 7204182 7177300 7157291 7154192 
2346.629 7175818 7225676 7303035 7402753 7516753 7635539 7750208 7852424 
2350.487 7935968 7997557 8037013 8057367 8063712 8061619 8056083 8050042 
2354.344 8044371 8039511 8035089 8031747 8030465 8032962 8039207 8049333 
2358.202 8060843 8071712 8079578 8083257 8083021 8080050 8076235 8073535 
2362.059 8073332 8076709 8084337 8096388 8112626 8132105 8153071 8173058 
2365.917 8189907 8201826 8208748 8211753 8212901 8214758 8219081 8226645 
2369.774 8237045 8249371 8262744 8276725 8291719 8307897 8324953 8342821 
2373.631 8360216 8376565 8392002 8407136 8423926 8444332 8469705 8500756 
2377.489 8536810 8576990 8620013 8665238 8712496 8761752 8813315 8866845 
2381.346 8921294 8975717 9028860 9080082 9129450 9177197 9223495 9268817 
2385.204 9312415 9353717 9392111 9427258 9459190 9488516 9515779 9540741 
2389.061 9563231 9582505 9597850 9608723 9615770 9619529 9621223 9622104 
2392.918 9622918 9624374 9627287 9632064 9639923 9651442 9666824 9685865 
2396.776 9707312 9729540 9750955 9770880 9789520 9808329 9829240 9854016 
2400.633 9883743 9918827 9958424 10001278 10046341 10092936 10141061 
2404.009 10191498 10245097 10302806 10365038 10432029 10503037 10577112 
2407.384 10652761 10728966 10804472 10879142 10953247 11027738 11103908 
2410.759 11182810 11264924 11350046 11437158 11524764 11610924 11694004 
2414.134 11772503 11845024 11911087 11970006 12022223 12068348 12109675 
2417.510 12147631 12183308 12217079 12248365 12275870 12297889 12313569 
2420.885 12322772 12326692 12328022 12329454 12333612 12342134 12355907 
2424.260 12374657 12397977 12425491 12457269 12493688 12535190 12582018 
2427.635 12634309 12692031 12755321 12824287 12899680 12981948 13071813 
2431.010 13169038 13272913 13382521 13496734 13614295 13735068 13858919 
2434.386 13985783 14116175 14250098 14387351 14527627 14670691 14815996 
2437.761 14963237 15112894 15264662 15419332 15577423 15739420 15905809 
2441.136 16076524 16250746 16427275 16604941 16782442 16958910 17134384 
2444.511 17309132 17483920 17659122 17835120 18011880 18189644 18368656 
2447.887 18548848 18730570 18913092 19094862 19273694 19446570 19611266 
2451.262 19766208 19911598 20048674 20179616 20306500 20430710 20552630 
2454.637 20671804 20786978 20896516 20999230 21093658 21178606 21252784 
2458.012 21315038 21364632 21401386 21425266 21436892 21436892 21425614 
2461.388 21403024 21369086 21324086 21268860 21205184 21135224 21061692 
2464.763 20987094 20913518 20842458 20775822 20715000 20662144 20619822 
2468.138 20590082 20574900 20575454 20591958 20624164 20671664 20733698 
2471.513 20809746 20898984 21000064 21111014 21229402 21352834 21479016 
2474.889 21606420 21734312 21861754 21987944 22111280 22229276 22339632 
2478.264 22439654 22527520 22602276 22663678 22712098 22747920 22771770 
2481.639 22784060 22785144 22775994 22757314 22730568 22696704 22656872 
2485.014 22611702 22561720 22507382 22449318 22387670 22322714 22254736 
2488.390 22183490 22108838 22030748 21949362 21864680 21776812 21685198 
2491.765 21588796 21486012 21375386 21255706 21126772 20989250 20844404 
2495.140 20694078 20539186 20380528 20217832 20050722 19878748 19701750 
2498.515 19520176 19334694 19146074 18954972 18762154 18567972 18373252 
2501.891 18179244 17987220 17798458 17614090 17434596 17259932 17089474 
2505.266 16923046 16760539 16602153 16448783 16301002 16159154 16023576 
2508.641 15894191 15771201 15654704 15545039 15442953 15348512 15261744 
2512.016 15182200 15109154 15041849 14980007 14923353 14871882 14825699 
2515.392 14784354 14747434 14714699 14685977 14661746 14642897 14630560 
2518.767 14625077 14626893 14635118 14648586 14665790 14685668 14707399 
2522.142 14730672 14755283 14780857 14807185 14833516 14859573 14885359 
2525.517 14911247 14937378 14964060 14990777 15016603 15039619 15058177 
2528.893 15070458 15075363 15072482 15061744 15044078 15020343 14991668 
2532.268 14959533 14925410 14890605 14856728 14824259 14793781 14765088 
2535.643 14737630 14710518 14683303 14655611 14626893 14597422 14567646 
2539.018 14538248 14510188 14484940 14463290 14445751 14432323 14421671 
2542.394 14411806 14401256 14388104 14372246 14354403 14335841 14318514 
2545.769 14303411 14291187 14281325 14272662 14264033 14254275 14243045 
2549.144 14230343 14216202 14201310 14186246 14172039 14159305 14149275 
2552.519 14142018 14137329 14133768 14129524 14122609 14111690 14096905 
2555.895 14079791 14063020 14049228 14040330 14036908 14037524 14039783 
2559.270 14040946 14038961 14032528 14021508 14006280 13987528 13965868 
2562.645 13941609 13915503 13888168 13861040 13835350 13812432 13793107 
2566.020 13777442 13765027 13755109 13746696 13739480 13733324 13728400 
2569.396 13724945 13723440 13723954 13726997 13732879 13741600 13753125 
2572.771 13767147 13782949 13800289 13818760 13838840 13861040 13886355 
2576.146 13914922 13946434 13979966 14013671 14046182 14076608 14104947 
2579.521 14132228 14159442 14187444 14216613 14246503 14276497 14306391 
2582.896 14336355 14367178 14400092 14435988 14475006 14516596 14559560 
2586.272 14602803 14645535 14687862 14730398 14773898 14819184 14866499 
2589.647 14915568 14965774 15016397 15066615 15115947 15163946 15210235 
2593.022 15254812 15297644 15339381 15380608 15422285 15464755 15508054 
2596.397 15551460 15594047 15634885 15673494 15710320 15746430 15782883 
2599.773 15820784 15860442 15901512 15943101 15984558 16025433 16066208 
2603.148 16107814 16151588 16198602 16249232 16303789 16362036 16423592 
2606.523 16487945 16554821 16623877 16694663 16766703 16839684 16913710 
2609.898 16989024 17066074 17145482 17226974 17309858 17392552 17473158 
2613.274 17549568 17620612 17685556 17744990 17799908 17851968 17902098 
2616.649 17951546 18000620 18048974 18096122 18141102 18183216 18221776 
2620.024 18256470 18287538 18315774 18342318 18368240 18394788 18422166 
2623.399 18450480 18479314 18507736 18535224 18561714 18586784 18610856 
2626.775 18634200 18657028 18679788 18702618 18726002 18750218 18775752 
2630.150 18802774 18831252 18860110 18889212 18917246 18943896 18969196 
2633.525 18993220 19016792 19040404 19064430 19088872 19113974 19139250 
2636.900 19164878 19190536 19216408 19242174 19267876 19293266 19318206 
2640.276 19343182 19368542 19395150 19423874 19455094 19489124 19525722 
2643.651 19564020 19603604 19643782 19684344 19725362 19767076 19809834 
2647.026 19853776 19899216 19946392 19995344 20046280 20098714 20152474 
2650.401 20206794 20261122 20314554 20366776 20418104 20468984 20520566 
2653.777 20573960 20630070 20689386 20751874 20817046 20884104 20952564 
2657.152 21021696 21091292 21161490 21232324 21304110 21376570 21449912 
2660.527 21523404 21596876 21669768 21741940 21813464 21884788 21956472 
2663.902 22029180 22103678 22180002 22258154 22337678 22417986 22498554 
2667.278 22579136 22659698 22740624 22822648 22906224 22992086 23080516 
2670.653 23171272 23264144 23358750 23454074 23549770 23645486 23741224 
2674.028 23837612 23935144 24034378 24135842 24239500 24344900 24451310 
2677.403 24558128 24664624 24770900 24876992 24983636 25091428 25200968 
2680.779 25312504 25426246 25542232 25660708 25782032 25906834 26035612 
2684.154 26168442 26305466 26446336 26590704 26738256 26888642 27042186 
2687.529 27198780 27358538 27521742 27688222 27858016 28031056 28207242 
2690.904 28386542 28568852 28754036 28941744 29131694 29323356 29516912 
2694.280 29712258 29909928 30110140 30313248 30519474 30729142 30941862 
2697.655 31157928 31377022 31598684 31822312 32047234 32272666 32497964 
2701.030 32722414 32946088 33169270 33392028 33614720 33837312 34059268 
2704.405 34279544 34497060 34710632 34918772 35120516 35314912 35500984 
2707.781 35678036 35845584 36003300 36151128 36289144 36417544 36536900 
2711.156 36647600 36750648 36846828 36937008 37022408 37103348 37180116 
2714.531 37252100 37318388 37377532 37427908 37468508 37498668 37518320 
2717.906 37527928 37528432 37520740 37505964 37485340 37459624 37430332 
2721.281 37398768 37366664 37335788 37308348 37286500 37272100 37266936 
2724.657 37272208 37288632 37316616 37355684 37405412 37465292 37534936 
2728.032 37613588 37701000 37796308 37898760 38007420 38121352 38239984 
2731.407 38363028 38490592 38622544 38758920 38899068 39041544 39185192 
2734.782 39328052 39468644 39605752 39738988 39867828 39992604 40113056 
2738.158 40229468 40341768 40450316 40555400 40657444 40757304 40855324 
2741.533 40952016 41048080 41144528 41242672 41344188 41450944 41564364 
2744.908 41684960 41812520 41945776 42083088 42222852 42363652 42504092 
2748.283 42643552 42780720 42914272 43042708 43163932 43276116 43377892 
2751.659 43467936 43545800 43611408 43664716 43705900 43735508 43754344 
2755.034 43763064 43762480 43752768 43733528 43703808 43661856 43606168 
2758.409 43535180 43448268 43345088 43226008 43091552 42942216 42778488 
2761.784 42600932 42410224 42207880 41995736 41776076 41551092 41323164 
2765.160 41094408 40866972 40643072 40424896 40215332 40016476 39830604 
2768.535 39659040 39502932 39362624 39238540 39131092 39040748 38967780 
2771.910 38912076 38872616 38847464 38833948 38829096 38829928 38834024 
2775.285 38839600 38845364 38850400 38853552 38853444 38848660 38837248 
2778.661 38817392 38787612 38746564 38693784 38628740 38552040 38464636 
2782.036 38368384 38265676 38159120 38051324 37944900 37841604 37742416 
2785.411 37647372 37556072 37467208 37378976 37289824 37197588 37100752 
2788.786 36997872 36887768 36769652 36643924 36511240 36372760 36230504 
2792.162 36086856 35944192 35804888 35671092 35544172 35425628 35316212 
2795.537 35216484 35127200 35048960 34982480 34928324 34887252 34859244 
2798.912 34844308 34842264 34852708 34875756 34911380 34959532 35019976 
2802.287 35092028 35174228 35264352 35360384 35459924 35561324 35663360 
2805.663 35765596 35868004 35970652 36073248 36175328 36275888 36373552 
2809.038 36466732 36553804 36632600 36701532 36758324 36801712 36830272 
2812.413 36843368 36841024 36823460 36791648 36746608 36689528 36622112 
2815.788 36546560 36465684 36382524 36300924 36224092 36155344 36097408 
2819.164 36052728 36023316 36011144 36017768 36044228 36091108 36157796 
2822.539 36242748 36343756 36457976 36582604 36714660 36851300 36989720 
2825.914 37126912 37259464 37384504 37498992 37600688 37688352 37761392 
2829.289 37819948 37864160 37894780 37912500 37917960 37912680 37898328 
2832.665 37876960 37850352 37820092 37787380 37752392 37715564 37676968 
2836.040 37637004 37596352 37555528 37515540 37476780 37439216 37403136 
2839.415 37368940 37337340 37309756 37287692 37272856 37266468 37269676 
2842.790 37283184 37308060 37345828 37398476 37468940 37559936 37674148 
2846.166 37813192 37976936 38163460 38368164 38584372 38803660 39015700 
2849.541 39210544 39378916 39513388 39609568 39666632 39687068 39675340 
2852.916 39637804 39581868 39513820 39440196 39366616 39297440 39236432 
2856.291 39186208 39148100 39121992 39106184 39098680 39095816 39094512 
2859.667 39091500 39084392 39071236 39050680 39021860 38984164 38936940 
2863.042 38879644 38811380 38731424 38638948 38533896 38417248 38291692 
2866.417 38161148 38031472 37909248 37800864 37711984 37646576 37606180 
2869.792 37590684 37598196 37625764 37669344 37724636 37787236 37852412 
2873.167 37915900 37974188 38024636 38066156 38098744 38123416 38141756 
2876.543 38155068 38164440 38170408 38173012 38172328 38168600 38162160 
2879.918 38153584 38143564 38132496 38120700 38108660 38096756 38085940 
2883.293 38077152 38071872 38071364 38076608 38088256 38106740 38131592 
2886.668 38162376 38198448 38238644 38281672 38326292 38371028 38414680 
2890.044 38456236 38494828 38530168 38562320 38591508 38618124 38642716 
2893.419 38666116 38688860 38711900 38735696 38760984 38788116 38817644 
2896.794 38849928 38885732 38925452 38969592 39018344 39071268 39126996 
2900.169 39184068 39240280 39293668 39342492 39385516 39421872 39451296 
2903.545 39473648 39488888 39497016 39498180 39492264 39479128 39459208 
2906.920 39432756 39400536 39363716 39323992 39283656 39245284 39211556 
2910.295 39184724 39166592 39157560 39156912 39163072 39173408 39184212 
2913.670 39192516 39194076 39185628 39163692 39125508 39069204 38994420 
2917.046 38901892 38793624 38672812 38543348 38408596 38271392 38133364 
2920.421 37994584 37854040 37710032 37560948 37405628 37244264 37078448 
2923.796 36911108 36746392 36588440 36441220 36307620 36189268 36085740 
2927.171 35995272 35915112 35841340 35770096 35698072 35622532 35542192 
2930.547 35456800 35367716 35277540 35189680 35108052 35036428 34978244 
2933.922 34935904 34911232 34905096 34917628 34948332 34995952 35058516 
2937.297 35133524 35218064 35308804 35403376 35499764 35597396 35696812 
2940.672 35799024 35905180 36015140 36127584 36239616 36347180 36444856 
2944.048 36527240 36588912 36624420 36629032 36598788 36530736 36423852 
2947.423 36279672 36102664 35899672 35680156 35454460 35231648 35019940 
2950.798 34824600 34647828 34489992 34349896 34225800 34116180 34019776 
2954.173 33935936 33863676 33802176 33750172 33706272 33669604 33639388 
2957.549 33615864 33599252 33590128 33588660 33594564 33606988 33624744 
2960.924 33646548 33671612 33699040 33728976 33761528 33796948 33835376 
2964.299 33876324 33919236 33963232 34006984 34049340 34089192 34125748 
2967.674 34158404 34186828 34210884 34231248 34248276 34262760 34275528 
2971.050 34286964 34297688 34307976 34318052 34327880 34337772 34348032 
2974.425 34359076 34371236 34384792 34399748 34415848 34431952 34446552 
2977.800 34457424 34461440 34455448 34436224 34401184 34348892 34279544 
2981.175 34195148 34098616 33994048 33885636 33776356 33668532 33562812 
2984.551 33458442 33353776 33246920 33135832 33019300 32896690 32768432 
2987.926 32635998 32500606 32363758 32225914 32086082 31941660 31788622 
2991.301 31622450 31439104 31236358 31014596 30777048 30529782 30279282 
2994.676 30032622 29794474 29567416 29350616 29141402 28935794 28729574 
2998.052 28519562 28304414 28084286 27860702 27635746 27412074 27191478 
3001.427 26975192 26763982 26558086 26357288 26162038 25972608 25789802 
3004.802 25614276 25446938 25287954 25137278 24994376 24858254 24727826 
3008.177 24602308 24481176 24364316 24251902 24144108 24041032 23942496 
3011.552 23847836 23756238 23666690 23578140 23489818 23401060 23311584 
3014.928 23221602 23131500 23042292 22955092 22871262 22792126 22718522 
3018.303 22650726 22588420 22530904 22477094 22426222 22377900 22332030 
3021.678 22288846 22248458 22210760 22175470 22141962 22109850 22079344 
3025.053 22051386 22027856 22010880 22002758 22005026 22017712 22039428 
3028.429 22066864 22096044 22122052 22140114 22146704 22139242 22116612 
3031.804 22079100 22027960 21965152 21892698 21813044 21728460 21641382 
3035.179 21554186 21469234 21388160 21312080 21240918 21174082 21110388 
3038.554 21048442 20987546 20927530 20868912 20812490 20759206 20709300 
3041.930 20662248 20617528 20574064 20531578 20490346 20451168 20414910 
3045.305 20382508 20354032 20328790 20305770 20283966 20262858 20242618 
3048.680 20224150 20208668 20197180 20189820 20186142 20184856 20184406 
3052.055 20183190 20180276 20175104 20167746 20158372 20147440 20135536 
3055.431 20123250 20111206 20100068 20090664 20083480 20079142 20077684 
3058.806 20079246 20083688 20090870 20100830 20113706 20129636 20148932 
3062.181 20171666 20197804 20227206 20259212 20292994 20327472 20361430 
3065.556 20394072 20424806 20453668 20481488 20508964 20536754 20565170 
3068.932 20593660 20621072 20645882 20666452 20681984 20692132 20697520 
3072.307 20699014 20698146 20696164 20694148 20692932 20693280 20695400 
3075.682 20699500 20705198 20711802 20717988 20722854 20725252 20724522 
3079.057 20720734 20714756 20707042 20698978 20691506 20685356 20681012 
3082.433 20679206 20680386 20684800 20692618 20703252 20715904 20729318 
3085.808 20742316 20754480 20765672 20776898 20788994 20803212 20819894 
3089.183 20839292 20860742 20884104 20908928 20935874 20965186 20997596 
3092.558 21033242 21071638 21111502 21151470 21190120 21226792 21261760 
3095.934 21296038 21331012 21368112 21407966 21450714 21495308 21540466 
3099.309 21584446 21626094 21664682 21700316 21733788 21766326 21799388 
3102.684 21834264 21871790 21912562 21956472 22003074 22051560 22101202 
3106.059 22150852 22199878 22247656 22293938 22338762 22382540 22426118 
3109.435 22470290 22516072 22564128 22614634 22667274 22721386 22775750 
3112.810 22829352 22881530 22931584 22979476 23025276 23069370 23112000 
3116.185 23153344 23193852 23233732 23273618 23314066 23355568 23398680 
3119.560 23443372 23489258 23535532 23581322 23625474 23667286 23706196 
3122.936 23742308 23776222 23808700 23841114 23874194 23908816 23945718 
3126.311 23985180 24027444 24072656 24120708 24171326 24223664 24276956 
3129.686 24329482 24380088 24427438 24471394 24512236 24551502 24591192 
3133.061 24633168 24678968 24729298 24783844 24841730 24901798 24963034 
3136.437 25024628 25086056 25147038 25207010 25265196 25321110 25374148 
3139.812 25424384 25472342 25518934 25565496 25612766 25661272 25711294 
3143.187 25762306 25814134 25866530 25919284 25972292 26025762 26079064 
3146.562 26132302 26185194 26237812 26290820 26345176 26401792 26461760 
3149.938 26525400 26592324 26661902 26732900 26803734 26873522 26941240 
3153.313 27006502 27069198 27129612 27188444 27246546 27304868 27364078 
3156.688 27424708 27486548 27549030 27611666 27673778 27735230 27796512 
3160.063 27858298 27921436 27986774 28054312 28123630 28194162 28264808 
3163.438 28334762 28404016 28472434 28540296 28607922 28675558 28743132 
3166.814 28810648 28877998 28945428 29013010 29080884 29148878 29216704 
3170.189 29284222 29350936 29416950 29482584 29548618 29615690 29684478 
3173.564 29754836 29826378 29897824 29968040 30035604 30099840 30160534 
3176.939 30218750 30275872 30334068 30395222 30460968 30531560 30606606 
3180.315 30684440 30762822 30839614 30913186 30982782 31048796 31112292 
3183.690 31175336 31239706 31307216 31378802 31455134 31535648 31619638 
3187.065 31705708 31792402 31878364 31962272 32043490 32122150 32198974 
3190.440 32275450 32353048 32433730 32518174 32606888 32699264 32794338 
3193.816 32890186 32985374 33078224 33168018 33254500 33338178 33420440 
3197.191 33502500 33586044 33672324 33761848 33854360 33949548 34046328 
3200.566 34144028 34242252 34341144 34440780 34541364 34643016 34745264 
3203.941 34847716 34949944 35051368 35151848 35251628 35350428 35448312 
3207.317 35544852 35639872 35733616 35826764 35920584 36016616 36116132 
3210.692 36219556 36326428 36435056 36543748 36650808 36755296 36857144 
3214.067 36957284 37056936 37157556 37259968 37364640 37471616 37580856 
3217.442 37692144 37805056 37919336 38034400 38149244 38263216 38375224 
3220.818 38485160 38592996 38699000 38803880 38908452 39012944 39117712 
3224.193 39222800 39328528 39434532 39541332 39648552 39756236 39864416 
3227.568 39972804 40081588 40190904 40300504 40410528 40520480 40630012 
3230.943 40738524 40845604 40951580 41057256 41163360 41270984 41380560 
3234.319 41492356 41605532 41719500 41833352 41946688 42059288 42171732 
3237.694 42284024 42396600 42509608 42623304 42737904 42853780 42971300 
3241.069 43090744 43211988 43334288 43456548 43577780 43697468 43816092 
3244.444 43934496 44054428 44177812 44305668 44438296 44575296 44715680 
3247.820 44858168 45002064 45147040 45293016 45440624 45590012 45741108 
3251.195 45893584 46046844 46199944 46352360 46503756 46654324 46804572 
3254.570 46955204 47107144 47261100 47417472 47576080 47736560 47897804 
3257.945 48059032 48219132 48377628 48533996 48688380 48841040 48992640 
3261.321 49143592 49294332 49444904 49595564 49745496 49894516 50041504 
3264.696 50185864 50326848 50464524 50599124 50731156 50861624 50990832 
3268.071 51119216 51247040 51374128 51500684 51626984 51753656 51880700 
3271.446 52008040 52135048 52260448 52383224 52502864 52619320 52734160 
3274.822 52848540 52964336 53082488 53203032 53325256 53447740 53569316 
3278.197 53689208 53807328 53923684 54038416 54151984 54264072 54375140 
3281.572 54485600 54596540 54709160 54824852 54944300 55067840 55195144 
3284.947 55325308 55457352 55591168 55726160 55862700 56000448 56139260 
3288.323 56278420 56417548 56555964 56694088 56832520 56972276 57114348 
3291.698 57259452 57407892 57559792 57714920 57872948 58033680 58196556 
3295.073 58360628 58525184 58689000 58851516 59012768 59173580 59335024 
3298.448 59498236 59664056 59831996 60001480 60171684 60341684 60511940 
3301.823 60683368 60857192 61035280 61218512 61408004 61604260 61807408 
3305.199 62017644 62234676 62457936 62686360 62918552 63153388 63389888 
3308.574 63628896 63871376 64119248 64374188 64636768 64906120 65180956 
3311.949 65459476 65740756 66025116 66314092 66609248 66912152 67222952 
3315.324 67540912 67864688 68192800 68524896 68861672 69204216 69553416 
3318.700 69909680 70271560 70637056 71004104 71370776 71736376 72101232 
3322.075 72466360 72832216 73199176 73566592 73933424 74298480 74660576 
3325.450 75018880 75372784 75721536 76064576 76401408 76731488 77054160 
3328.825 77369016 77674488 77968712 78249448 78514120 78760728 78988512 
3332.201 79197456 79388272 79561520 79717024 79853552 79969248 80062432 
3335.576 80132680 80180896 80209592 80221704 80219832 80204568 80175232 
3338.951 80129608 80065064 79979328 79871360 79741224 79589848 79418432 
3342.326 79227712 79018288 78790240 78543496 78277656 77992376 77687048 
3345.702 77361024 77014040 76646144 76258728 75853744 75433960 75002264 
3349.077 74560800 74111144 73653888 73189288 72717344 72238168 71752400 
3352.452 71260152 70762104 70258584 69749776 69236944 68721840 68206952 
3355.827 67695352 67190272 66693580 66206796 65729888 65262088 64802788 
3359.203 64351088 63906340 63468068 63035840 62608972 62186764 61769020 
3362.578 61355760 60948152 60547592 60155660 59773892 59402944 59042904 
3365.953 58693248 58353316 58022432 57700124 57386224 57080108 56781348 
3369.328 56488864 56202124 55920508 55643856 55372052 55105456 54843724 
3372.704 54586732 54333836 54084424 53838012 53594848 53355188 53119444 
3376.079 52887872 52660200 52435564 52213360 51992352 51772504 51553476 
3379.454 51335864 51119924 50905956 50694136 50484476 50277144 50072180 
3382.829 49869872 49670116 49472792 49277592 49083596 48889840 48695796 
3386.205 48501428 48306820 48112552 47919484 47728240 47539296 47352804 
3389.580 47168864 46987252 46807712 46629900 46453384 46278228 46104212 
3392.955 45931812 45761468 45593692 45428372 45265104 45103036 44941392 
3396.330 44779336 44616716 44454188 44293044 44133980 43977792 43824268 
3399.706 43672408 43521484 43370640 43219784 43069636 42921148 42774868 
3403.081 42630796 42487868 42344512 42199152 42050380 41897716 41741752 
3406.456 41583176 41423096 41262236 41101472 40941060 40781980 40624408 
3409.831 40469156 40316172 40165208 40015168 39864672 39712412 39557808 
3413.207 39400972 39242564 39083560 38925160 38768012 38612548 38458880 
3416.582 38306640 38155576 38005068 37854584 37703168 37550180 37395264 
3419.957 37239100 37083352 36930116 36781840 36640568 36506844 36379856 
3423.332 36258024 36138704 36019788 35899708 35777720 35654148 35529464 
3426.708 35404456 35280160 35157448 35037324 34920644 34807836 34698428 
3430.083 34591200 34484576 34376220 34264840 34149944 34032212 33913432 
3433.458 33795404 33679740 33567216 33457190 33348802 33241264 33133864 
3436.833 33026774 32920174 32814388 32709230 32603462 32495428 32383532 
3440.208 32266420 32143842 32016556 31885960 31753722 31621062 31488088 
3443.584 31353868 31216952 31074742 30925140 30766910 30600740 30428770 
3446.959 30255302 30085246 29923276 29772046 29632470 29502620 29378836 
3450.334 29256930 29132862 29004472 28871126 28733326 28592810 28451136 
3453.709 28309296 28167820 28026992 27886810 27747908 27611312 27477546 
3457.085 27346964 27219664 27094696 26971066 26847684 26723810 26598702 
3460.460 26472114 26343946 26213984 26082336 25949464 25816384 25684964 
3463.835 25556392 25432078 25312504 25196580 25082828 24969104 24853272 
3467.210 24734314 24612126 24487662 24362354 24238170 24116226 23997784 
3470.586 23882910 23771218 23661722 23553268 23444422 23334344 23222898 
3473.961 23110428 22997954 22887014 22779136 22675372 22576170 22481072 
3477.336 22389238 22299206 22209398 22118776 22026044 21930160 21830988 
3480.711 21728668 21624214 21519680 21416912 21318066 21224322 21135224 
3484.087 21049032 20963066 20874300 20780236 20679692 20572676 20460614 
3487.462 20345076 20228004 20111000 19994616 19879722 19766762 19656158 
3490.837 19548320 19442688 19338506 19234418 19128830 19020394 18908872 
3494.212 18794124 18677472 18559950 18442668 18326558 18211722 18098472 
3497.588 17987012 17877446 17769600 17663538 17558194 17452428 17344858 
3500.963 17234350 17120320 17003288 16884706 16766256 16649628 16536372 
3504.338 16427068 16322160 16220992 16122909 16027255 15932618 15838036 
3507.713 15742959 15646528 15548953 15451227 15354176 15259308 15167480 
3511.089 15078759 14992595 14908778 14826315 14745000 14665379 14587554 
3514.464 14511559 14437187 14362965 14287729 14210108 14129900 14047620 
3517.839 13964362 13881464 13800563 13721594 13644143 13566741 13488052 
3521.214 13406713 13322486 13236020 13148478 13061910 12978227 12898520 
3524.590 12823741 12753342 12686129 12619914 12552891 12482673 12408307 
3527.965 12329113 12246320 12161636 12077308 11995620 11918409 11846522 
3531.340 11779993 11718001 11659082 11601293 11542934 11482473 11418585 
3534.715 11351237 11281009 11209194 11137119 11066450 10997729 10931466 
3538.091 10867353 10805355 10745303 10687874 10633508 10582645 10534505 
3541.466 10487897 10440277 10389131 10332360 10268845 10198622 10123323 
3544.841 10044578 9964695 9885267 9807888 9733775 9663707 9598730 9538438 
3548.698 9481879 9427020 9370781 9310283 9243667 9171241 9094631 9018239 
3552.556 8945782 8880642 8824338 8776122 8733287 8693160 8652799 8610888 
3556.413 8566683 8519982 8470719 8419096 8364202 8305871 8244306 8180014 
3560.271 8114348 8049232 7985914 7925676 7868753 7814301 7760732 7705045 
3564.128 7643902 7573934 7491605 7395439 7286794 7169957 7052544 6943379 
3567.986 6849825 6776518 6723313 6687106 6661702 6641044 6620017 6594550 
3571.843 6562222 6522362 6475342 6422140 6364540 6304661 6244689 6186340 
3575.700 6130686 6077593 6026120 5974484 5921344 5865959 5809137 5752559 
3579.558 5698538 5648620 5604011 5564105 5527390 5492222 5457259 5421157 
3583.415 5383515 5342992 5297810 5245289 5182178 5106000 5016595 4916720 
3587.273 4813082 4714426 4629690 4565095 4522907 4500643 4493277 4493646 
3591.130 4494683 4490532 4476505 4449791 4409856 4357810 4296367 4229345 
3594.988 4161263 4096502 4038541 3990050 3951462 3921738 3898134 3876470 
3598.845 3852300 3821780 3782705 3735380 3682847 3628916 3578934 3536642 
3602.702 3503271 3478287 3458882 3441014 3420775 3394727 3360733 3317627 
3606.560 3265512 3205758 3141240 3075998 3014569 2961222 2918289 2885166 
3610.417 2858483 2833002 2803087 2764271 2715723 2659779 2602475 2550412 
3614.275 2509152 2481293 2465364 2456300 2447603 2432409 2404654 2361077 
3618.132 2301647 2230036 2153043 2078560 2015008 1967342 1937620 1923875 
3621.990 1922011 1926837 1934026 1941182 1947772 1955027 1963249 1970971 
3625.847 1972502 1958955 1918816 1842078 1725332 1577224 1418994 1278601 
3629.704 1180213 1133834 1133801 1164265 1206793 1246135 1271788 1280495 
3633.562 1274081 1257732 1237362 1217691 1200347 1185163 1170644 1155495 
3637.419 1139415 1123270 1107690 1093406 1079788 1065671 1049661 1031161 
3641.277 1010005 987920 967497 951093 940234 935784 935917 937943 937080 
3645.616 928579 907229 869777 813971 741244 655388 562084 468469 382601 
3649.956 311372 260942 235713 236442 260113 300928 349174 394208 425085 
3654.295 433078 413477 367844 304840 238763 183999 150984 142433 153934 
3658.635 176839 201568 221093 231337 231337 223314 210186 195335 181347 
3662.975 170474 164210 163978 170541 184098 203159 224706 244100 255571 
3667.314 252256 229016 182176 113233 29225 -56125 -125129 -163088 -162955 
3671.654 -128574 -72789 -14711 24917 28926 -13518 -102173 -221014 -340782 
3675.993 -430826 -472631 -465118 -422352 -363328 -306580 -262441 -234724 
3679.851 -221113 -216145 -213960 -210548 -204653 -196440 -185875 -172329 
3683.708 -153648 -128905 -98860 -68018 -43900 -35352 -50791 -94587 -164512 
3688.048 -251348 -340782 -418678 -474849 -505993 -514730 -505927 -484944 
3691.905 -455089 -419241 -379682 -339226 -301779 -271216 -250553 -240155 
3695.763 -238334 -240519 -241049 -236015 -223663 -205316 -186074 -172097 
3699.620 -169248 -180907 -206376 -241513 -278700 -309527 -327439 -329161 
3703.478 -315851 -291018 -260123 -228200 -198659 -173918 -154310 -139604 
3707.335 -130031 -126189 -129601 -142552 -167394 -204819 -253865 -310686 
3711.192 -369088 -421128 -459127 -477596 -474584 -451746 -413580 -365910 
3715.050 -315122 -265984 -222769 -187365 -160140 -140730 -127944 -120624 
3718.907 -118537 -121916 -131124 -145500 -163518 -182000 -197301 -206740 
3722.765 -208859 -205548 -200017 -197268 -200878 -212204 -229293 -246778 
3726.622 -257805 -256050 -238035 -204819 -161564 -115788 -76035 -49863 
3730.479 -41581 -51420 -75439 -107307 -139703 -168222 -193161 -218464 
3734.337 -249096 -288700 -334789 -380410 -415533 -430727 -422452 -393023 
3738.194 -348595 -296382 -241546 -186637 -132350 -79216 -30482 6560 20411 
3742.534 -2418 -71497 -185577 -325122 -456843 -542760 -561656 -516418 
3746.391 -428774 -326247 -234459 -172461 -150170 -168387 -218828 -288567 
3750.249 -362931 -430264 -483851 -519893 -535149 -527140 -494508 -439466 
3754.106 -367731 -288567 -212767 -148713 -102802 -77129 -70205 -77692 -94587 
3758.446 -116417 -139968 -162227 -179781 -188359 -184484 -166930 -138378 
3762.303 -104558 -73716 -53541 -48704 -59239 -79779 -102405 -118338 -123042 
3766.643 -116682 -104724 -94786 -93162 -103332 -123870 -149640 -173455 
3770.500 -188558 -191505 -182463 -164081 -140266 -115224 -91175 -69642 
3774.358 -50725 -33762 -18289 -4771 5699 10337 6162 -8946 -34955 -69211 
3779.179 -105717 -136292 -153880 -155039 -140233 -114827 -85609 -60266 
3783.037 -43469 -37472 -40686 -50062 -61492 -72126 -80442 -86438 -89850 
3787.376 -90645 -87597 -79613 -66660 -49963 -31840 -15175 -1855 8051 15838 
3792.198 23691 33002 43109 51493 54276 48378 33499 13320 -5135 -12988 -4307 
3797.502 21769 58783 96298 119829 116415 77805 4671 -90943 -187266 -258832 
3802.324 -286614 -265753 -205548 -124599 -43834 16534 42745 29655 -17196 
3806.664 -82264 -144572 -184153 -191472 -167493 -121849 -66362 -10867 39232 
3811.003 83472 124303 163878 202231 234983 254212 251361 220430 162188 86687 
3815.825 12922 -38201 -53176 -29720 21802 83837 135439 159602 145283 91790 
3820.647 10006 -78321 -147818 -180807 -171865 -128309 -65269 695 55635 91956 
3825.469 107632 107036 97756 89139 87350 94508 108660 125264 139417 148167 
3830.290 150786 149427 147802 149725 157481 172165 192153 214894 236309 
3834.630 251825 256798 246852 219038 173524 114592 49869 -9940 -54667 -78951 
3839.452 -81535 -66793 -41581 -13319 12789 33798 49770 62992 76413 93050 
3844.273 114725 142002 174154 209755 247150 284548 321950 359056 397226 
3848.613 437556 480344 523535 561919 585740 582091 537136 440375 291611 
3852.953 107036 -80143 -231777 -320519 -339590 -301249 -226279 -135728 
3856.810 -44099 39298 110317 168883 216054 253052 280769 299800 309980 
3861.150 311936 305702 291511 269562 240520 206374 171701 143858 130766 
3865.489 138522 167690 212474 261241 299137 313262 295755 247548 179921 
3869.829 112836 66604 53315 72569 113399 160597 199844 222618 228287 223414 
3874.651 218308 223181 244167 280868 328217 377262 418817 444256 448601 
3878.990 429928 391854 343304 295391 260379 247084 257262 285974 322812 
3883.330 354844 369535 358857 322779 270292 217977 182938 177634 203789 
3887.669 253748 313461 368242 405750 418386 405584 373249 332295 294827 
3892.009 270855 264954 277321 304111 340419 381606 423692 463593 498854 
3896.349 526553 544733 551634 546757 531463 508607 482931 458651 439314 
3900.688 425450 415500 405750 391821 370596 342177 309051 276724 251759 
3905.028 239890 243238 261307 290318 325730 362206 396066 425152 448833 
3909.367 467972 483661 497096 509502 521312 533022 544567 555814 565966 
3913.707 573663 577081 574360 564208 547056 524596 499982 477193 459580 
3918.047 448734 444853 446611 452084 460243 469862 480941 493016 504825 
3922.386 514876 520648 520648 514345 503432 491025 481107 477326 481041 
3926.726 491987 507512 523833 537501 545729 546989 541250 529406 513052 
3931.065 494508 476231 460807 451055 449264 456362 472184 494973 521511 
3935.405 548549 572933 592509 606809 616664 623698 629671 636042 642977 
3939.745 649813 655023 657180 654791 647822 637038 624030 611455 601401 
3944.084 595362 593836 595926 599709 603657 605582 605183 602463 598879 
3948.424 596092 595760 598780 605051 613744 623234 632425 640190 645931 
3952.763 649548 651041 650709 648785 645698 642513 640356 640688 644537 
3957.103 651937 662158 673341 683695 691096 694414 693186 688341 680941 
3961.443 672478 664182 657280 652335 650211 651240 655853 663717 674204 
3965.782 685952 697235 706428 712203 713962 712502 708419 703475 698563 
3970.122 695211 693618 693983 696107 699757 703873 708320 711771 713730 
3974.461 713796 711971 708718 704802 700952 697965 696505 696472 697899 
3978.801 700156 703176 706594 710544 714393 718276 722027 725512 729030 
3983.141 732581 736630 741576 747517 754620 762520 771017 779647 787813 
3987.480 794784 799730 802385 802086 799398 794618 789340 784958 782933 
3991.820 784095 788178 794418 801788 808958 815099 820178 824461 828245 
3996.159 832129 835881 838802 840429 840362 838636 835947 833324 831698 
4000.499 831897 
##END=
