
##TITLE=mdmaHCL00405_10
##JCAMP-DX=5.01  $$ Nicolet v. 1
##DATATYPE=INFRARED SPECTRUM
##ORIGIN=UniL
##OWNER=Nicolet
##LONGDATE=2011/08/23
##TIME=14:29:20
##SPECTROMETER/DATA SYSTEM=Nicolet iS5
##DATA PROCESSING=
Ratio against background
%Transmittance->Absorbance
Truncated
ElementMultiply or ElementDivide
##COMMENTS=
Number of sample scans: 32
Collection length: 51.21 sec
Sample gain: 2.0
Background collected on: Mar Aout 23 14:27:49 2011 (GMT+02:00);
Number of background scans: 32
Background gain: 2.0
Sample spacing:  1.000
Number of scan points: 12415
Resolution points: 8192
Number of FFT points: 65536
Apodization: N-B fort;
Phase correction: Mertz;
Laser frequency: 15798.0 cm-1
Number of rejected sample scans: 0
Number of rejected background scans: 0
Bench serial number: ASB1000141;
##RESOLUTION=4.000
##XUNITS=1/CM
##YUNITS=ABSORBANCE
##FIRSTX=649.893372
##LASTX=4000.122314
##FIRSTY=0.069430
##MAXX=4000.122314
##MINX=649.893372
##MAXY=0.185007
##MINY=-0.000919
##XFACTOR=1.000000
##YFACTOR=1.000000E-009
##NPOINTS=6950
##DELTAX=0.482117
##ZPD=6100
##XYDATA=(X++(Y..Y))
649.893 69429616 69270056 69164200 69117032 69118240 69150600 69196680 
653.268 69249448 69313272 69398672 69513328 69655864 69814952 69974248 
656.643 70121728 70254184 70379432 70508848 70650432 70802424 70952416 
660.018 71082936 71179104 71233800 71250312 71239696 71217128 71196440 
663.393 71188200 71197968 71224744 71260032 71283024 71257144 71127936 
666.767 70827424 70307512 69585352 68768616 68002768 67389000 66940636 
670.142 66607512 66315828 65997920 65610364 65134376 64577824 63963428 
673.517 63319312 62664656 62003620 61330724 60640012 59933504 59224312 
676.892 58532008 57872984 57255024 56674872 56121992 55586952 55068408 
680.267 54572568 54111744 53696256 53330196 53010160 52729220 52480540 
683.642 52261828 52075720 51925208 51809836 51722188 51648480 51572988 
687.016 51484868 51381620 51270796 51165212 51077060 51011136 50963480 
690.391 50922012 50874104 50810780 50731120 50640524 50548492 50463260 
693.766 50387308 50319256 50254524 50188872 50120928 50051948 49984284 
697.141 49919160 49855564 49790756 49722240 49650056 49576884 49507400 
700.516 49444348 49387248 49330560 49266348 49187080 49089164 48975212 
703.890 48851980 48728116 48609552 48497280 48387112 48273084 48149312 
707.265 48014028 47869536 47721472 47575344 47435432 47303476 47180496 
710.640 47069592 46977024 46911904 46883000 46894112 46939296 47000324 
714.015 47046808 47044040 46958676 46766048 46457624 46041064 45539376 
717.390 44984940 44418364 43884600 43427144 43092468 42922644 42947812 
720.765 43179964 43600236 44155144 44751604 45273780 45602928 45632704 
724.139 45303384 44611500 43615584 42417680 41143324 39914360 38815364 
727.514 37890484 37142432 36545872 36062592 35655988 35301976 34985928 
730.889 34701084 34443972 34209740 33992508 33788028 33593812 33411276 
734.264 33242804 33089414 32948770 32814994 32680258 32537852 32384996 
737.639 32223630 32058078 31893518 31733974 31580616 31433120 31291158 
741.013 31155364 31028262 30911834 30807246 30713280 30627050 30545068 
744.388 30465128 30386870 30312040 30242408 30178294 30118022 30058186 
747.763 29995058 29926896 29854274 29779818 29706546 29636054 29568162 
751.138 29500564 29431274 29360152 29289184 29222268 29162592 29112134 
754.513 29069620 29032422 28997494 28963454 28931826 28905548 28887806 
757.888 28879874 28881078 28889116 28902502 28922016 28951094 28995580 
761.262 29060480 29148666 29260156 29392238 29542554 29711726 29905882 
764.637 30136490 30423082 30791132 31268262 31883248 32657004 33592848 
768.012 34666052 35816980 36955296 37962616 38725772 39162060 39243908 
771.387 39015480 38584988 38103304 37708012 37492420 37471216 37579080 
774.762 37685716 37636424 37310260 36643276 35654836 34431060 33105184 
778.136 31815466 30668972 29734860 29033448 28548540 28242000 28071314 
781.511 28000662 28002782 28060816 28164462 28306184 28480536 28683414 
784.886 28912950 29168438 29451414 29763210 30105664 30480944 30892514 
788.261 31345610 31848126 32409344 33038322 33743656 34532896 35413224 
791.636 36393220 37483532 38696608 40045904 41541068 43184868 44968768 
795.010 46872188 48860764 50887552 52900672 54844588 56669360 58342284 
798.385 59854928 61232016 62528760 63829384 65228856 66804124 68597872 
801.760 70589536 72689136 74727160 76482792 77725808 78240800 77894136 
805.135 76660328 74637168 72022184 69072976 66059792 63184776 60561572 
808.510 58199664 56025592 53919860 51764816 49490800 47088496 44610032 
811.885 42141500 39782816 37616948 35692712 34028772 32615960 31429808 
815.259 30438828 29613314 28927186 28356866 27883276 27490254 27165658 
818.634 26902778 26698192 26551324 26461336 26425420 26438484 26495288 
822.009 26591584 26727086 26905352 27133102 27417262 27763062 28172062 
825.384 28641650 29165850 29734220 30333250 30946878 31555138 32138526 
828.759 32681010 33174918 33625104 34052316 34494728 35000080 35624656 
832.133 36425292 37445356 38709036 40205444 41883124 43637420 45313316 
835.508 46732872 47699096 48045336 47673544 46570292 44819816 42579336 
838.883 40060840 37475152 34999468 32767896 30850214 29264940 27992994 
842.258 26995182 26224894 25636280 25191384 24857378 24606588 24418640 
845.633 24278216 24176300 24109186 24075704 24074546 24102672 24154616 
849.008 24224120 24306774 24400766 24508030 24631764 24775496 24940574 
852.382 25126008 25329644 25549998 25787762 26045852 26328418 26639354 
855.757 26981256 27355220 27762494 28206818 28694742 29236976 29847566 
859.132 30541228 31334498 32245256 33291132 34491644 35861956 37406712 
862.507 39109812 40926896 42780720 44556828 46124844 47350548 48113888 
865.882 48339148 48001076 47133660 45819936 44183828 42370844 40515128 
869.256 38736456 37122080 35720336 34551016 33608852 32874890 32323458 
872.631 31928428 31667822 31521610 31474016 31511384 31622096 31797926 
876.006 32034394 32331702 32693904 33127568 33639100 34230532 34896764 
879.381 35622424 36383348 37144960 37866404 38508588 39036108 39425792 
882.756 39671784 39786732 39800352 39751112 39682492 39631672 39624192 
886.131 39674504 39786556 39957804 40184436 40463884 40795080 41177384 
889.505 41607612 42078928 42580100 43098212 43620016 44133796 44630592 
892.880 45102152 45540372 45936600 46281284 46565644 46784168 46934680 
896.255 47018892 47041604 47010328 46933684 46822212 46689116 46548680 
899.630 46415552 46302664 46217412 46161324 46129232 46112500 46101596 
903.005 46089732 46075508 46063020 46060512 46078088 46126724 46217116 
906.379 46358408 46559892 46829780 47174400 47598192 48102668 48686640 
909.754 49347708 50084004 50895596 51784972 52756304 53814156 54962916 
913.129 56206124 57548668 58998416 60567592 62273376 64135992 66173612 
916.504 68398904 70813816 73406408 76145312 78977384 81829288 84595960 
919.879 87149112 89348032 91041344 92104016 92460288 92106480 91126096 
923.254 89689376 88049280 86486768 85294504 84735968 84985936 86118792 
926.628 88078544 90691744 93667104 96637080 99237280 101121072 102035576 
930.003 101855696 100573192 98284640 95145448 91348688 87083672 82522512 
933.378 77831816 73157992 68634088 64385176 60510304 57085172 54160352 
936.753 51757052 49876676 48506356 47626028 47208788 47218544 47606876 
940.128 48300376 49198472 50184672 51122420 51880660 52355788 52475796 
943.502 52218216 51608100 50713204 49626544 48449492 47281640 46199208 
946.877 45253372 44469896 43851724 43387232 43057708 42844380 42731104 
950.252 42704636 42754908 42872032 43045888 43266708 43525216 43814556 
953.627 44130824 44471772 44836128 45221856 45625232 46041764 46466772 
957.002 46896880 47330672 47768144 48209732 48655244 49103484 49552856 
960.377 50002500 50453064 50906552 51365732 51831976 52304660 52781300 
963.751 53257676 53730788 54199428 54665040 55130396 55598100 56069476 
967.126 56543848 57019840 57496808 57976460 58462744 58961568 59478856 
970.501 60018868 60583932 61175060 61793508 62441292 63121660 63838444 
973.876 64594396 65390488 66226096 67100124 68012456 68964960 69960664 
977.251 71002152 72088752 73215408 74373064 75549080 76730936 77907816 
980.625 79069640 80207640 81311272 82367680 83363352 84286640 85130736 
984.000 85896568 86592352 87231448 87827880 88394608 88942136 89477848 
987.375 90009584 90545200 91092456 91657648 92243480 92847952 93465592 
990.750 94089792 94715752 95341920 95969280 96599488 97231448 97860504 
994.125 98478760 99077200 99649168 100191632 100705152 101191344 101650688 
997.500 102081056 102478824 102841272 103169440 103469904 103753648 
1000.392 104034080 104322664 104628600 104958336 105317448 105713136 
1003.285 106154104 106649528 107206152 107825760 108504128 109233128 
1006.178 110004792 110814992 111665824 112563704 113516936 114530920 
1009.070 115605552 116734840 117908576 119116608 120348608 121594768 
1011.963 122843672 124079384 125281784 126430960 127510208 128512800 
1014.856 129444048 130321336 131167952 132008824 132867232 133761568 
1017.748 134707696 135720976 136815008 138001984 139288816 140675616 
1020.641 142155088 143716176 145349264 147050912 148824832 150680672 
1023.534 152628672 154674208 156815264 159042528 161342544 163702176 
1026.427 166107424 168543104 170986480 173401200 175739584 177942608 
1029.320 179944944 181686736 183112272 184170512 184816736 185006640 
1032.213 184701088 183875408 182525792 180676864 178378864 175705664 
1035.106 172741552 169568000 166267632 162916752 159585920 156348864 
1037.999 153274496 150423872 147851216 145594800 143680000 142121232 
1040.892 140920800 140069152 139536464 139270272 139184032 139156368 
1043.785 139052608 138727200 138055472 136961728 135423216 133479256 
1046.678 131213440 128745200 126202224 123699480 121338856 119191944 
1049.571 117299384 115675784 114310352 113174320 112225784 111422168 
1052.464 110723432 110097768 109524584 108990448 108485504 108000904 
1055.357 107524992 107044088 106545632 106017808 105451296 104838776 
1058.250 104171912 103440968 102636304 101750512 100782328 99739080 98637280 
1061.626 97498624 96346392 95202952 94085552 93007552 91980000 91010616 
1065.001 90104696 89262520 88476848 87731608 87002944 86264944 85492344 
1068.376 84667792 83785160 82848952 81873416 80877000 79881704 78908280 
1071.751 77974584 77095976 76283016 75539856 74864456 74248904 73680552 
1075.127 73144504 72628080 72121728 71620080 71120480 70621736 70121568 
1078.502 69617360 69106464 68588680 68067992 67552800 67054728 66585580 
1081.877 66156560 65776036 65450272 65184848 64985616 64859264 64813136 
1085.252 64852880 64982080 65201560 65509988 65905584 66386320 66950224 
1088.628 67593288 68306408 69074960 69877488 70688368 71484384 72247048 
1092.003 72967064 73644472 74286096 74901032 75496488 76075392 76636456 
1095.378 77176080 77691528 78184504 78663056 79143144 79645728 80192808 
1098.753 80802800 81480520 82211936 82956024 83651048 84214264 84555344 
1102.129 84599104 84292832 83621528 82609952 81318696 79831888 78238416 
1105.504 76628824 75078976 73643576 72360304 71245432 70297816 69502096 
1108.879 68832976 68259640 67747784 67266320 66787704 66288428 65751432 
1112.254 65163636 64516120 63805172 63033312 62209516 61347856 60467264 
1115.630 59587620 58725300 57893956 57101952 56353412 55650752 54995028 
1119.005 54386596 53824996 53308060 52831288 52387788 51969648 51568736 
1122.380 51177104 50787164 50390544 49976180 49531316 49041160 48491612 
1125.755 47873312 47183120 46426356 45615480 44768940 43908320 43053572 
1129.131 42223108 41430752 40684844 39989008 39341876 38738416 38170700 
1132.506 37629740 37107788 36599008 36101548 35617500 35151956 34711636 
1135.881 34302920 33931272 33599756 33309952 33062634 32858304 32698120 
1139.256 32583174 32514426 32492216 32515712 32583460 32693334 32843794 
1142.632 33033244 33259902 33521648 33815428 34137148 34482172 34845996 
1146.007 35224496 35614512 36012764 36416068 36821544 37225960 37627284 
1149.382 38024780 38419492 38813624 39209308 39608152 40010372 40415004 
1152.757 40820524 41225292 41628324 42028700 42425352 42816296 43197676 
1156.133 43564992 43912644 44234524 44524664 44776580 44982880 45135644 
1159.508 45226748 45248152 45193584 45058592 44840352 44537408 44148908 
1162.883 43674644 43115812 42475664 41760972 40981220 40149108 39278432 
1166.258 38382248 37473308 36562308 35658576 34771468 33909204 33079940 
1169.634 32291296 31549048 30857436 30218644 29633782 29102922 28626430 
1173.009 28205086 27839856 27532014 27282356 27090710 26956330 26878562 
1176.384 26856742 26891604 26984642 27138958 27357726 27644786 28004302 
1179.759 28440700 28958956 29565182 30265072 31064562 31968728 32981298 
1183.135 34104892 35340292 36685564 38133400 39667936 41264020 42881576 
1186.510 44468100 45964996 47306208 48429560 49284388 49830960 50048308 
1189.885 49934100 49505432 48795328 47849600 46724460 45475464 44155696 
1193.260 42813076 41483936 40196536 38971076 37819408 36747908 35758116 
1196.635 34847716 34011608 33242770 32534494 31880394 31275668 30717866 
1200.011 30205572 29738196 29314776 28933314 28591006 28284612 28010452 
1203.386 27765604 27547512 27352962 27177792 27016444 26861218 26704642 
1206.761 26539384 26360704 26166470 25958116 25739312 25515174 25291924 
1210.136 25076194 24874256 24693488 24541124 24424144 24349210 24321526 
1213.512 24344164 24418676 24545472 24723862 24952928 25231448 25557272 
1216.887 25927268 26337606 26783858 27261964 27768960 28303532 28865496 
1220.262 29455422 30073882 30721530 31399210 32108914 32853804 33637452 
1223.637 34463592 35333680 36246280 37196068 38174640 39171196 40172804 
1227.013 41165692 42134816 43062904 43933032 44728832 45437056 46050640 
1230.388 46569700 47001984 47361044 47666332 47941648 48212616 48510136 
1233.763 48867480 49318236 49897676 50637692 51563548 52694952 54043148 
1237.138 55611956 57398664 59394360 61582840 63938320 66427208 69005896 
1240.514 71622920 74227360 76769088 79202744 81492184 83604168 85508112 
1243.889 87176768 88581632 89696256 90497768 90964768 91079384 90827808 
1247.264 90201224 89199696 87834376 86129256 84117136 81834048 79315568 
1250.639 76588824 73674392 70589888 67354072 63994408 60550524 57070436 
1254.015 53612388 50238308 47003644 43959612 41145036 38582672 36281544 
1257.390 34236268 32430944 30841572 29441166 28203530 27103160 26119458 
1260.765 25235944 24439356 23720578 23072374 22488434 21963200 21490886 
1264.140 21065588 20682264 20336256 20024352 19744500 19494738 19273208 
1267.516 19077760 18905756 18754786 18623478 18511814 18420958 18352618 
1270.891 18308586 18289716 18296352 18328458 18386492 18471778 18587096 
1274.266 18735586 18920154 19142542 19401872 19693844 20009362 20335352 
1277.641 20653352 20940846 21175406 21335502 21405982 21380990 21265068 
1281.017 21072264 20821634 20535260 20232932 19928840 19633312 19351360 
1284.392 19085964 18839208 18613518 18411276 18234942 18085864 17964600 
1287.767 17870818 17804498 17765354 17753306 17767252 17804602 17861288 
1291.142 17932692 18013812 18101926 18196762 18300186 18415322 18545496 
1294.518 18693140 18859798 19046600 19254784 19486628 19744882 20032472 
1297.893 20352018 20705512 21094736 21521838 21988888 22497438 23046170 
1301.268 23629044 24232738 24838466 25421188 25954564 26416088 26787874 
1304.643 27061370 27237092 27323850 27337506 27297880 27228236 27150772 
1308.019 27084750 27045570 27041656 27075510 27143860 27239632 27354550 
1311.394 27480440 27610676 27740066 27863740 27977408 28075874 28153856 
1314.769 28206924 28231286 28224144 28183908 28109314 27999638 27855436 
1318.144 27679040 27475604 27252438 27019512 26786146 26560518 26348206 
1321.520 26151338 25970428 25805272 25656210 25525188 25415740 25330944 
1324.895 25274222 25247990 25253714 25293292 25368914 25482460 25634664 
1328.270 25823206 26042508 26282936 26533570 26783786 27025012 27252508 
1331.645 27464380 27660252 27839786 28001404 28142012 28258832 28348978 
1335.021 28411162 28446288 28456336 28444910 28416078 28375472 28330410 
1338.396 28289632 28263642 28263252 28296740 28369598 28482658 28633544 
1341.771 28817518 29029410 29264762 29518650 29787164 30066070 30351622 
1345.146 30641770 30936844 31239314 31551648 31874120 32200936 32518890 
1348.521 32806132 33034458 33175562 33203174 33099536 32858770 32487250 
1351.897 32003574 31434902 30816706 30185326 29574830 29016126 28531062 
1355.272 28133246 27827740 27612688 27481816 27426578 27439602 27514046 
1358.647 27643338 27821026 28038726 28287122 28558238 28846730 29151784 
1362.022 29477158 29829750 30215446 30635440 31084458 31550188 32015168 
1365.398 32456792 32850624 33171594 33394172 33497882 33469968 33308234 
1368.773 33021658 32628640 32152514 31615074 31035058 30426174 29797134 
1372.148 29156532 28515244 27888328 27296610 26762466 26303636 25929590 
1375.523 25638950 25421572 25264074 25155850 25093254 25081354 25133380 
1378.899 25268708 25512714 25891888 26434082 27163966 28094360 29216882 
1382.274 30489510 31837858 33149704 34290192 35128600 35539928 35432528 
1385.649 34764328 33558984 31916198 29995944 27999036 26106156 24442160 
1389.024 23067938 21983344 21152618 20523936 20048120 19683234 19396120 
1392.400 19164044 18971066 18807860 18671832 18565724 18495324 18465692 
1395.775 18478346 18529624 18612030 18715694 18830974 18951234 19073016 
1399.150 19197638 19329048 19472246 19630504 19803800 19988302 20178122 
1402.525 20366152 20545926 20713886 20869086 21013140 21148792 21277628 
1405.901 21400308 21516162 21625362 21729888 21834228 21944276 22066166 
1409.276 22204168 22359936 22532650 22721002 22923688 23141182 23374764 
1412.651 23625650 23893062 24174478 24466102 24764832 25070540 25386830 
1416.026 25720856 26081844 26479228 26920334 27408332 27940128 28503782 
1419.402 29080000 29643502 30168738 30632028 31016090 31312700 31524178 
1422.777 31667322 31773008 31885102 32047342 32292794 32636750 33074826 
1426.152 33591664 34169016 34795052 35462944 36168740 36907604 37670788 
1429.527 38447148 39229000 40016112 40818192 41649948 42526560 43456364 
1432.903 44440460 45473440 46551188 47676428 48860656 50122412 51479756 
1436.278 52940080 54489244 56096656 57727524 59350900 60943156 62478368 
1439.653 63924268 65230548 66330344 67155224 67635600 67715800 67362616 
1443.028 66563712 65332100 63703440 61741860 59531184 57163628 54740844 
1446.404 52355564 50088428 48009808 46167516 44582676 43243172 42110212 
1449.779 41128972 40245612 39427024 38667344 37989448 37430980 37029840 
1453.154 36805424 36750864 36833052 37001408 37202928 37386196 37519472 
1456.529 37601412 37665804 37765440 37948440 38246136 38668360 39212720 
1459.905 39871536 40632996 41479340 42382388 43306536 44202424 45007172 
1463.280 45656112 46086268 46257476 46167296 45856352 45394604 44854132 
1466.655 44297484 43766140 43282556 42859268 42500108 42201488 41950264 
1470.030 41723328 41489516 41215236 40878184 40481012 40057280 39661476 
1473.406 39348840 39157888 39100672 39173012 39364404 39666556 40074720 
1476.781 40585192 41190280 41874108 42612632 43379320 44145460 44888480 
1480.156 45596744 46269492 46918804 47565324 48235684 48956292 49753188 
1483.531 50654524 51689608 52890008 54282508 55878904 57662928 59575608 
1486.906 61519468 63350088 64890040 65959656 66386052 66044360 64893460 
1490.282 62992476 60496364 57608744 54540936 51455136 48445564 45559064 
1493.657 42802732 40172184 37678160 35351900 33250068 31443164 29991328 
1497.032 28925204 28238500 27899918 27865434 28090860 28539978 29179884 
1500.407 29978762 30905250 31923078 32993022 34075968 35122672 36074832 
1503.783 36860968 37378976 37501560 37087720 36023424 34294244 32037356 
1507.158 29515034 26992714 24641688 22515096 20589942 18820698 17172954 
1510.533 15631964 14204562 12907702 11754392 10750058 9888081 9153983 
1513.908 8530086 7998739 7543758 7148735 6799001 6484087 6200053 5951373 
1517.766 5746918 5593337 5489202 5422231 5370029 5309080 5222652 5112638 
1521.623 4999803 4914575 4878519 4894067 4946379 5012539 5073280 5117835 
1525.481 5148546 5177080 5218292 5281074 5364863 5461822 5563366 5665472 
1529.338 5770589 5885069 6014899 6160058 6313469 6462798 6595189 6705310 
1533.196 6800212 6898266 7018869 7173931 7361299 7569146 7780803 7980582 
1537.053 8158270 8306715 8422271 8502107 8543602 8545157 8509406 8447575 
1540.910 8376971 8314247 8268923 8238700 8210740 8167757 8096253 7992293 
1544.768 7864739 7731420 7612204 7519080 7452165 7400865 7350178 7288479 
1548.625 7211358 7124921 7041869 6976341 6935433 6917657 6914257 6915233 
1552.483 6914930 6913887 6918802 6938564 6979708 7042812 7121351 7204384 
1556.340 7279347 7331745 7345629 7306169 7206810 7061267 6904191 6780355 
1560.198 6719645 6726644 6788130 6883117 6990584 7092352 7176963 7241005 
1564.055 7289321 7333396 7386069 7456547 7545781 7647375 7750140 7843989 
1567.912 7922403 7984766 8036304 8086531 8145475 8220769 8316509 8433724 
1571.770 8571719 8727606 8896537 9071015 9239639 9389876 9511614 9601745 
1575.627 9668348 9730082 9809650 9921065 10065942 10235564 10417503 10601387 
1579.485 10780899 10954945 11124813 11292809 11459645 11624707 11786189 
1582.860 11942623 12093900 12240902 12383896 12521276 12648943 12761156 
1586.235 12852306 12919717 12965084 12995092 13019640 13049754 13096126 
1589.610 13166307 13265739 13397487 13562673 13759110 13980410 14215004 
1592.986 14445443 14650266 14809893 14907716 14935526 14894754 14796112 
1596.361 14655783 14492203 14323582 14164885 14028523 13925289 13863674 
1599.736 13850812 13891077 13985544 14132228 14327725 14567440 14847470 
1603.111 15162471 15505204 15863948 16222024 16559364 16853324 17081720 
1606.487 17226904 17276342 17225490 17077448 16841990 16533172 16166136 
1609.862 15758248 15327265 14891942 14472299 14085164 13741292 13443656 
1613.237 13186013 12955150 12733280 12503645 12252967 11977703 11686992 
1616.612 11402597 11151635 10955931 10825567 10757564 10739835 10755696 
1619.988 10787250 10819554 10840243 10843640 10831377 10813372 10803589 
1623.363 10815342 10856617 10927049 11020193 11127125 11240408 11354910 
1626.738 11467912 11577880 11683146 11781695 11872095 11954679 12031863 
1630.113 12107834 12186647 12270042 12356384 12439197 12508419 12551118 
1633.489 12553061 12502144 12391839 12226724 12024369 11812235 11618343 
1636.864 11459305 11337292 11242754 11161256 11077055 10977645 10856413 
1640.239 10713446 10555553 10392967 10236751 10093784 9964865 9844594 
1643.614 9722525 9586502 9424143 9227388 8994795 8734672 8465414 8211011 
1647.472 7996039 7836095 7736851 7693409 7693510 7719986 7750005 7756347 
1651.329 7705584 7564459 7316210 6983244 6631960 6337272 6142213 6043255 
1655.187 6010800 6011169 6019199 6020173 6007440 5981371 5945024 5902870 
1659.044 5857832 5810380 5758669 5699277 5628580 5543934 5445817 5338329 
1662.901 5229695 5129971 5048976 4992798 4962298 4953115 4956701 4962398 
1666.759 4958109 4932773 4879558 4796632 4689238 4568577 4449991 4347168 
1670.616 4269597 4220244 4196256 4189999 4189765 4182740 4155810 4098610 
1674.474 4009279 3896997 3781435 3683648 3618625 3588289 3583612 3590126 
1678.331 3594570 3589592 3575594 3559859 3551708 3557721 3576228 3596073 
1682.188 3597911 3560894 3469570 3326442 3156125 2998154 2886233 2831101 
1686.046 2823530 2843841 2873425 2898208 2909649 2905213 2886233 2856715 
1689.903 2823264 2793716 2776042 2776242 2796718 2834570 2881497 2923659 
1693.761 2945009 2932699 2882264 2803754 2722124 2667346 2656778 2689417 
1697.618 2746432 2801487 2824731 2792683 2697752 2556778 2409785 2297983 
1701.476 2244857 2247655 2287458 2340655 2387896 2415483 2417149 2394359 
1705.333 2354913 2311008 2272902 2246822 2233600 2230469 2233234 2238163 
1709.190 2243692 2250253 2259246 2272535 2290689 2312873 2337491 2361943 
1713.048 2384164 2403455 2419714 2432709 2441072 2440606 2425645 2391327 
1716.905 2336891 2269071 2201762 2151978 2131133 2143320 2183612 2242093 
1720.763 2307510 2369872 2423313 2465464 2498021 2524516 2549612 2577043 
1724.620 2608575 2644677 2684549 2726459 2767973 2806422 2838672 2862652 
1728.478 2878262 2888268 2897974 2913018 2936769 2966693 2994017 3002524 
1732.335 2972598 2887667 2743397 2556444 2362842 2204626 2108458 2076729 
1736.192 2093675 2135695 2181414 2213151 2221278 2204226 2168394 2125073 
1740.050 2086351 2060815 2051161 2055222 2068539 2086584 2106327 2126438 
1743.907 2146517 2167462 2189207 2211886 2234499 2256082 2275300 2290489 
1747.765 2300015 2301681 2293053 2271769 2236065 2186610 2127670 2066775 
1751.622 2014043 1978393 1964247 1970771 1991774 2017372 2036280 2039776 
1755.479 2022631 1986748 1940250 1895155 1862709 1848067 1849498 1858982 
1759.337 1866669 1862542 1840680 1800553 1747454 1690604 1640113 1604095 
1763.194 1585704 1584307 1595481 1613606 1632197 1645301 1648561 1640179 
1767.052 1622386 1600902 1583376 1576326 1581314 1594184 1605225 1603263 
1770.909 1578687 1528708 1459419 1386418 1327055 1293588 1288903 1307214 
1774.767 1338356 1372657 1404035 1431194 1455330 1478635 1501876 1523288 
1778.624 1539249 1546598 1544070 1534028 1521593 1512482 1510288 1515142 
1782.481 1523953 1532366 1536456 1534693 1528675 1521958 1518135 1519930 
1786.339 1528509 1543106 1562925 1587101 1614304 1642840 1668717 1687011 
1790.196 1691136 1675835 1639514 1585937 1524652 1467099 1423615 1399149 
1794.054 1392767 1399182 1412346 1427205 1440769 1452338 1462145 1470756 
1797.911 1477372 1480630 1478935 1471354 1458189 1441766 1425211 1411648 
1801.769 1403603 1402074 1406329 1415271 1427571 1441400 1455330 1468495 
1805.626 1480098 1489840 1497753 1503804 1508193 1510687 1510753 1507727 
1809.483 1501310 1492001 1480963 1470290 1462311 1458322 1458821 1462976 
1813.341 1469060 1475377 1480863 1485218 1489042 1493663 1499748 1507927 
1817.198 1517536 1527810 1537719 1546897 1555476 1564521 1575595 1589661 
1821.056 1607553 1628539 1651055 1672043 1688741 1698321 1700217 1696458 
1824.913 1691402 1690936 1699485 1718712 1746124 1776132 1801152 1814560 
1828.771 1813429 1799488 1779725 1763656 1760263 1773537 1802682 1842144 
1832.628 1885038 1925672 1960785 1989610 2013943 2036313 2058285 2080724 
1836.485 2103397 2126172 2150080 2177818 2212885 2258946 2318536 2391028 
1840.343 2473462 2560344 2644977 2720457 2781445 2825631 2855214 2877194 
1844.200 2900876 2936035 2988245 3057111 3136534 3218009 3291552 3349347 
1848.058 3387180 3404245 3402775 3386245 3357795 3318896 3269885 3210765 
1851.915 3141841 3065653 2986343 2908415 2835237 2768473 2706987 2648777 
1855.772 2591475 2533814 2476261 2419614 2364275 2310142 2255615 2199231 
1859.630 2140523 2081157 2024196 1973533 1932395 1901344 1879247 1863507 
1863.487 1851661 1842444 1835989 1832694 1832328 1832661 1829334 1817388 
1867.345 1793266 1756603 1711460 1665225 1625845 1599439 1587899 1589029 
1871.202 1598275 1611411 1624448 1635290 1642874 1646565 1645568 1639281 
1875.060 1627208 1610214 1589728 1568046 1546265 1525749 1505633 1484587 
1878.917 1461779 1437245 1411847 1387614 1365976 1347130 1330578 1314393 
1882.774 1297178 1278601 1259692 1242513 1229155 1220815 1216395 1214302 
1886.632 1211976 1206992 1198187 1185894 1170545 1153833 1137455 1123137 
1890.489 1112906 1108820 1111942 1122639 1139814 1160412 1180512 1197024 
1894.347 1207358 1211411 1210780 1207922 1204401 1200978 1197257 1191708 
1898.204 1184399 1175030 1165229 1156491 1150079 1145628 1142438 1139149 
1902.062 1135296 1131475 1129383 1130645 1136326 1145927 1157554 1169083 
1905.919 1178618 1184731 1186957 1184897 1177787 1164863 1146458 1122971 
1909.776 1097824 1074938 1058629 1051255 1053580 1063146 1077031 1092676 
1913.634 1108620 1125230 1143435 1162206 1178518 1187721 1184565 1166358 
1917.491 1135894 1099984 1068627 1049495 1045343 1052285 1062947 1067431 
1921.349 1059260 1037605 1006485 973607 947207 932032 928313 932929 941795 
1925.688 951425 961586 972910 986459 1001935 1017079 1028438 1033287 1030431 
1930.028 1020566 1006518 991108 975666 961221 948004 936150 927384 924030 
1934.367 927350 936482 948370 957966 960557 954778 941629 925458 911379 
1938.707 900920 892022 879837 857061 819880 769357 712103 658972 620812 
1943.047 604288 609265 630667 659105 686217 707424 720898 727669 730822 
1947.386 732448 733809 736365 740680 746853 755450 765440 774104 778817 
1951.726 776062 763714 741742 712336 677821 640854 603491 564905 525724 
1956.065 485486 444986 406612 372354 342906 317805 294993 272712 249637 
1960.405 227524 207534 191556 180386 172629 166132 160464 154730 149526 
1964.745 146046 143096 136566 123077 97822 61070 18091 -21801 -49135 -56721 
1969.566 -44198 -18389 11033 33897 43275 39265 24784 4307 -18587 -43171 
1974.388 -71298 -101974 -131621 -153052 -157159 -137120 -94222 -35352 26574 
1978.728 78998 114692 133683 140776 143792 149161 158409 170375 182772 
1983.067 192916 201103 209789 220231 233724 248775 262766 273541 281763 
1987.407 289389 299237 314091 332959 352357 368275 377991 382104 386183 
1991.747 396795 418817 454007 497328 541018 578109 603524 616233 619119 
1996.086 615967 608402 596723 579071 553558 520715 484922 450923 424190 
2000.426 407143 396928 389035 376897 355740 324503 285112 240056 192684 
2004.765 144985 98154 54608 19516 -2186 -5732 10106 39895 72834 97458 104053 
2010.069 89537 59048 21570 -11894 -33397 -41713 -40123 -33530 -26440 -20244 
2014.891 -11795 1722 21106 45296 71078 93680 113200 131893 153901 183634 
2019.713 222021 265319 308255 343835 368739 383762 393810 402068 412681 
2024.052 424986 434903 437888 432117 417557 397624 377693 360581 347682 
2028.392 339823 335479 336109 345128 364959 397259 441702 492584 543771 
2032.732 590485 630534 665874 701350 741974 789638 844014 900555 954413 
2037.071 1003297 1045941 1082877 1115862 1145196 1169947 1189881 1204500 
2040.929 1214435 1223107 1233574 1247364 1265208 1285247 1304655 1321738 
2044.786 1337059 1351650 1368701 1390839 1417897 1449811 1486016 1525483 
2048.644 1569609 1620025 1676334 1737008 1797392 1852327 1897051 1929866 
2052.501 1951433 1965778 1977994 1990975 2005888 2022432 2037878 2050928 
2056.358 2062147 2073167 2086417 2103631 2123441 2142787 2158404 2167662 
2060.216 2169859 2167662 2164798 2164231 2167928 2175554 2184345 2192471 
2064.073 2198265 2201429 2202794 2203493 2203627 2203427 2202328 2200696 
2067.931 2199964 2202794 2210021 2222676 2238995 2255382 2268472 2276366 
2071.788 2278731 2278231 2278497 2282495 2291821 2305911 2322367 2338856 
2075.646 2353914 2366807 2378134 2389595 2401223 2413450 2426312 2439273 
2079.503 2452735 2467597 2484025 2501954 2520783 2538547 2553978 2567077 
2083.360 2578309 2589275 2601408 2614842 2628442 2640477 2648744 2651744 
2087.218 2650344 2645910 2640643 2636376 2633843 2631843 2629009 2624075 
2091.075 2616209 2605675 2594142 2582109 2570910 2560777 2552378 2546546 
2094.933 2544713 2547945 2556944 2571476 2589142 2607442 2623642 2635643 
2098.790 2643077 2646744 2647744 2647511 2647944 2649444 2653778 2662579 
2102.647 2677481 2699385 2728693 2763138 2799786 2835804 2869156 2899309 
2106.505 2928129 2957352 2988245 3020641 3052273 3080002 3102627 3119914 
2110.362 3134565 3150418 3171812 3200451 3236635 3277296 3318762 3357962 
2114.220 3393291 3423848 3450866 3475114 3496023 3513092 3525718 3533368 
2118.077 3537310 3539882 3543256 3549904 3561162 3576429 3595037 3616153 
2121.935 3638472 3661661 3685353 3708578 3730400 3749918 3766662 3781034 
2125.792 3795039 3810114 3827329 3846617 3865872 3881953 3892417 3896261 
2129.649 3894155 3889174 3884894 3884426 3890143 3902547 3920534 3942669 
2133.507 3967011 3990986 4012622 4028608 4035163 4030180 4012489 3982927 
2137.364 3944842 3903516 3862630 3826259 3795574 3769871 3748548 3730701 
2141.222 3715729 3703866 3695110 3687692 3679605 3668311 3650768 3626310 
2145.079 3595505 3559625 3519973 3477586 3431462 3380401 3324004 3262607 
2148.937 3198181 3134699 3073428 3015303 2959520 2904012 2845909 2785246 
2152.794 2721191 2653711 2582142 2503553 2413150 2309842 2193902 2072101 
2156.651 1957191 1864872 1807739 1793998 1820283 1876452 1949269 2026726 
2160.509 2101966 2175287 2249354 2325298 2403088 2478393 2544846 2597275 
2164.366 2632509 2649844 2651744 2643077 2626776 2606875 2586642 2568343 
2168.224 2554045 2546079 2543579 2544812 2545912 2541713 2527848 2502987 
2172.081 2467430 2424679 2379300 2335259 2295652 2263043 2237830 2220378 
2175.938 2211253 2209188 2211653 2215849 2217181 2211753 2198731 2179849 
2179.796 2159303 2143586 2137493 2143054 2159070 2181481 2204160 2223675 
2183.653 2238229 2247189 2253284 2258213 2262843 2267373 2271736 2274301 
2187.511 2275333 2274667 2271936 2267639 2262043 2255316 2248887 2244891 
2191.368 2244957 2250786 2262776 2279097 2297084 2314805 2330162 2343620 
2195.226 2356712 2370538 2385764 2402022 2417615 2430843 2441972 2451702 
2199.083 2461865 2474128 2489024 2504153 2517484 2525549 2527015 2523683 
2202.940 2518684 2515984 2519317 2528815 2542513 2557144 2569177 2575876 
2206.798 2577476 2575676 2572043 2568610 2566510 2566043 2567843 2572843 
2210.655 2582176 2596642 2617175 2641277 2667080 2692117 2714022 2732527 
2214.513 2749533 2765938 2783512 2801920 2819295 2833002 2841573 2844075 
2218.370 2842307 2839305 2838038 2840639 2848077 2859083 2871391 2883265 
2222.228 2892571 2898341 2901043 2901277 2900042 2899375 2900843 2905213 
2226.085 2913485 2924360 2935935 2945709 2951847 2952948 2950580 2947611 
2229.942 2946643 2950446 2959220 2971163 2983541 2993750 3000089 3003859 
2233.800 3007529 3014002 3025713 3043364 3065086 3088578 3111471 3131829 
2237.657 3149818 3166472 3182426 3198214 3214203 3228924 3241509 3251757 
2241.515 3258801 3262440 3262841 3259436 3252325 3243045 3233698 3227555 
2245.372 3228690 3239906 3261906 3293755 3331216 3369348 3403510 3430427 
2249.229 3448729 3459917 3465629 3468802 3471707 3476350 3483130 3493117 
2253.087 3506144 3521510 3538112 3555148 3570616 3583678 3593234 3598746 
2256.944 3599982 3597042 3589425 3577264 3561496 3542755 3523414 3506578 
2260.802 3494353 3489142 3491714 3501267 3515931 3534070 3553411 3572687 
2264.659 3591229 3608168 3622735 3634630 3643250 3648563 3651470 3652840 
2268.517 3653608 3654878 3656248 3656950 3656415 3653976 3649899 3645589 
2272.374 3642515 3641713 3644119 3649264 3656014 3663699 3671920 3680374 
2276.231 3689897 3700390 3711518 3722614 3732272 3739491 3744337 3747411 
2280.089 3749684 3752959 3758641 3766863 3777826 3790995 3805769 3821513 
2283.946 3837992 3853670 3867444 3878175 3884226 3885128 3881484 3873895 
2287.804 3864535 3854807 3846115 3839028 3834282 3831741 3831775 3834950 
2291.661 3841603 3851431 3864669 3879345 3894356 3907863 3919030 3926853 
2295.519 3931936 3934276 3934610 3933741 3932771 3932471 3934510 3939993 
2299.376 3949422 3962563 3978246 3994063 4007539 4016502 4019946 4017773 
2303.233 4011787 4003627 3995768 3990251 3988043 3989816 3995601 4004798 
2307.091 4016970 4031116 4046166 4060748 4074193 4085832 4095699 4104797 
2310.948 4113862 4123830 4135572 4149153 4164273 4180499 4197092 4213385 
2314.806 4229512 4245171 4260596 4275787 4290980 4305570 4319390 4331839 
2318.663 4341645 4348674 4352489 4353426 4352522 4351351 4350614 4351016 
2322.521 4351518 4349878 4344122 4332643 4314672 4292050 4267757 4244769 
2326.378 4226702 4215393 4210809 4211746 4216163 4221583 4226668 4230984 
2330.235 4234464 4237475 4240453 4243197 4245807 4249052 4253804 4261533 
2334.093 4273813 4290980 4312798 4338199 4365039 4391480 4416685 4439815 
2337.950 4460938 4480120 4497161 4511657 4523208 4532349 4539279 4545808 
2341.808 4552003 4557460 4560373 4557929 4547750 4529603 4506334 4483803 
2345.665 4470378 4474329 4501044 4552438 4626509 4717742 4819347 4923758 
2349.522 5023735 5113510 5188246 5245356 5284696 5308074 5318371 5319612 
2353.380 5314849 5305860 5293316 5277418 5258536 5237877 5217789 5200788 
2357.237 5188951 5184122 5186570 5195456 5210110 5228487 5248709 5269335 
2361.095 5288251 5303646 5314246 5319981 5321893 5322531 5324375 5329943 
2364.952 5340208 5354867 5371740 5389285 5405456 5418808 5429947 5438738 
2368.810 5445683 5451353 5456051 5459708 5463365 5468029 5474270 5483196 
2372.667 5494538 5507054 5520074 5532894 5545646 5560379 5579207 5604111 
2376.524 5636032 5674367 5717104 5761557 5805779 5848025 5888461 5928128 
2380.382 5968135 6009960 6054308 6101047 6149606 6199212 6248858 6297332 
2384.239 6343896 6387236 6426377 6461150 6491688 6518864 6544461 6569320 
2388.097 6594179 6618637 6641280 6660289 6674522 6683606 6688182 6689999 
2391.954 6691211 6693331 6697302 6703257 6710526 6718602 6726947 6735394 
2395.812 6744278 6753802 6764100 6775509 6788331 6803006 6820339 6841175 
2399.669 6865815 6894091 6925569 6958765 6992941 7027119 7061233 7095517 
2403.526 7131085 7168407 7208326 7251011 7296498 7344752 7396147 7450480 
2407.384 7508224 7569314 7633751 7701200 7771290 7843314 7916363 7989526 
2411.241 8061924 8132511 8200813 8266391 8329344 8390044 8448386 8503898 
2415.099 8556173 8603994 8646579 8683762 8716180 8744814 8771084 8795936 
2418.956 8819368 8840840 8859845 8875739 8889300 8901983 8915173 8930223 
2422.813 8947372 8965637 8983531 9000207 9015092 9029876 9047265 9070068 
2426.671 9101060 9141665 9191479 9249218 9313330 9382394 9455668 9533222 
2430.528 9614719 9699993 9788130 9878420 9970255 10064213 10160496 10260872 
2434.386 10366430 10478088 10595343 10717792 10844047 10972650 11102888 
2437.761 11234559 11367358 11501865 11638525 11777916 11920860 12068179 
2441.136 12219704 12375202 12533553 12692815 12851112 13007451 13161217 
2444.511 13313398 13465564 13619355 13775903 13935792 14097965 14261192 
2447.887 14424068 14584881 14742532 14896434 15045588 15189577 15328260 
2451.262 15461665 15590372 15715543 15838174 15958672 16077314 16192893 
2454.637 16304409 16410448 16510317 16603531 16690291 16770974 16845504 
2458.012 16913986 16975620 17029442 17074724 17110050 17134038 17145378 
2461.388 17142518 17124490 17091612 17045640 16989644 16928008 16865276 
2464.763 16805034 16749931 16701000 16658409 16622430 16593512 16572893 
2468.138 16562359 16563393 16577195 16603978 16643740 16695835 16760264 
2471.513 16837480 16927628 17030648 17145310 17269310 17399518 17533078 
2474.889 17667612 17801426 17934314 18065622 18194308 18318574 18435752 
2478.264 18542936 18637936 18719084 18786304 18840074 18881150 18909632 
2481.639 18925898 18929532 18920222 18898384 18865128 18822220 18771636 
2485.014 18715868 18656786 18596054 18535156 18474544 18414390 18354174 
2488.390 18292308 18226994 18156578 18079370 17995094 17903930 17806638 
2491.765 17704054 17596906 17484644 17366824 17242384 17110670 16971590 
2495.140 16825940 16674004 16516272 16352780 16183022 16006317 15822882 
2498.515 15633306 15439074 15242183 15044182 14846441 14649683 14454075 
2501.891 14259342 14066101 13874929 13686611 13502716 13323955 13151006 
2505.266 12984577 12825072 12673198 12530041 12396306 12272121 12157070 
2508.641 12049953 11948889 11852753 11760588 11672288 11588838 11510916 
2512.016 11438825 11372664 11311819 11255233 11202767 11154423 11111012 
2515.392 11073554 11043236 11019785 11002691 10990525 10981553 10974281 
2518.767 10968301 10963237 10959839 10959228 10962421 10970305 10983898 
2522.142 11003098 11028180 11058871 11094457 11134128 11177065 11221604 
2525.517 11265706 11307704 11345081 11375453 11397495 11410046 11413245 
2528.893 11408414 11397189 11381780 11363788 11344060 11322804 11299781 
2532.268 11274650 11247072 11217558 11186618 11154694 11122162 11089257 
2535.643 11055302 11020703 10985461 10950596 10917297 10886752 10859743 
2539.018 10836574 10816905 10800124 10785382 10772543 10760723 10749685 
2542.394 10738816 10726962 10712801 10695956 10676090 10654051 10631301 
2545.769 10609434 10589469 10571985 10556538 10542042 10527410 10512101 
2549.144 10496112 10480599 10466377 10454464 10445334 10438750 10433794 
2552.519 10429857 10426192 10422119 10417266 10411870 10405456 10398532 
2555.895 10391032 10383261 10375863 10369143 10363205 10358319 10353805 
2559.270 10348749 10342268 10333582 10321808 10306912 10289066 10268506 
2562.645 10245775 10221384 10195704 10169349 10142825 10116540 10091138 
2566.020 10067400 10045901 10027251 10012399 10001210 9993616 9989208 
2569.396 9987072 9986293 9986868 9988259 9991276 9996803 10005720 10018231 
2573.253 10034507 10053191 10072893 10091987 10109282 10124171 10137364 
2576.628 10149371 10161513 10174979 10190515 10208425 10229017 10252458 
2580.003 10278379 10307048 10338434 10372232 10408374 10445809 10483790 
2583.379 10521266 10557386 10591676 10624408 10656428 10689028 10723771 
2586.754 10762217 10804676 10850842 10899629 10948591 10995996 11040653 
2590.129 11081949 11120700 11158503 11196240 11235171 11275466 11316309 
2593.504 11356508 11395148 11431511 11465462 11497817 11529425 11561207 
2596.880 11593671 11626885 11660749 11694753 11728384 11761133 11793271 
2600.255 11824969 11856602 11889428 11924198 11961900 12003318 12048794 
2603.630 12097954 12150425 12205458 12262067 12319875 12378544 12438038 
2607.005 12498394 12559814 12622063 12685276 12749316 12814151 12879952 
2610.381 12946889 13014416 13082466 13150698 13218121 13284768 13350367 
2613.756 13414813 13477867 13539188 13597884 13653033 13704188 13750697 
2617.131 13792902 13831861 13868737 13904282 13939488 13974114 14007717 
2620.506 14039680 14069420 14096699 14121925 14145681 14168445 14190902 
2623.882 14213326 14235854 14258453 14281051 14303343 14325122 14346218 
2627.257 14366150 14384953 14402797 14420540 14438797 14458836 14480966 
2630.632 14505324 14531396 14558155 14584539 14610067 14634398 14657839 
2634.007 14680973 14704176 14727930 14752336 14776949 14801563 14825939 
2637.383 14849630 14872328 14894136 14914471 14933434 14950753 14966941 
2640.758 14982683 14998802 15016261 15035846 15058280 15083836 15112653 
2644.133 15144664 15179592 15217201 15257283 15299291 15342470 15386409 
2647.508 15430558 15474884 15519283 15563961 15609193 15655495 15702935 
2650.884 15751308 15800476 15850373 15900686 15951455 16003052 16055413 
2654.259 16108913 16163867 16220203 16278023 16337367 16397888 16459450 
2657.634 16521949 16585354 16649835 16716046 16784370 16855184 16928248 
2661.009 17003288 17078964 17154132 17227594 17298478 17366824 17433078 
2664.385 17498306 17563854 17630654 17699360 17770186 17843266 17917742 
2667.760 17993748 18070838 18148564 18227272 18306824 18387494 18469564 
2671.135 18553102 18637970 18723892 18810248 18896482 18982212 19066956 
2674.510 19151060 19235316 19320458 19406792 19494842 19584436 19675052 
2677.885 19766312 19858494 19951630 20046386 20143692 20243696 20346152 
2681.261 20450750 20556764 20663638 20771650 20881184 20993632 21110214 
2684.636 21231766 21358402 21490330 21626302 21765350 21906846 22050096 
2688.011 22195032 22341726 22490842 22642802 22798342 22957782 23121332 
2691.386 23288998 23460264 23634744 23811502 23990430 24170974 24353170 
2694.762 24537092 24722704 24910150 25099292 25289780 25481546 25675016 
2698.137 25870400 26068544 26270230 26475636 26684486 26895940 27108450 
2701.512 27320570 27530848 27738548 27943202 28145230 28344592 28541748 
2704.887 28736620 28928674 29116988 29300456 29477726 29647724 29809876 
2708.263 29963602 30109036 30246280 30375572 30497436 30612580 30721280 
2711.638 30823962 30921510 31014240 31102682 31186834 31266372 31340268 
2715.013 31407688 31467318 31518192 31559878 31592090 31615182 31629436 
2718.388 31635530 31634032 31625766 31611726 31593230 31571708 31549118 
2721.764 31527098 31507540 31492184 31482636 31480358 31486840 31503264 
2725.139 31530484 31568788 31617892 31677086 31745452 31822350 31907282 
2728.514 31999900 32100246 32208108 32323420 32445264 32572922 32704872 
2731.889 32840472 32978508 33118200 33258866 33399324 33538972 33676408 
2735.265 33810880 33941988 34069268 34192712 34312564 34428656 34540720 
2738.640 34648796 34752372 34851596 34947108 35039840 35130900 35221944 
2742.015 35314484 35409452 35508212 35611204 35718936 35831692 35949808 
2745.390 36073176 36201872 36335580 36473936 36616236 36760888 36905840 
2748.766 37048388 37185316 37313616 37430980 37535732 37627500 37706604 
2752.141 37773896 37830108 37875584 37910476 37934304 37946596 37947284 
2755.516 37936292 37913512 37879056 37832312 37772308 37698072 37608240 
2758.891 37501992 37378976 37239064 37082704 36910168 36722376 36519996 
2762.267 36304348 36077100 35840652 35597248 35350064 35101660 34854936 
2765.642 34612588 34377260 34151092 33936720 33735996 33550606 33381686 
2769.017 33229570 33093922 32974362 32870066 32780510 32705158 32643680 
2772.392 32595638 32560352 32536708 32523424 32518782 32520674 32527066 
2775.768 32535996 32545424 32553386 32557816 32556638 32547850 32529674 
2779.143 32500286 32458582 32403774 32336056 32256320 32166288 32068282 
2782.518 31964842 31858716 31751904 31646260 31543274 31443310 31346746 
2785.893 31253270 31162378 31072784 30982890 30890842 30794192 30691374 
2789.269 30580688 30461430 30333820 30198752 30057796 29912804 29766190 
2792.644 29619984 29476520 29338068 29206038 29082160 28967634 28863124 
2796.019 28769332 28686920 28616202 28557778 28512096 28479756 28460936 
2799.394 28455842 28464050 28485206 28518924 28564570 28621654 28689432 
2802.770 28767064 28853386 28946842 29045848 29148702 29253918 29360294 
2806.145 29466308 29571354 29674296 29774070 29870066 29961152 30046860 
2809.520 30125906 30197686 30260206 30312360 30351940 30376744 30385734 
2812.895 30377844 30352688 30311436 30255410 30186534 30106870 30018810 
2816.271 29924518 29826662 29728330 29632506 29542802 29463116 29396776 
2819.646 29347072 29316550 29306340 29317046 29348632 29399542 29468506 
2823.021 29553228 29651166 29759626 29875428 29995128 30115110 30232072 
2826.396 30342810 30444620 30536004 30615496 30682342 30736218 30776656 
2829.771 30803226 30816068 30815176 30801234 30775660 30740308 30697206 
2833.147 30648632 30596724 30543006 30488728 30434882 30381860 30329840 
2836.522 30278502 30227134 30174884 30120722 30064400 30006276 29947840 
2839.897 29891188 29838834 29794014 29758456 29734184 29722440 29723542 
2843.272 29738478 29768108 29813850 29877344 29960584 30064968 30191078 
2846.648 30338510 30505042 30686218 30875758 31065416 31245510 31406406 
2850.023 31539354 31637880 31698294 31720322 31706814 31662580 31593944 
2853.398 31507824 31410716 31308606 31206808 31109196 31019008 30938162 
2856.773 30867468 30806464 30753752 30707484 30665452 30625522 30585666 
2860.149 30543716 30497686 30445722 30385734 30315948 30234842 30141250 
2863.524 30034824 29915750 29785248 29644638 29496592 29345086 29193386 
2866.899 29046662 28909444 28785864 28679628 28593908 28530424 28490018 
2870.274 28472540 28476362 28498580 28535024 28580848 28630394 28678850 
2873.650 28722282 28758180 28786254 28806576 28820172 28827678 28829414 
2877.025 28824600 28813092 28794538 28769544 28739698 28706920 28672938 
2880.400 28639562 28607390 28576780 28547798 28520588 28495572 28473706 
2883.775 28455876 28442680 28434544 28431362 28433024 28439532 28450782 
2887.151 28466738 28487612 28512874 28541464 28572286 28603534 28633898 
2890.526 28662462 28688938 28713044 28735204 28755948 28775278 28793618 
2893.901 28811320 28829060 28847862 28868720 28893084 28922016 28956476 
2897.276 28996750 29042554 29093428 29148168 29205292 29263664 29321798 
2900.652 29378766 29434040 29487654 29539644 29590330 29639246 29685934 
2904.027 29728864 29766688 29797880 29821978 29838870 29849482 29855304 
2907.402 29858320 29860130 29862544 29867334 29875640 29888914 29908758 
2910.777 29936302 29972584 30017850 30071112 30130310 30192324 30253030 
2914.153 30307386 30350698 30378592 30387688 30376458 30344444 30293210 
2917.528 30225322 30143842 30052150 29953200 29849162 29741424 29630732 
2920.903 29517160 29400854 29281848 29160536 29037628 28914402 28792096 
2924.278 28672618 28557778 28449368 28348518 28256180 28172382 28096412 
2927.654 28027064 27962638 27901154 27840740 27779662 27716758 27651742 
2931.029 27585220 27518530 27454214 27395380 27345058 27306596 27282496 
2934.404 27274206 27282462 27307196 27347280 27401486 27468262 27545748 
2937.779 27632180 27725870 27825408 27929456 28037312 28148376 28262262 
2941.155 28378336 28495644 28612346 28726282 28834336 28932784 29017720 
2944.530 29084568 29128538 29145512 29131338 29083082 29000186 28884372 
2947.905 28740266 28575046 28397508 28217284 28042614 27880380 27734276 
2951.280 27606086 27494806 27398592 27315204 27242982 27180544 27127706 
2954.656 27084432 27050508 27025790 27009392 27000402 26997720 27000542 
2958.031 27008160 27020464 27037742 27060170 27087924 27121006 27158850 
2961.406 27200686 27245770 27293188 27342376 27392944 27444578 27497066 
2964.781 27550268 27603474 27655592 27705738 27752784 27795734 27834486 
2968.156 27868968 27900094 27929068 27957336 27986420 28017802 28052298 
2971.532 28090366 28131548 28175104 28219512 28263430 28305548 28344946 
2974.907 28381342 28414840 28445722 28474166 28499746 28520870 28535660 
2978.282 28541464 28535554 28516164 28482518 28434722 28374304 28303532 
2981.657 28224708 28140352 28052724 27963168 27873314 27783830 27695002 
2985.033 27606510 27517118 27424708 27326920 27220934 27105240 26979176 
2988.408 26843384 26699532 26549456 26394364 26233868 26066222 25888826 
2991.783 25698884 25494794 25277066 25048566 24813768 24577904 24345812 
2995.158 24120430 23902936 23691884 23484642 23278268 23069826 22857536 
2998.534 22640848 22420464 22197752 21974526 21752774 21534026 21319492 
3001.909 21109934 20905798 20707180 20514000 20326046 20143240 19965612 
3005.284 19793362 19626968 19467084 19314186 19168928 19031542 18901604 
3008.659 18778278 18660210 18545702 18432988 18320924 18208612 18096192 
3012.035 17984458 17874098 17766112 17661332 17559608 17460636 17364410 
3015.410 17270620 17179606 17092370 17009422 16931452 16858388 16789536 
3018.785 16723450 16658993 16595269 16532138 16470291 16410688 16354432 
3022.160 16302448 16254770 16210502 16169162 16130131 16093371 16059814 
3025.536 16031105 16008656 15994148 15988236 15990607 15999924 16013710 
3028.911 16028974 16042039 16049292 16047437 16033752 16006593 15965238 
3032.286 15910070 15842538 15764432 15677892 15585425 15489065 15391147 
3035.661 15294143 15199872 15110115 15026070 14947838 14874626 14805266 
3039.037 14738213 14671788 14605716 14539687 14474526 14411190 14350807 
3042.412 14293823 14240682 14191039 14144071 14099197 14055765 14013056 
3045.787 13971138 13929942 13890016 13852112 13817050 13785685 13758837 
3049.162 13736675 13718721 13704324 13692116 13681037 13669890 13657684 
3052.538 13643836 13627868 13609782 13589406 13567219 13543906 13520251 
3055.913 13497247 13476091 13456985 13440444 13426159 13413753 13402887 
3059.288 13393558 13385938 13380435 13377497 13377497 13380709 13387373 
3062.663 13397521 13411395 13429371 13451072 13476124 13503809 13532761 
3066.039 13561818 13589885 13616107 13640280 13662129 13681379 13697553 
3069.414 13709796 13717558 13720158 13718003 13711745 13702444 13691057 
3072.789 13678233 13663941 13648007 13630535 13611389 13591901 13573475 
3076.164 13557647 13545375 13536932 13531326 13527189 13522917 13517311 
3079.540 13510031 13501110 13491129 13480534 13469768 13458693 13447040 
3082.915 13435147 13423186 13412148 13402818 13396121 13392259 13391234 
3086.290 13392327 13394514 13397077 13399230 13400802 13401896 13402887 
3089.665 13404664 13407636 13413139 13421579 13433506 13448954 13467273 
3093.041 13487711 13509210 13530642 13551529 13571663 13590910 13610056 
3096.416 13629680 13650092 13671600 13694374 13718106 13742592 13767387 
3099.791 13792287 13816777 13840721 13863777 13886287 13908763 13931618 
3103.166 13955432 13980547 14006861 14033930 14061309 14088552 14115353 
3106.542 14142087 14168924 14196619 14225686 14256466 14288926 14322965 
3109.917 14358273 14394337 14430850 14467435 14503577 14538934 14573094 
3113.292 14605612 14636626 14665824 14693723 14720286 14745994 14770607 
3116.667 14794569 14817916 14840613 14862659 14883987 14904870 14925273 
3120.042 14945574 14966117 14987416 15009744 15033513 15058451 15084248 
3123.418 15109737 15134404 15157255 15178014 15197092 15215519 15234359 
3126.793 15254915 15278252 15304714 15333992 15365366 15397635 15429426 
3130.168 15459708 15487657 15512999 15536316 15558603 15581270 15605998 
3133.543 15633957 15665868 15701560 15740005 15779758 15819136 15856730 
3136.919 15892129 15925229 15956851 15987789 16018935 16050633 16082540 
3140.294 16114347 16145192 16174391 16201938 16228251 16254047 16280603 
3143.669 16309191 16340429 16374903 16412580 16453048 16495483 16539022 
3147.044 16583048 16626734 16669942 16712569 16754547 16796150 16837480 
3150.420 16878814 16920016 16960978 17001358 17040954 17079378 17116426 
3153.795 17152446 17187950 17224042 17261828 17302342 17346100 17393208 
3157.170 17442734 17493164 17543050 17590938 17635588 17677308 17716480 
3160.545 17754446 17792658 17832220 17874374 17919674 17968192 18019582 
3163.921 18073428 18128940 18184978 18240852 18295764 18348954 18400214 
3167.296 18449478 18496636 18541760 18585056 18626212 18665642 18703656 
3170.671 18740844 18778278 18817374 18858864 18903368 18951302 19001978 
3174.046 19054492 19107638 19160062 19210728 19258834 19304108 19346578 
3177.422 19386904 19425814 19464244 19502986 19542704 19583846 19627002 
3180.797 19672350 19720194 19770508 19823256 19877918 19933834 19989758 
3184.172 20044476 20097464 20148552 20198394 20248172 20299416 20352992 
3187.547 20409318 20468290 20528798 20590116 20651476 20712462 20773492 
3190.923 20834670 20896134 20957710 21019052 21079570 21138948 21197672 
3194.298 21256020 21314794 21374934 21436614 21499940 21564980 21632120 
3197.673 21701568 21773886 21848968 21926326 22005026 22083318 22159640 
3201.048 22233150 22303984 22373016 22442166 22513072 22586988 22664306 
3204.424 22744324 22826000 22908040 22989256 23068636 23145724 23220346 
3207.799 23292462 23362524 23431832 23501184 23572262 23645836 23721978 
3211.174 23800022 23878150 23954612 24028388 24099170 24168034 24236838 
3214.549 24307370 24380752 24456812 24534428 24612198 24688858 24764234 
3217.925 24838854 24913974 24990934 25070330 25151918 25234960 25318298 
3221.300 25401198 25483234 25564934 25646824 25729646 25813256 25897550 
3224.675 25982036 26066010 26149334 26232214 26315006 26398236 26482114 
3228.050 26566822 26651968 26737058 26821250 26903836 26984112 27061792 
3231.426 27136912 27210352 27282886 27355750 27429930 27506140 27584372 
3234.801 27664174 27744622 27824738 27903982 27982462 28060356 28138372 
3238.176 28216894 28295858 28375118 28454498 28533644 28612628 28691804 
3241.551 28771348 28851510 28932428 29014000 29096048 29179068 29263594 
3244.927 29350652 29441308 29536312 29635770 29739118 29845258 29953058 
3248.302 30061596 30170336 30279000 30387512 30496156 30605114 30714524 
3251.677 30824390 30934960 31046554 31159424 31273604 31389094 31505472 
3255.052 31622346 31739212 31855472 31970798 32085046 32198046 32309390 
3258.427 32419484 32528318 32636176 32744136 32852552 32962390 33074040 
3261.803 33187364 33302080 33417612 33533104 33647908 33761312 33873132 
3265.178 33983444 34092344 34200740 34309408 34419364 34531212 34645280 
3268.553 34760808 34876980 34991928 35103888 35211672 35314520 35412936 
3271.928 35508356 35602032 35695840 35790820 35887616 35986236 36086356 
3275.304 36187576 36289648 36392324 36495704 36599940 36705248 36811736 
3278.679 36919476 37028832 37139656 37251628 37364388 37477212 37588908 
3282.054 37699012 37807260 37914128 38020840 38129168 38241032 38357888 
3285.429 38480636 38609072 38742144 38878048 39015048 39151324 39286196 
3288.805 39419332 39551492 39683908 39817204 39952496 40090272 40230340 
3292.180 40372532 40516948 40663488 40812476 40964032 41118080 41273932 
3295.555 41430680 41587296 41743024 41898228 42053736 42211388 42373040 
3298.930 42540304 42713592 42892436 43075492 43260924 43447428 43633936 
3302.306 43820824 44008924 44199676 44393924 44593028 44796968 45005260 
3305.681 45217560 45433080 45651328 45872628 46097248 46326000 46559744 
3309.056 46799036 47044000 47294164 47548836 47807428 48069540 48335520 
3312.431 48606068 48882496 49165484 49455748 49752892 50056300 50364872 
3315.807 50677720 50994556 51315388 51640568 51970508 52305108 52643744 
3319.182 52986012 53331064 53678444 54028212 54379648 54732308 55084956 
3322.557 55436084 55784288 56129156 56470676 56809932 57148324 57486524 
3325.932 57824112 58159768 58490988 58815132 59130596 59436492 59733244 
3329.308 60021492 60301748 60573992 60836764 61088820 61328244 61553556 
3332.683 61763444 61956728 62132360 62289208 62426144 62543072 62640624 
3336.058 62719972 62782756 62830316 62862672 62878488 62875880 62852680 
3339.433 62807456 62740488 62653064 62546784 62424080 62285692 62131712 
3342.809 61961312 61773260 61565812 61338244 61089852 60819912 60528472 
3346.184 60215528 59881776 59528904 59159000 58774956 58379504 57975172 
3349.559 57563196 57144804 56720404 56290192 55854632 55413608 54966784 
3352.934 54513776 54053392 53585548 53110680 52631024 52149728 51670948 
3356.310 51198836 50735884 50283428 49840924 49406960 48979664 48557748 
3359.685 48140760 47729052 47323392 46924420 46532596 46147984 45770120 
3363.060 45398944 45034552 44677452 44327760 43986008 43652516 43327368 
3366.435 43011132 42704048 42406680 42119340 41842144 41574316 41315108 
3369.811 41062792 40815572 40571912 40330572 40090744 39852648 39616608 
3373.186 39383524 39154804 38931500 38714396 38503772 38298824 38098060 
3376.561 37899556 37701432 37502536 37302644 37102732 36904108 36708424 
3379.936 36516860 36329240 36145116 35963380 35782904 35603184 35424440 
3383.312 35246996 35071880 34899280 34729148 34561136 34394760 34229452 
3386.687 34065108 33901544 33739036 33577452 33416930 33257220 33098030 
3390.062 32939476 32781546 32624320 32468040 32313104 32159616 32007746 
3393.437 31857468 31708844 31561662 31415772 31270434 31125890 30981750 
3396.813 30838974 30698308 30561136 30428024 30299426 30174174 30050694 
3400.188 29927002 29801180 29672204 29540284 29406810 29272738 29139596 
3403.563 29007944 28877076 28745822 28613124 28478024 28340810 28202362 
3406.938 28064034 27927338 27793474 27662654 27534732 27409320 27285214 
3410.313 27161884 27038554 26915048 26791258 26667540 26544278 26422250 
3413.689 26302086 26184174 26068650 25955196 25843074 25731262 25618952 
3417.064 25505370 25390378 25274188 25156972 25039232 24921134 24803104 
3420.439 24685106 24567420 24450186 24333862 24218514 24104704 23992706 
3423.814 23882980 23775908 23671870 23571142 23474114 23380498 23289978 
3427.190 23201854 23114868 23028002 22940490 22851564 22760876 22668600 
3430.565 22575156 22481490 22388332 22296832 22207900 22121878 22038872 
3433.940 21958460 21879978 21802594 21725778 21649394 21573302 21497780 
3437.315 21422482 21347194 21270530 21191338 21108198 21020166 20926800 
3440.691 20829212 20728276 20626110 20524838 20425744 20330144 20237482 
3444.066 20146642 20055580 19961658 19862690 19757574 19646382 19530712 
3447.441 19413306 19297420 19185758 19079526 18978750 18881738 18786166 
3450.816 18689716 18591004 18489548 18386250 18282562 18180176 18080442 
3454.192 17983836 17890154 17798942 17709164 17619888 17530422 17440046 
3457.567 17348410 17254760 17158994 17060836 16960668 16859282 16757920 
3460.942 16658235 16561741 16469706 16382542 16300417 16221853 16145399 
3464.317 16069166 15991397 15911343 15828690 15744025 15658345 15572753 
3467.693 15487864 15403952 15320537 15237173 15153413 15068914 14984020 
3471.068 14898903 14814110 14729712 14646016 14562747 14479904 14398105 
3474.443 14318342 14241538 14169164 14102175 14040398 13983251 13929224 
3477.818 13876126 13821462 13763078 13699263 13628928 13552759 13471955 
3481.194 13389491 13308273 13231306 13160671 13096569 13038008 12982358 
3484.569 12926850 12868484 12805859 12738295 12666512 12591569 12514831 
3487.944 12437493 12359725 12282006 12204470 12126881 12049509 11971845 
3491.319 11893616 11814210 11732775 11649109 11563656 11477506 11391883 
3494.695 11307976 11226976 11148745 11073010 10998919 10925995 10853968 
3498.070 10783514 10714601 10647565 10581492 10515087 10446657 10375150 
3501.445 10299516 10220332 10138755 10057125 9977714 9902454 9832426 9768001 
3505.302 9708193 9651748 9596122 9539589 9479881 9415677 9347184 9275383 
3509.160 9202511 9131277 9064046 9002000 8945444 8893223 8843410 8794515 
3513.017 8745254 8695222 8644214 8592773 8540899 8488390 8434534 8378794 
3516.875 8320900 8260920 8199496 8138317 8078598 8021622 7968331 7919029 
3520.732 7873174 7829820 7787617 7744777 7699885 7652366 7602155 7549827 
3524.590 7496931 7444446 7393080 7342764 7292353 7240870 7187136 7131051 
3528.447 7073559 7016142 6961257 6910654 6865545 6825758 6790182 6756662 
3532.304 6722976 6686770 6645990 6599966 6548666 6493201 6435760 6378696 
3536.162 6324496 6274977 6230303 6190676 6154109 6119395 6085154 6050982 
3540.019 6016948 5983622 5951642 5920940 5890745 5859611 5825928 5787915 
3543.877 5744534 5695215 5640597 5582127 5521685 5462459 5407603 5359597 
3547.734 5320082 5288620 5262896 5239252 5213598 5182613 5144892 5101306 
3551.592 5054608 5008752 4967091 4931030 4900200 4872454 4845313 4816801 
3555.449 4786381 4754254 4720958 4686927 4651593 4613616 4571859 4526054 
3559.306 4477007 4427329 4379766 4336525 4299011 4266954 4238646 4211981 
3563.164 4185115 4155575 4122024 4082086 4033691 3974735 3904720 3825323 
3567.021 3741496 3660358 3588857 3532266 3491581 3464627 3445857 3429258 
3570.879 3410122 3385210 3354556 3319363 3282137 3244981 3208962 3173615 
3574.736 3137803 3100191 3060081 3017371 2973399 2929096 2886233 2845676 
3578.594 2807689 2772274 2739096 2707954 2678982 2652611 2629842 2611609 
3582.451 2598275 2589642 2584009 2578343 2568077 2548179 2514118 2462365 
3586.308 2393493 2311274 2223043 2138225 2065776 2011546 1977162 1960453 
3590.166 1956425 1959055 1962483 1962383 1955660 1941248 1919282 1891028 
3594.023 1858349 1822779 1786612 1750947 1716550 1684250 1653683 1624781 
3597.881 1596978 1569708 1542208 1514211 1485650 1457325 1430131 1405598 
3601.738 1384689 1367937 1355306 1346233 1339685 1334666 1329382 1322236 
3605.595 1310770 1292625 1265474 1228357 1182140 1130313 1078359 1032390 
3609.453 996090 970785 953583 939570 923001 900024 869611 834752 800991 
3613.792 773971 757740 752695 755682 760926 762088 753458 731320 694879 
3618.132 645333 587034 525591 467043 416926 379019 354380 341779 338430 
3622.472 340884 345990 352921 362471 376433 397027 423891 452780 476098 
3626.811 481837 457988 397193 301326 184827 70813 -17328 -66428 -76566 
3631.151 -58510 -26804 4771 26773 35189 31379 20411 7819 -2219 -8217 -11663 
3636.455 -15738 -23259 -35717 -52845 -72690 -93030 -111812 -128011 -141525 
3640.794 -152654 -161597 -168553 -172362 -171898 -165903 -154211 -136921 
3644.652 -115854 -94322 -76466 -66196 -68217 -85477 -119630 -170242 -234525 
3648.991 -307375 -381999 -450786 -505761 -540642 -552159 -540775 -511453 
3652.849 -471274 -430231 -397625 -381635 -387329 -414871 -458101 -506754 
3656.706 -549875 -579293 -591702 -590047 -579756 -567414 -557950 -553912 
3660.564 -555666 -561788 -570292 -579194 -586904 -592529 -594746 -593058 
3664.421 -586275 -574032 -556229 -534222 -510262 -488088 -472664 -469255 
3668.279 -482858 -516054 -566785 -627039 -683216 -720994 -729793 -707564 
3672.136 -660455 -602058 -549842 -519826 -526147 -573568 -654798 -749110 
3675.993 -831596 -883249 -898724 -885267 -856432 -826371 -803849 -792108 
3679.851 -789330 -791083 -792075 -789363 -782649 -772892 -761712 -749375 
3683.708 -734887 -716660 -694364 -669817 -647453 -633160 -633028 -650596 
3687.566 -686226 -734490 -787412 -836127 -874321 -899584 -913604 -918795 
3691.423 -917869 -911818 -901304 -886060 -867509 -847304 -827958 -811423 
3695.281 -798987 -789892 -782517 -774347 -763465 -749209 -732373 -715370 
3699.138 -701146 -693306 -693504 -702436 -718678 -738988 -759033 -775042 
3702.995 -784104 -784567 -776828 -761944 -741767 -718248 -693206 -668031 
3706.853 -644277 -623598 -607849 -599246 -600205 -612547 -637627 -675045 
3710.710 -722383 -775174 -826933 -871081 -901601 -914827 -910231 -890094 
3714.568 -858912 -822138 -785229 -753079 -729164 -714477 -708688 -709383 
3718.425 -713617 -718579 -722482 -725393 -727775 -730554 -734424 -739088 
3722.282 -743685 -746828 -748085 -747919 -747919 -749937 -755527 -764358 
3726.140 -773917 -780334 -778316 -764160 -737169 -699856 -657510 -617411 
3729.997 -586606 -569895 -568439 -579161 -595606 -609768 -616319 -615227 
3733.855 -611157 -611819 -624326 -651621 -690593 -733200 -769055 -790983 
3737.712 -795978 -785692 -763234 -731711 -692710 -646526 -594051 -538922 
3741.570 -488055 -453136 -447807 -482825 -560597 -668163 -778614 -858978 
3745.427 -888342 -865393 -804874 -728635 -656088 -603150 -577738 -581014 
3749.284 -607485 -649008 -696515 -743983 -788238 -826437 -854646 -868336 
3753.142 -863872 -840426 -801666 -754336 -706836 -665748 -635542 -617411 
3756.999 -609966 -610793 -617609 -630017 -647751 -669553 -692115 -709317 
3760.857 -715304 -705843 -681826 -648578 -614599 -589452 -579194 -585448 
3764.714 -603812 -625947 -642424 -647287 -639843 -624690 -609139 -599775 
3768.572 -600768 -611819 -628693 -644608 -653739 -652713 -641332 -622208 
3772.429 -599213 -576083 -555832 -539550 -527140 -517245 -508144 -498017 
3776.286 -486267 -474286 -464919 -461874 -467964 -484050 -507780 -533494 
3780.144 -554442 -565594 -565097 -555302 -541569 -530549 -527240 -533693 
3784.001 -548386 -566520 -582867 -592992 -595705 -592396 -586705 -582139 
3787.859 -581212 -584687 -591238 -598683 -604010 -604672 -598849 -584984 
3791.716 -563178 -534586 -502253 -470612 -445027 -430231 -429602 -442279 
3795.573 -463926 -486598 -501028 -500333 -482296 -451117 -414971 -385442 
3799.431 -374319 -389779 -434302 -501227 -575951 -638553 -672497 -670810 
3803.288 -637263 -583859 -526114 -480277 -458597 -467203 -504106 -558214 
3807.146 -613010 -651853 -665087 -652184 -620190 -578367 -535347 -495998 
3811.003 -460782 -427152 -392196 -355051 -318433 -289097 -275488 -284958 
3814.861 -320155 -375180 -435858 -484215 -505993 -495733 -459061 -408847 
3818.718 -362368 -335418 -339491 -378126 -444960 -522739 -589915 -629620 
3822.575 -634814 -610132 -566785 -519330 -479780 -455718 -449131 -456281 
3826.433 -469421 -479780 -480343 -468759 -447443 -421426 -396764 -378656 
3830.290 -369552 -369287 -375147 -382364 -387031 -385740 -376934 -361176 
3834.148 -340848 -319526 -302044 -293435 -297441 -316712 -350085 -393454 
3838.005 -439565 -480839 -511255 -528265 -532501 -527339 -517047 -505463 
3841.863 -495137 -487327 -482031 -478159 -473856 -467468 -457274 -441915 
3845.720 -420995 -394943 -364222 -329657 -291415 -249195 -202004 -149607 
3849.577 -93129 -37075 10106 36680 28728 -26042 -132217 -280422 -445126 
3853.917 -593621 -698400 -748382 -748647 -713187 -657874 -594613 -531674 
3857.774 -473558 -421790 -377563 -341510 -313632 -293865 -281382 -274925 
3861.632 -272872 -275223 -282905 -297706 -319923 -347834 -375246 -393487 
3865.489 -394645 -374518 -336081 -288567 -246049 -222239 -227538 -264163 
3869.347 -324592 -391898 -446318 -474948 -475014 -454328 -425861 -402458 
3873.204 -392063 -395572 -407423 -417851 -417586 -400836 -367797 -323234 
3877.062 -275223 -232075 -200812 -186272 -189485 -208131 -235651 -263799 
3880.919 -283832 -289892 -280654 -259825 -235088 -216046 -211641 -227935 
3884.776 -264594 -314460 -364255 -400538 -412720 -398916 -364321 -319261 
3888.634 -275223 -242109 -226643 -231048 -252474 -283965 -317308 -344622 
3892.491 -360613 -363427 -353992 -334160 -306679 -273799 -238035 -201805 
3896.349 -168056 -139538 -118636 -107274 -105552 -111978 -123473 -136358 
3900.206 -147686 -155768 -161332 -167029 -176336 -192068 -215384 -244361 
3904.063 -274759 -300885 -317606 -322042 -313666 -295256 -270157 -242937 
3907.921 -217073 -195082 -177893 -165638 -157291 -151661 -146792 -141326 
3911.778 -133807 -123572 -110421 -95448 -80508 -67985 -60531 -59902 -66428 
3916.118 -79315 -96343 -114827 -132317 -147255 -158749 -166168 -169348 
3919.975 -167758 -160869 -148547 -132350 -114198 -97568 -85841 -81237 -84847 
3924.315 -95150 -108864 -122114 -131323 -134337 -130959 -122413 -111150 
3928.172 -99589 -90347 -84881 -84284 -88988 -98396 -111448 -126421 -141161 
3932.512 -153151 -160835 -163320 -161299 -156165 -149971 -144937 -142055 
3936.369 -141525 -142254 -142287 -140134 -133973 -123572 -109726 -94587 
3940.227 -80640 -70834 -67190 -70503 -80176 -93891 -108699 -121220 -129402 
3944.566 -132317 -130793 -127182 -123406 -121916 -123307 -127182 -131687 
3948.424 -134933 -134900 -130859 -122976 -112376 -101146 -91009 -83290 
3952.281 -78785 -77394 -78785 -82065 -86139 -89916 -92599 -93427 -92235 
3956.621 -89452 -85609 -81899 -79216 -78255 -78951 -80972 -83556 -86073 
3960.960 -87961 -88823 -88723 -87498 -85411 -82363 -78851 -75207 -72126 
3965.300 -70105 -69575 -70702 -72988 -75671 -78023 -79580 -80243 -80176 
3969.640 -79911 -79779 -79415 -78752 -76831 -73518 -68847 -63314 -57914 
3973.979 -53309 -50228 -48770 -48604 -49135 -49963 -50957 -51619 -52481 
3978.319 -53210 -53773 -53905 -53574 -53077 -52713 -53210 -54733 -57152 
3982.658 -60266 -62850 -64242 -63943 -61658 -57914 -53309 -48704 -44463 
3986.998 -40852 -38036 -35683 -33894 -32735 -31641 -30217 -28063 -24187 
3991.338 -18687 -11397 -3578 3644 8979 11497 11133 8349 4506 795 -1722 -2584 
3997.124 -2054 -364 1988 4738 7620 10934 13982 16733 
##END=
