
##TITLE=mdmaHCL00405_8
##JCAMP-DX=5.01  $$ Nicolet v. 1
##DATATYPE=INFRARED SPECTRUM
##ORIGIN=UniL
##OWNER=Nicolet
##LONGDATE=2011/08/23
##TIME=14:21:33
##SPECTROMETER/DATA SYSTEM=Nicolet iS5
##DATA PROCESSING=
Ratio against background
%Transmittance->Absorbance
Truncated
ElementMultiply or ElementDivide
##COMMENTS=
Number of sample scans: 32
Collection length: 51.20 sec
Sample gain: 2.0
Background collected on: Mar Aout 23 14:20:03 2011 (GMT+02:00);
Number of background scans: 32
Background gain: 2.0
Sample spacing:  1.000
Number of scan points: 12415
Resolution points: 8192
Number of FFT points: 65536
Apodization: N-B fort;
Phase correction: Mertz;
Laser frequency: 15798.0 cm-1
Number of rejected sample scans: 0
Number of rejected background scans: 0
Bench serial number: ASB1000141;
##RESOLUTION=4.000
##XUNITS=1/CM
##YUNITS=ABSORBANCE
##FIRSTX=649.893372
##LASTX=4000.122314
##FIRSTY=0.091714
##MAXX=4000.122314
##MINX=649.893372
##MAXY=0.226588
##MINY=-0.000721
##XFACTOR=1.000000
##YFACTOR=1.000000E-009
##NPOINTS=6950
##DELTAX=0.482117
##ZPD=6100
##XYDATA=(X++(Y..Y))
649.893 91713992 91603880 91597696 91682280 91824872 91989872 92152520 
653.268 92309040 92474432 92669248 92903424 93170536 93448376 93712824 
656.643 93950528 94166424 94379584 94612000 94873328 95154024 95426696 
660.018 95657488 95822136 95911840 95936216 95914320 95868616 95816512 
663.393 95768016 95727368 95692432 95652784 95583368 95440112 95155552 
666.767 94650112 93875168 92870520 91787752 90813272 90065232 89545200 
670.142 89175320 88849824 88474336 87988816 87368944 86627464 85800992 
673.517 84933552 84056656 83180368 82299672 81406856 80502664 79602072 
676.892 78727800 77899640 77127360 76407016 75727384 75078944 74461160 
680.267 73882080 73354464 72886056 72475600 72112072 71782384 71476616 
683.642 71194608 70943560 70734064 70571056 70449688 70354920 70268712 
687.016 70177808 70078232 69977168 69886984 69818296 69772688 69741640 
690.391 69710016 69663488 69594872 69505936 69405592 69304832 69210824 
693.766 69125344 69045008 68965584 68885664 68807200 68734136 68668928 
697.141 68609560 68549920 68482064 68399832 68302488 68194192 68081672 
700.516 67969288 67857440 67741280 67614696 67473376 67319352 67159216 
703.890 67002916 66857688 66725068 66600136 66473232 66335744 66181600 
707.265 66010380 65825224 65630248 65428236 65220268 65008132 64797216 
710.640 64597584 64424484 64292528 64210816 64177012 64175940 64180128 
714.015 64153472 64060836 63872872 63570784 63149824 62618344 61997504 
717.390 61316492 60615396 59941376 59342696 58870564 58569660 58468772 
720.765 58575840 58868100 59290732 59753436 60146604 60358588 60288576 
724.139 59877592 59118560 58063332 56806952 55469816 54171988 52998252 
727.514 51994932 51166108 50487152 49919644 49428088 48989008 48590244 
730.889 48227168 47896916 47593604 47309312 47036580 46771320 46514416 
734.264 46269456 46040108 45826856 45626336 45433300 45243924 45057492 
737.639 44876980 44705988 44545704 44392600 44239772 44079112 43906120 
741.013 43722460 43536096 43357500 43194784 43050648 42921148 42799112 
744.388 42676560 42550208 42421880 42296696 42179328 42071844 41971504 
747.763 41873232 41772576 41668436 41563344 41462976 41371776 41290912 
751.138 41217348 41145000 41068400 40984680 40895076 40803672 40714976 
754.513 40631652 40554088 40481120 40412132 40348496 40293996 40252260 
757.888 40225328 40212168 40209044 40211440 40216604 40225396 40241648 
761.262 40270876 40317628 40383040 40466464 40566784 40686012 40831808 
764.637 41018036 41265368 41598604 42042532 42620964 43348604 44224916 
768.012 45224544 46293560 47351436 48293892 49021652 49463136 49597568 
771.387 49469376 49181848 48876492 48678560 48666588 48838188 49110980 
774.762 49337464 49349120 49017200 48278860 47162768 45771408 44258596 
778.136 42783644 41470116 40399692 39598060 39048104 38705632 38519340 
781.511 38443820 38443240 38495480 38588540 38716064 38876164 39068660 
784.886 39294428 39554068 39847528 40174404 40534336 40928352 41359968 
788.261 41835176 42362588 42951324 43609392 44344268 45162736 46072340 
791.636 47083808 48210656 49467700 50868776 52421768 54125708 55966300 
795.010 57916976 59938068 61976712 63975676 65873428 67612032 69150872 
798.385 70473888 71599992 72581744 73504184 74466552 75553848 76821920 
801.760 78269640 79831128 81369048 82696600 83615136 83934112 83530744 
805.135 82374408 80541832 78199536 75570568 72892920 70347680 68037760 
808.510 65971768 64081960 62255784 60380708 58386972 56259600 54041760 
811.885 51808788 49651248 47645072 45836872 44246852 42870896 41692000 
815.259 40687324 39834960 39115720 38511412 38006156 37585768 37238704 
818.634 36957320 36737268 36575072 36467740 36410300 36397440 36424892 
822.009 36491164 36599440 36755984 36968612 37243864 37583888 37987384 
825.384 38448528 38959696 39510556 40088272 40676916 41256444 41804932 
828.759 42303600 42740684 43118336 43455632 43789012 44165852 44640360 
832.133 45267128 46087484 47124504 48370924 49783248 51271800 52703184 
835.508 53922372 54757004 55059304 54740016 53782912 52256896 50295336 
838.883 48080720 45796260 43597268 41602976 39877708 38441576 37281992 
842.258 36368184 35661848 35123968 34721652 34425604 34211352 34060916 
845.633 33960796 33902188 33879976 33890508 33929092 33990824 34069444 
849.008 34160664 34263016 34378660 34511624 34666380 34845136 35046772 
852.382 35267980 35504980 35755592 36020576 36303480 36608484 36939676 
855.757 37299752 37690664 38115168 38578544 39088420 39655448 40291488 
859.132 41008128 41817772 42734688 43774388 44954844 46291056 47787604 
862.507 49429568 51174012 52947980 54644520 56143560 57323912 58077272 
865.882 58336072 58076968 57329168 56164944 54693936 53046992 51346976 
869.256 49705708 48206988 46899352 45804432 44920632 44232984 43719788 
872.631 43359804 43134512 43027380 43023940 43110724 43274540 43504928 
876.006 43795168 44143404 44552644 45028820 45577576 46200792 46893816 
879.381 47642852 48426188 49214320 49971832 50665804 51265760 51751752 
882.756 52118760 52377396 52553720 52681784 52799860 52940080 53123564 
886.131 53360920 53652164 53992792 54377432 54803276 55270436 55779052 
889.505 56327532 56909872 57515384 58130752 58741992 59335440 59900072 
892.880 60424996 60899088 61311568 61651920 61912020 62088512 62182140 
896.255 62198272 62144212 62028844 61861276 61652224 61415372 61166248 
899.630 60921160 60695372 60498340 60333076 60195772 60078792 59974016 
903.005 59876300 59785224 59704924 59642768 59606544 59603772 59641856 
906.379 59727696 59869416 60075252 60352112 60705168 61135468 61641300 
909.754 62219572 62867916 63586696 64379216 65250264 66204792 67246512 
913.129 68377992 69603208 70929584 72369736 73941824 75667152 77563552 
916.504 79643304 81906624 84341512 86918624 89591376 92296336 94942920 
919.879 97419664 99601656 101351696 102552712 103129944 103071384 102443840 
923.254 101392664 100138936 98931208 98030184 97673096 98020056 99143512 
926.628 101001648 103447448 106227856 109019152 111495360 113340192 
929.521 114314320 114288448 113233704 111215880 108359016 104827816 
932.414 100793864 96423136 91886160 87339328 82927864 78787736 75024352 
935.789 71715584 68911136 66629916 64871340 63621760 62861452 62563620 
939.163 62690840 63192284 63990264 64979768 66041812 67039572 67845080 
942.538 68359960 68519000 68306328 67751464 66925444 65922560 64843640 
945.913 63787436 62828360 62015200 61371328 60896608 60577192 60391980 
949.288 60321200 60347772 60458508 60643328 60892224 61195240 61543284 
952.663 61928564 62346004 62793636 63271008 63777148 64309664 64863876 
956.037 65434164 66016124 66607052 67206672 67815792 68434504 69060008 
959.412 69688384 70314368 70935096 71550488 72164296 72781120 73404952 
962.787 74036400 74673168 75310680 75945096 76574952 77202000 77829320 
966.162 78460288 79095760 79735016 80376376 81019768 81668344 82327984 
969.537 83006288 83709704 84442120 85204672 85997248 86821248 87680552 
972.912 88581912 89532856 90539648 91604904 92727864 93906016 95137648 
976.286 96423136 97764552 99163704 100619136 102124096 103666816 105231360 
979.661 106801616 108363440 109903040 111407432 112861488 114246592 
982.554 115544504 116740208 117826560 118806360 119692080 120501896 
985.447 121253568 121962872 122641784 123299448 123946384 124594808 
988.339 125257432 125945360 126663896 127411648 128181296 128963856 
991.232 129752296 130543648 131338344 132136984 132936392 133728576 
994.125 134501072 135241088 135940016 136594816 137207568 137781504 
997.017 138317136 138810992 139256576 139648560 139988016 140283440 
999.910 140551312 140811328 141080752 141373712 141699376 142064880 
1002.803 142478128 142949280 143488176 144102272 144792592 145553328 
1005.695 146373488 147243088 148156512 149115712 150128016 151202816 
1008.588 152345344 153554880 154823760 156140720 157494800 158875952 
1011.481 160273744 161675792 163063008 164411408 165697360 166902096 
1014.374 168020336 169061712 170049488 171012752 171979552 172973664 
1017.266 174011456 175105888 176269392 177514064 178851024 180286064 
1020.159 181817248 183434016 185122368 186871680 188679168 190552384 
1023.052 192504416 194548816 196690832 198926064 201240352 203616320 
1025.945 206037952 208491232 210961568 213426352 215847472 218172704 
1028.838 220337984 222272896 223916064 225213232 226117360 226588192 
1031.731 226585456 226072384 225025968 223444432 221356048 218815664 
1034.624 215901728 212701104 209294848 205761840 202172848 198593216 
1037.517 195093024 191739280 188593792 185711568 183132144 180881792 
1040.410 178977088 177424272 176220464 175345552 174757920 174383232 
1043.303 174111680 173818240 173366384 172638000 171560736 170112288 
1046.196 168326720 166277456 164068800 161810960 159602288 157529424 
1049.089 155653328 154008768 152606688 151433840 150458816 149636400 
1051.982 148920848 148271216 147656448 147059328 146471008 145885808 
1054.875 145297136 144693584 144060352 143383472 142649920 141849776 
1057.768 140974672 140014496 138957024 137790240 136505696 135104352 
1060.661 133598712 132013352 130378632 128725272 127080936 125466552 
1063.554 123897456 122387056 120946512 119585504 118308496 117112032 
1066.448 115981816 114894160 113822392 112740552 111630816 110486632 
1069.341 109312512 108121040 106928448 105752904 104611360 103518000 
1072.234 102485704 101522576 100631496 99808456 99043232 98321328 97626544 
1075.609 96946336 96272736 95602480 94935248 94270720 93606720 92939912 
1078.984 92266920 91588168 90909176 90241032 89597728 88992840 88437984 
1082.359 87941712 87510448 87150848 86871112 86680768 86589192 86603152 
1085.735 86724992 86952624 87281432 87706624 88224064 88830840 89521944 
1089.110 90286792 91108240 91961000 92815336 93644784 94428832 95157616 
1092.485 95832016 96460040 97052840 97619784 98167408 98699120 99217080 
1095.860 99724320 100226600 100733608 101258352 101815944 102420552 
1098.753 103081800 103797744 104549728 105295112 105973104 106504352 
1101.646 106804032 106803432 106457432 105758488 104735992 103453080 
1104.540 101992208 100437336 98871744 97363976 95963040 94702688 93598088 
1107.915 92647720 91836048 91136680 90516712 89938376 89368176 88776408 
1111.290 88138568 87437136 86658440 85793240 84837664 83794928 82676480 
1114.665 81500544 80291944 79077112 77878912 76716264 75602400 74544512 
1118.041 73547520 72613976 71744776 70938328 70190384 69493304 68836000 
1121.416 68207224 67595656 66991204 66384928 65767012 65125176 64445628 
1124.791 63712576 62912344 62037060 61086952 60071828 59008440 57920268 
1128.166 56832292 55766392 54742232 53772604 52864256 52017900 51228924 
1131.542 50489240 49787968 49114464 48460380 47820632 47194608 46585708 
1134.917 46000244 45445924 44930148 44459656 44039688 43674680 43368556 
1138.292 43124376 42944704 42830668 42782148 42797540 42874588 43010844 
1141.667 43204228 43453032 43755768 44109480 44509580 44949808 45422304 
1145.042 45919144 46433584 46959452 47492944 48030608 48569268 49106228 
1148.418 49639248 50167752 50692504 51216172 51741972 52271804 52806556 
1151.793 53344624 53883960 54421896 54956896 55488072 56014168 56533056 
1155.168 57040700 57530776 57996112 58429688 58824352 59173692 59470572 
1158.543 59705724 59868352 59946208 59926772 59800624 59560824 59203768 
1161.919 58728448 58134768 57424116 56598956 55664988 54631708 53512048 
1165.294 52322900 51082092 49806584 48512876 47214960 45925364 44656588 
1168.669 43419820 42225628 41083476 40000124 38980212 38026660 37140416 
1172.044 36322144 35572688 34892780 34283128 33743872 33274178 32872744 
1175.420 32537494 32267168 32061004 31919762 31844988 31838856 31903290 
1178.795 32040172 32251824 32541208 32912738 33372384 33926476 34581588 
1182.170 35343168 36214728 37198416 38294408 39500868 40811604 42213760 
1185.545 43686296 45195568 46696236 48137056 49459200 50606156 51530756 
1188.921 52193932 52572528 52658932 52461848 52004680 51322848 50462588 
1192.296 49471416 48397040 47284188 46168032 45077192 44032428 43046184 
1195.671 42124888 41269124 40475668 39738076 39048832 38401464 37790632 
1199.046 37213972 36671252 36163520 35692172 35257632 34858740 34493184 
1202.422 34157904 33849348 33564568 33300326 33052694 32816566 32584958 
1205.797 32349690 32102778 31837322 31549048 31237390 30904754 30556656 
1209.172 30199924 29843164 29495492 29166064 28864576 28600312 28381412 
1212.547 28214738 28105354 28056080 28068026 28141518 28275878 28470134 
1215.923 28722778 29031324 29392204 29801216 30254060 30747100 31278376 
1219.298 31847234 32454114 33099282 33782692 34503304 35260648 36054632 
1222.673 36886720 37759620 38675748 39635988 40638676 41678320 42746676 
1226.048 43833324 44925592 46010008 47071104 48090860 49051104 49933916 
1229.424 50723816 51411648 51994744 52477700 52870992 53190632 53457628 
1232.799 53695880 53935576 54210836 54556904 55011536 55609020 56377404 
1236.174 57339676 58510968 59900224 61510492 63339168 65376044 67600336 
1239.549 69981496 72477632 75036408 77605080 80129968 82561344 84857848 
1242.925 86981000 88895328 90569400 91972352 93077832 93865464 94319424 
1246.300 94429120 94189056 93599368 92667936 91412072 89860208 88046200 
1249.675 86004720 83766000 81349504 78765376 76018944 73117376 70077144 
1253.050 66929200 63716448 60494000 57322888 54258968 51354248 48648684 
1256.426 46166596 43919172 41903884 40107640 38509528 37085520 35811832 
1259.801 34665160 33626928 32682546 31820494 31032958 30313780 29657374 
1263.176 29058814 28512980 28015188 27561954 27150738 26779944 26448660 
1266.551 26155596 25898710 25675332 25482108 25316228 25176038 25061170 
1269.927 24972264 24910500 24876816 24871306 24893868 24944434 25022944 
1273.302 25130502 25268568 25438822 25642044 25878030 26144934 26438520 
1276.677 26750942 27071278 27382956 27665160 27896032 28053782 28122216 
1280.052 28094750 27975076 27776802 27518916 27224428 26913248 26600496 
1283.427 26296630 26007012 25734180 25479896 25245634 25033264 24845098 
1286.803 24683352 24550066 24447630 24377984 24343078 24343430 24377600 
1290.178 24441494 24528644 24632500 24746730 24867728 24994900 25130186 
1293.553 25277032 25438858 25618742 25819162 26042650 26292616 26573198 
1296.928 26888326 27241184 27633416 28065128 28535484 29044466 29592494 
1300.304 30180566 30807922 31469670 32154870 32847154 33524334 34162384 
1303.679 34740420 35241388 35655772 35982420 36227876 36405580 36533112 
1307.054 36632208 36723780 36826236 36953460 37111972 37302172 37518500 
1310.429 37752608 37995272 38237744 38473288 38695848 38899644 39078884 
1313.805 39227044 39338248 39407792 39432032 39408848 39336872 39215004 
1317.180 39043212 38822644 38557684 38255980 37927976 37586600 37244012 
1320.555 36910132 36591940 36292892 36014564 35758080 35525364 35319480 
1323.930 35144588 35004388 34901900 34839140 34817708 34839748 34907752 
1327.306 35024036 35189176 35400032 35649652 35926304 36216568 36507416 
1330.681 36787896 37050156 37290116 37504556 37691496 37848400 37972524 
1334.056 38062176 38116832 38137812 38127828 38090716 38030676 37951732 
1337.431 37858920 37758860 37659732 37571968 37506724 37473492 37479164 
1340.807 37526124 37612900 37734756 37885852 38059612 38249248 38448560 
1344.182 38651880 38855076 39056588 39257616 39461820 39672872 39892016 
1347.557 40114948 40330788 40521348 40663412 40734228 40713012 40586356 
1350.932 40350352 40011132 39584556 39093132 38566048 38033136 37522332 
1354.308 37058852 36660616 36338568 36097552 35936456 35851376 35836804 
1357.683 35887688 35998476 36162904 36373260 36619120 36888816 37172284 
1361.058 37462584 37758392 38064348 38389376 38742764 39129824 39550040 
1364.433 39995296 40451300 40897584 41311136 41666868 41938660 42104880 
1367.809 42150592 42070204 41868124 41556852 41152756 40670764 40123416 
1371.184 39519880 38866924 38173916 37454924 36730344 36027816 35376988 
1374.559 34801836 34316656 33921888 33607596 33358034 33159614 33005324 
1377.934 32897618 32848336 32876820 33009220 33272888 33695780 34301952 
1381.310 35102736 36089088 37219752 38422644 39590292 40593380 41306620 
1384.685 41609468 41413400 40678044 39427204 37759404 35831764 33841144 
1388.060 31963200 30318470 28964128 27897198 27080624 26462218 25993186 
1391.435 25631956 25345978 25112808 24917204 24750626 24612022 24505924 
1394.811 24439812 24419692 24446752 24515390 24615878 24735928 24864710 
1398.186 24995674 25127378 25263686 25410648 25574422 25757208 25956534 
1401.561 26165768 26376370 26580136 26771100 26947128 27109860 27263656 
1404.936 27412674 27559304 27703548 27843990 27979564 28111292 28242424 
1408.312 28378372 28524338 28684122 28859512 29050488 29256612 29478292 
1411.687 29716908 29974288 30251360 30546810 30857722 31179606 31509604 
1415.062 31846948 32194190 32556280 32939188 33349018 33790572 34267708 
1418.437 34781988 35330120 35902876 36483308 37048028 37571424 38030208 
1421.813 38409248 38703672 38924580 39098604 39267264 39474084 39753804 
1425.188 40124248 40582972 41115204 41702028 42328912 42986000 43666696 
1428.563 44364784 45071644 45777336 46475436 47166240 47859108 48568232 
1431.938 49309404 50093112 50922944 51796468 52711036 53669036 54680148 
1435.313 55762060 56935216 58214816 59599136 61069564 62598028 64153544 
1438.689 65705752 67219512 68654032 69952448 71044616 71862448 72339840 
1442.064 72426384 72093608 71332424 70155408 68595320 66709460 64573824 
1445.439 62272344 59898628 57539588 55273144 53170784 51285896 49647940 
1448.814 48254976 47076644 46063096 45162188 44339208 43584704 42917816 
1452.190 42372744 41985300 41773556 41729564 41819012 41989132 42184548 
1455.565 42351924 42460680 42513812 42551924 42633608 42806936 43098176 
1458.940 43508516 44027588 44641720 45336784 46095884 46894072 47699908 
1462.315 48468680 49142404 49662052 49971536 50038752 49868164 49504280 
1465.691 49015748 48469348 47918820 47397292 46920320 46495648 46124552 
1469.066 45802004 45514096 45236384 44936764 44580584 44147588 43643904 
1472.441 43110504 42608096 42196232 41912200 41764400 41743208 41834412 
1475.816 42028952 42325112 42724852 43226296 43818696 44481096 45187700 
1479.192 45909564 46623964 47318516 47992380 48656728 49330856 50039200 
1482.567 50805528 51652996 52606824 53693220 54939900 56369332 57989524 
1485.942 59780924 61684264 63604460 65403580 66914080 67967120 68400536 
1489.317 68097176 67018264 65219112 62845936 60091160 57154784 54190080 
1492.693 51285560 48483940 45789704 43196688 40714540 38374756 36236448 
1496.068 34375144 32857090 31719680 30962392 30557474 30462178 30632596 
1499.443 31031678 31625268 32379712 33262264 34235012 35257916 36291560 
1502.818 37287224 38187740 38923020 39392920 39473252 39026896 37944572 
1506.194 36216708 33981148 31496528 29021228 26718030 24633378 22740206 
1509.569 20990920 19350632 17805396 16364031 15046342 13868498 12838552 
1512.944 11951989 11195016 10549578 9997413 9521910 9106609 8737410 8405076 
1516.802 8106955 7847937 7635943 7476031 7363860 7284267 7212739 7125224 
1520.659 7006915 6864670 6725332 6623650 6582641 6602254 6663654 6739197 
1524.516 6806506 6852821 6880828 6903686 6938598 6996813 7078947 7177435 
1528.374 7283424 7392237 7505831 7630076 7770076 7924563 8085080 8237383 
1532.231 8367682 8470955 8556443 8646309 8763274 8921498 9118858 9341631 
1536.089 9570344 9786910 9978562 10136143 10253984 10328458 10357063 
1539.464 10340267 10284553 10206085 10126037 10063399 10027386 10013654 
1542.839 10007348 9988767 9943371 9866625 9767662 9664317 9576136 9513815 
1546.697 9475614 9449539 9419537 9373997 9310486 9237710 9171241 9127013 
1550.554 9112565 9124103 9150024 9177298 9197807 9211514 9226135 9253246 
1554.411 9302869 9377417 9471483 9572512 9665028 9730624 9749159 9704228 
1558.269 9591244 9431829 9271761 9164101 9139736 9198179 9319559 9476325 
1562.126 9643413 9799856 9932794 10039153 10125324 10204897 10293069 
1565.501 10400840 10529582 10672218 10815920 10948795 11062949 11157448 
1568.877 11238674 11318417 11410182 11523947 11665276 11834775 12030195 
1572.252 12246116 12474660 12705745 12924598 13116410 13269736 13382144 
1575.627 13465666 13545034 13649546 13797759 13991429 14219283 14465105 
1579.002 14713910 14956274 15189097 15413392 15632480 15849445 16065728 
1582.378 16281223 16494898 16705338 16911196 17110360 17299170 17472088 
1585.753 17623336 17747716 17843372 17913148 17964704 18008806 18057574 
1589.128 18122792 18213346 18335820 18493802 18688228 18916450 19170278 
1592.503 19436038 19693358 19917982 20087262 20182322 20194020 20124084 
1595.879 19985214 19797384 19582424 19362028 19153518 18969752 18820974 
1599.254 18714830 18656752 18650318 18695872 18791668 18934100 19119930 
1602.629 19345780 19608180 19901610 20216062 20536060 20842562 21112684 
1606.004 21323772 21457850 21501750 21450398 21306094 21077100 20775090 
1609.380 20412790 20004990 19567624 19119238 18681172 18272264 17905794 
1612.755 17586038 17306754 17053290 16805862 16545046 16256593 15937498 
1616.130 15600056 15270907 14981996 14758232 14609862 14532321 14510702 
1619.505 14524955 14554557 14581181 14589782 14572648 14530711 14474902 
1622.881 14422800 14392316 14395776 14435234 14504159 14591221 14685908 
1626.256 14780206 14869551 14952262 15027888 15096804 15159863 15219122 
1629.631 15278046 15340720 15410338 15487520 15568734 15645361 15704755 
1633.006 15731622 15709633 15625644 15474644 15265897 15023498 14782091 
1636.382 14573026 14412319 14298720 14217469 14150028 14078182 13988144 
1639.757 13873287 13734657 13580210 13421511 13269976 13132358 13008236 
1643.132 12890225 12765797 12620357 12439504 12214319 11944768 11643018 
1646.507 11333041 11045343 10808990 10641555 10546794 10515869 10531993 
1649.883 10572155 10607227 10603899 10521978 10324352 9997549 9578542 
1653.258 9155945 8821734 8621704 8542183 8540832 8572530 8605075 8620993 
1657.115 8613897 8585710 8542386 8490754 8434264 8372647 8301818 8216784 
1660.973 8112559 7987939 7846486 7697018 7552456 7425402 7325578 7256807 
1664.830 7216613 7197310 7187742 7175818 7148904 7096360 7012202 6896078 
1668.688 6755451 6603498 6457249 6331422 6235648 6171955 6136164 6118858 
1672.545 6106794 6085557 6040836 5962425 5849234 5712806 5575851 5461889 
1676.402 5386467 5350170 5342120 5344904 5343328 5329508 5304150 5275674 
1680.260 5255014 5249146 5255182 5259609 5238984 5168999 5033389 4837875 
1684.117 4615023 4413739 4273546 4204854 4193646 4214757 4245338 4268861 
1687.975 4276992 4268125 4244903 4212750 4177889 4147580 4128848 4126807 
1691.832 4143700 4176383 4216062 4247346 4252967 4217534 4136341 4021619 
1695.689 3903449 3817869 3786349 3807908 3860456 3912410 3928859 3883490 
1699.547 3768802 3606664 3444253 3327811 3281503 3298296 3353788 3419540 
1703.404 3472275 3497693 3489877 3452803 3397966 3340766 3293855 3263675 
1707.262 3250355 3249654 3256164 3265078 3274325 3283873 3295057 3309280 
1711.119 3327243 3348212 3370417 3391621 3410089 3424983 3435938 3442450 
1714.977 3442650 3432063 3405247 3357695 3290016 3210198 3134065 3079468 
1718.834 3058379 3073729 3119080 3182960 3252559 3316759 3369482 3408653 
1722.691 3436706 3458481 3479690 3504507 3534804 3570449 3609838 3650835 
1726.549 3690800 3726891 3755867 3775118 3784176 3785079 3782873 3783307 
1730.406 3790393 3802526 3811652 3802326 3755499 3655446 3499530 3306876 
1734.264 3115309 2967026 2886767 2873725 2908348 2964024 3017305 3049804 
1738.121 3052340 3025412 2978336 2925494 2880863 2853380 2844208 2849544 
1741.979 2863052 2880196 2898241 2917188 2938070 2962123 2989379 3018873 
1745.836 3048202 3075130 3097321 3113106 3121082 3119714 3107700 3083606 
1749.693 3046634 2998387 2943507 2889902 2846776 2821896 2818228 2833502 
1753.551 2860651 2889535 2909215 2911517 2893004 2856715 2811958 2771541 
1757.408 2746298 2740530 2751033 2768640 2781678 2779344 2755168 2709188 
1761.266 2648077 2583009 2526315 2488191 2472295 2477460 2497588 2525049 
1765.123 2551045 2567677 2569143 2553512 2523549 2487158 2454268 2433709 
1768.980 2429044 2436441 2446204 2446537 2426678 2382499 2319502 2252285 
1772.838 2197999 2168560 2166962 2187675 2221078 2257647 2291788 2321900 
1776.695 2349083 2375169 2399923 2421080 2434808 2438340 2431643 2418348 
1780.553 2404921 2397891 2400156 2410552 2424046 2434508 2437041 2430610 
1784.410 2417782 2404421 2396125 2396925 2407853 2427578 2453468 2482792 
1788.268 2513351 2542346 2565844 2579009 2575943 2552578 2508252 2448436 
1792.125 2383798 2326730 2288090 2272269 2276965 2295851 2320801 2345486 
1795.982 2365508 2379100 2386430 2387896 2383764 2374170 2359244 2339589 
1799.840 2317370 2295385 2277098 2265041 2260711 2264042 2273968 2288990 
1803.697 2307343 2327164 2346752 2364175 2377868 2387130 2391927 2393493 
1807.555 2393393 2392893 2392560 2392027 2389961 2385397 2378167 2369472 
1811.412 2361910 2358078 2359811 2367373 2379667 2394293 2409186 2422846 
1815.270 2435375 2447503 2460666 2475761 2492856 2511152 2529248 2546412 
1819.127 2562710 2579309 2598075 2621009 2648911 2680682 2713455 2742497 
1822.984 2762804 2770707 2765305 2750033 2731961 2719924 2720624 2736829 
1826.842 2765705 2799752 2829033 2844341 2840873 2820062 2790048 2762604 
1830.699 2749899 2758903 2789848 2837538 2893972 2951147 3003158 3047468 
1834.557 3084040 3114942 3142442 3168808 3195811 3224818 3257600 3296460 
1838.414 3343771 3401339 3469536 3546830 3629284 3711518 3787619 3851397 
1842.271 3898267 3927121 3941063 3948119 3959052 3984900 4031986 4100415 
1846.129 4183777 4272475 4355802 4424618 4473860 4502651 4513499 4510285 
1849.986 4497060 4475668 4446142 4407346 4358948 4301922 4239349 4174979 
1853.844 4112089 4051785 3993360 3934844 3874263 3811384 3747946 3686790 
1857.701 3630186 3579369 3533034 3489209 3445322 3400605 3355925 3313287 
1861.559 3274959 3242076 3214370 3190304 3168808 3149550 3133264 3121349 
1865.416 3113740 3108468 3101793 3089045 3066354 3033721 2995351 2958820 
1869.273 2932132 2921157 2926861 2945809 2971797 2998854 3022176 3039226 
1873.131 3049236 3052773 3050137 3042096 3029049 3011966 2992282 2971931 
1876.988 2952848 2935935 2921024 2907448 2893505 2878862 2863786 2849211 
1880.846 2835804 2823731 2812058 2799319 2784446 2767373 2749766 2733761 
1884.703 2721991 2715223 2712589 2710922 2706554 2695985 2677215 2651044 
1888.561 2620109 2589242 2563510 2547179 2543080 2551312 2570210 2595842 
1892.418 2624142 2650111 2670647 2684249 2691784 2696285 2701319 2709755 
1896.275 2722225 2737662 2752767 2764938 2772508 2775842 2776843 2777977 
1900.133 2781011 2786447 2793583 2800853 2807623 2814359 2822396 2832535 
1903.990 2845575 2860317 2875126 2888135 2898541 2906747 2913885 2921658 
1907.848 2930264 2938904 2946410 2951314 2953816 2955517 2958753 2965759 
1911.705 2976968 2991648 3007495 3021742 3033387 3042196 3048302 3051706 
1915.563 3051072 3044131 3028682 3004726 2975367 2946910 2926428 2918522 
1919.420 2923325 2936235 2949979 2957218 2953749 2939871 2920090 2900676 
1923.277 2886867 2880496 2879929 2880897 2880163 2876494 2871357 2867888 
1927.135 2868722 2875293 2886467 2900309 2915053 2930464 2947744 2968127 
1930.992 2991514 3015303 3035322 3046934 3047935 3039226 3025246 3011266 
1934.850 3002291 3000556 3005460 3014369 3025412 3038025 3052840 3070926 
1938.707 3091548 3111738 3126022 3129492 3119480 3097522 3069491 3044465 
1942.564 3030551 3032219 3049236 3077766 3112172 3147815 3181792 3212901 
1946.422 3240207 3262607 3277697 3283840 3281369 3273424 3264677 3260838 
1950.279 3265345 3278732 3297662 3316726 3331316 3338863 3339998 3337059 
1954.137 3333453 3330882 3329113 3326842 3323036 3317427 3311250 3306375 
1957.994 3303805 3303304 3302002 3297662 3289181 3277396 3265111 3256431 
1961.852 3253360 3256565 3264310 3274425 3285609 3298296 3313053 3330949 
1965.709 3349781 3365308 3372087 3364907 3343637 3312619 3280034 3254628 
1969.566 3243312 3248653 3268349 3298096 3333320 3371118 3409688 3447693 
1973.424 3484132 3516566 3543523 3565805 3588222 3618425 3664501 3731202 
1977.281 3815496 3907060 3990719 4053223 4085899 4088809 4068808 4036534 
1981.139 4001988 3971659 3948352 3932337 3923075 3921805 3930397 3949824 
1984.996 3978681 4011686 4041283 4059143 4060480 4044895 4017538 3986205 
1988.854 3958049 3938088 3926385 3920869 3917559 3914416 3911206 3909969 
1992.711 3912978 3921036 3933306 3947884 3962697 3976407 3989214 4001387 
1996.568 4013325 4023725 4030380 4031350 4025163 4012957 3997340 3981958 
2000.426 3969485 3960357 3953368 3946012 3936683 3924680 3911841 3901176 
2004.283 3895827 3896830 3904218 3916121 3929929 3943237 3954304 3962196 
2008.141 3965874 3964235 3957648 3946881 3935279 3926620 3925516 3934209 
2011.998 3952432 3976774 4001687 4022522 4036199 4043457 4047102 4051684 
2015.855 4060982 4076768 4099145 4126406 4157750 4192408 4230148 4270400 
2019.713 4311426 4350347 4383280 4407179 4420902 4425321 4424082 4420635 
2023.570 4418760 4420200 4425455 4433857 4444803 4457825 4472454 4488958 
2027.428 4506200 4523476 4539882 4555384 4570787 4588434 4609832 4636857 
2031.285 4669980 4709268 4754321 4804572 4859621 4918731 4979927 5039456 
2035.143 5092791 5135806 5166384 5184893 5194517 5199614 5204644 5211821 
2039.000 5221646 5232712 5243913 5254478 5264774 5276714 5290733 5306933 
2042.857 5323470 5337491 5347185 5352217 5353793 5355437 5361072 5372579 
2046.715 5391433 5415957 5443636 5471653 5495947 5513027 5518900 5510946 
2050.572 5487122 5448803 5400725 5350103 5305391 5274366 5261286 5266216 
2054.430 5283723 5307168 5329038 5345240 5354498 5359328 5362951 5367547 
2058.287 5373418 5378483 5380496 5378215 5371270 5362381 5353458 5347017 
2062.145 5342656 5339671 5336283 5331889 5327025 5323939 5324443 5330044 
2066.002 5339872 5351814 5363086 5371506 5376605 5379221 5380932 5382643 
2069.859 5384488 5385461 5384455 5381133 5376538 5372814 5372445 5376906 
2073.717 5385830 5397136 5408341 5416225 5419647 5417869 5412266 5404449 
2077.574 5396096 5388983 5384085 5382308 5384220 5390024 5398545 5408240 
2081.432 5416661 5422063 5423136 5420553 5415957 5411260 5408039 5406328 
2085.289 5405020 5402302 5397203 5389621 5381435 5374894 5372176 5373585 
2089.146 5377711 5381569 5381871 5376370 5364427 5347789 5329373 5312837 
2093.004 5301500 5298347 5305089 5322094 5348695 5382274 5418440 5451488 
2096.861 5476418 5489638 5490578 5482357 5470613 5461419 5459574 5466989 
2100.719 5481753 5500410 5518900 5534471 5547459 5559976 5574811 5594411 
2104.576 5619384 5648955 5681484 5715459 5749906 5784893 5820588 5856085 
2108.434 5890376 5921813 5949223 5972267 5992322 6011505 6031865 6054577 
2112.291 6079442 6105012 6129577 6151757 6171115 6187617 6201565 6212724 
2116.148 6220690 6224589 6224757 6222203 6219513 6219850 6225631 6237664 
2120.006 6255043 6275481 6295954 6314007 6328800 6340366 6350049 6358925 
2123.863 6368272 6378595 6390498 6404889 6422745 6444469 6469759 6497136 
2127.721 6523741 6546277 6562222 6570598 6572213 6569522 6565721 6563803 
2131.578 6566359 6574870 6590244 6613053 6643130 6679468 6719982 6760398 
2135.436 6796409 6824109 6841006 6848109 6847536 6842958 6836698 6829730 
2139.293 6821787 6811555 6798529 6784528 6772244 6766354 6768845 6780523 
2143.150 6798630 6818825 6835789 6846358 6848378 6842386 6828687 6808660 
2147.008 6781903 6749023 6710257 6667793 6624357 6582305 6542846 6504233 
2150.865 6463403 6416558 6361312 6298206 6230538 6163486 6100342 6043523 
2154.723 5992289 5945998 5904852 5873650 5860619 5876370 5929102 6019333 
2158.580 6138886 6271952 6400384 6509245 6589705 6641078 6668970 6680477 
2162.438 6683068 6682631 6682126 6683506 6686971 6691783 6695181 6693533 
2166.295 6683337 6660861 6625837 6579075 6524918 6467708 6410842 6355293 
2170.152 6299887 6242303 6181433 6118656 6057904 6005189 5965918 5942975 
2174.010 5934846 5937332 5943546 5946771 5943244 5931151 5910696 5884330 
2177.867 5854708 5824853 5798190 5778278 5768776 5771630 5786740 5811186 
2181.725 5839260 5864850 5882785 5890476 5888058 5878217 5863642 5846816 
2185.582 5829286 5811656 5794832 5780964 5773913 5775961 5788990 5811454 
2189.439 5839260 5866362 5886815 5896925 5895682 5884800 5867470 5846917 
2193.297 5825928 5805678 5787244 5771596 5759273 5752055 5749503 5750846 
2197.154 5753800 5755547 5754103 5748496 5740203 5730734 5722442 5716936 
2201.012 5713579 5711866 5710053 5707569 5704212 5701157 5698840 5697733 
2204.869 5697632 5697766 5698202 5699344 5702265 5708106 5716936 5727478 
2208.727 5737450 5744803 5747488 5745944 5741646 5737315 5735502 5737550 
2212.584 5743258 5751921 5762262 5773947 5787445 5803933 5823812 5846648 
2216.441 5870358 5891920 5908714 5919194 5923224 5921982 5917716 5911905 
2220.299 5905523 5898336 5889771 5879158 5866362 5851853 5837010 5823174 
2224.156 5811589 5803429 5799198 5799231 5802958 5809238 5816458 5822670 
2228.014 5826297 5826767 5824988 5822637 5822066 5824618 5830663 5839125 
2231.871 5847521 5853533 5856286 5856286 5855480 5856354 5861425 5871601 
2235.729 5885606 5901862 5917178 5929338 5936660 5938810 5936291 5931017 
2239.586 5924702 5919866 5919127 5923829 5935317 5952851 5974921 5999512 
2243.443 6023835 6046480 6066640 6085120 6102358 6119261 6135828 6151656 
2247.301 6165839 6177971 6188424 6198070 6207783 6217833 6227715 6236118 
2251.158 6241597 6244118 6244622 6245328 6248791 6256354 6267413 6279213 
2255.016 6287819 6289264 6281801 6265833 6244017 6220690 6199582 6182878 
2258.873 6170980 6162444 6155353 6147825 6138583 6127695 6115530 6103433 
2262.730 6092680 6085288 6082667 6086397 6097116 6114220 6135089 6156126 
2266.588 6173400 6183349 6185298 6180089 6170980 6161638 6155185 6152732 
2270.445 6153404 6154984 6154513 6150379 6142112 6130787 6118588 6108003 
2274.303 6100846 6098157 6099838 6105349 6113884 6124201 6135962 6147791 
2278.160 6159319 6170140 6180256 6189734 6198977 6208287 6217463 6226169 
2282.018 6233732 6239412 6243110 6244522 6243883 6241698 6238236 6233765 
2285.875 6228421 6222606 6216287 6210035 6203817 6197532 6190541 6182072 
2289.732 6171485 6158646 6144599 6130081 6117110 6107096 6100073 6095503 
2293.590 6091941 6087573 6080853 6071646 6060155 6047992 6036770 6028068 
2297.447 6023063 6021651 6023398 6027128 6031596 6035325 6037308 6036837 
2301.305 6033713 6028203 6020711 6011875 6001998 5991583 5980363 5968505 
2305.162 5956714 5945763 5937366 5933100 5934376 5941329 5953153 5967598 
2309.020 5982009 5993767 6000486 6001494 5997093 5988627 5978012 5967094 
2312.877 5957520 5950634 5947040 5946771 5949425 5954161 5959536 5964642 
2316.734 5968538 5970487 5971192 5971159 5971293 5972401 5974484 5977138 
2320.592 5979389 5979657 5976130 5966758 5949357 5922552 5885103 5837077 
2324.449 5780360 5718379 5655501 5596794 5546720 5507994 5481350 5465479 
2328.307 5456923 5452326 5448267 5442898 5435718 5427733 5420352 5415051 
2332.164 5413440 5416191 5424512 5438738 5458970 5484874 5514940 5546989 
2336.021 5578469 5607166 5630897 5649426 5662820 5672151 5678731 5684270 
2339.879 5690179 5698001 5709449 5725161 5744500 5765150 5783248 5794127 
2343.736 5794228 5783113 5764847 5748059 5743325 5761792 5809977 5889166 
2347.594 5994506 6117614 6247379 6372408 6483380 6572785 6636569 6673680 
2351.451 6686837 6681420 6663048 6637377 6608612 6578469 6548060 6517586 
2355.309 6487719 6460040 6436230 6418340 6407277 6403578 6406873 6416188 
2359.166 6430480 6448101 6466867 6484726 6499188 6508303 6511599 6510354 
2363.023 6507462 6506756 6511565 6523573 6542678 6566629 6592598 6618435 
2366.881 6642895 6666783 6691480 6718198 6747172 6777461 6806809 6833770 
2370.738 6857769 6879515 6901161 6925300 6953547 6986274 7022809 7061805 
2374.596 7102085 7143211 7185957 7231437 7280998 7335149 7393922 7456513 
2378.453 7522012 7589916 7659752 7731724 7805530 7880968 7957127 8032692 
2382.311 8106347 8177043 8243799 8306377 8364371 8417744 8466090 8509474 
2386.168 8548063 8582600 8613592 8642084 8668720 8693531 8716553 8737275 
2390.025 8755397 8770915 8784101 8795496 8805335 8814262 8821937 8828430 
2393.883 8833976 8838811 8843545 8848854 8854941 8862211 8870564 8880339 
2397.740 8891905 8906413 8925015 8948826 8978118 9012386 9050175 9089725 
2401.598 9129483 9168534 9206945 9245123 9284590 9326025 9370442 9418149 
2405.455 9469552 9524450 9583115 9644870 9709412 9775998 9843984 9913064 
2409.313 9983681 10056447 10132582 10212428 10295919 10381903 10468007 
2412.688 10551887 10631470 10705465 10773799 10836913 10895518 10950223 
2416.063 11001332 11048912 11092691 11132938 11169721 11203108 11232859 
2419.438 11258531 11279648 11295632 11307194 11315492 11322430 11330253 
2422.813 11340455 11353618 11369468 11386780 11404774 11423041 11441989 
2426.189 11463217 11488801 11520715 11560458 11609324 11667352 11734545 
2429.564 11810192 11893310 11982165 12075128 12170598 12267315 12365248 
2432.939 12464532 12566363 12672039 12782142 12897052 13016396 13139598 
2436.314 13265706 13394685 13526301 13660693 13797657 13936853 14077463 
2439.690 14219215 14361664 14505461 14651602 14800808 14954182 15111967 
2443.065 15274066 15440035 15609536 15782678 15959395 16139312 16321644 
2446.440 16504947 16687399 16867482 17043812 17216250 17384860 17550362 
2449.815 17712822 17871992 18027214 18177688 18322722 18462616 18598024 
2453.191 18729774 18858414 18983632 19104314 19219144 19326312 19424532 
2456.566 19513002 19591644 19660076 19718114 19764822 19799222 19820168 
2459.941 19826724 19818330 19795200 19758336 19708962 19648946 19580032 
2463.316 19504512 19424152 19341312 19257900 19175750 19096664 19021950 
2466.692 18953138 18891464 18838066 18794228 18761152 18740428 18733476 
2470.067 18741812 18766930 18809486 18869418 18945870 19036248 19137556 
2473.442 19246124 19358842 19473252 19587866 19702060 19815766 19928180 
2476.817 20038266 20143936 20243208 20333894 20414388 20484024 20542486 
2480.193 20589316 20624478 20647166 20656896 20653700 20638204 20611900 
2483.568 20577504 20537206 20493054 20446582 20398378 20348338 20296394 
2486.943 20242896 20187772 20131926 20075358 20018036 19959298 19897896 
2490.318 19832098 19760834 19682956 19598092 19506312 19408144 19304176 
2493.694 19195178 19081602 18963382 18840248 18711196 18575198 18431260 
2497.069 18278622 18117334 17948266 17773362 17594802 17415178 17236488 
2500.444 17060182 16887288 16717734 16551483 16388392 16228387 16071435 
2503.819 15917631 15766975 15619257 15474747 15333443 15195891 15062431 
2507.195 14933709 14810203 14692249 14579639 14472504 14370911 14275264 
2510.570 14186349 14104571 14030268 13963165 13902229 13846091 13793381 
2513.945 13742900 13694100 13647255 13603115 13562810 13527635 13498546 
2517.320 13476158 13460779 13452200 13449979 13453089 13460813 13471818 
2520.696 13485285 13500665 13517517 13535872 13555733 13577475 13601133 
2524.071 13626638 13654161 13683568 13714584 13746798 13779426 13811303 
2527.446 13840891 13866616 13887553 13902708 13912151 13915880 13914409 
2530.821 13907704 13896002 13878863 13856079 13827893 13794851 13758427 
2534.197 13719987 13681037 13642536 13605303 13569168 13534710 13502032 
2537.572 13471989 13445912 13425031 13410267 13401998 13399708 13401587 
2540.947 13405689 13409413 13410439 13407500 13399366 13386484 13369433 
2544.322 13349683 13328806 13308137 13288902 13271649 13256687 13243535 
2547.698 13231306 13219384 13207054 13194108 13180583 13167194 13154967 
2551.073 13144892 13137754 13133827 13132802 13133998 13136320 13138881 
2554.448 13140726 13142023 13142638 13143253 13144004 13145097 13146224 
2557.823 13146668 13145678 13142535 13136934 13128841 13118220 13105721 
2561.198 13091584 13076081 13059554 13041969 13023498 13004446 12985021 
2564.574 12965220 12945250 12925588 12906677 12888825 12872955 12859371 
2567.949 12848483 12840020 12833945 12829747 12827461 12827495 12830498 
2571.324 12837699 12849439 12865992 12886437 12909237 12932824 12955355 
2574.699 12976349 12995365 13013119 13030088 13047057 13064266 13081511 
2578.075 13098755 13115966 13133246 13151039 13169995 13190487 13212792 
2581.450 13237181 13263826 13293035 13325321 13361061 13400152 13442324 
2584.825 13486275 13530711 13574535 13616996 13657820 13697451 13736436 
2588.200 13775391 13814417 13853343 13891829 13929839 13967476 14005356 
2591.576 14043992 14084035 14125382 14167555 14209492 14250200 14288790 
2594.951 14324780 14358205 14389268 14418417 14446299 14473190 14499808 
2598.326 14526770 14554935 14585087 14617983 14653830 14692249 14732488 
2601.701 14773486 14814316 14854465 14894034 14933744 14974862 15018662 
2605.077 15066307 15118279 15174652 15234736 15297987 15363513 15430971 
2608.452 15500191 15571414 15644537 15719322 15794979 15870271 15943857 
2611.827 16014431 16081475 16144849 16205138 16262785 16318273 16371291 
2615.202 16421424 16468156 16510800 16549451 16584804 16617713 16649283 
2618.578 16680168 16710743 16740909 16770354 16798974 16826802 16853806 
2621.953 16880260 16905718 16929764 16951572 16970728 16986956 17000738 
2625.328 17013282 17025720 17039332 17054806 17072484 17092130 17113462 
2628.703 17136348 17160372 17185810 17212804 17241074 17270310 17299754 
2632.079 17328790 17356342 17382034 17405658 17427594 17448288 17468156 
2635.454 17488336 17508896 17530250 17552330 17574720 17597010 17618576 
2638.829 17639384 17659640 17679690 17700638 17723452 17748476 17776194 
2642.204 17806156 17837984 17870818 17904206 17937838 17971542 18005212 
2645.580 18039026 18072910 18107142 18141896 18178034 18216386 18257888 
2648.955 18303264 18352550 18405400 18460818 18517624 18574508 18630396 
2652.330 18684874 18737628 18788554 18838308 18887344 18936836 18988028 
2655.705 19042098 19100542 19163664 19231612 19303170 19377134 19451838 
2659.081 19525686 19597780 19667876 19736076 19803038 19869592 19936054 
2662.456 20003116 20071196 20140534 20211480 20283654 20356950 20430918 
2665.831 20504830 20578756 20652622 20727164 20803316 20881776 20963206 
2669.206 21047536 21134250 21222722 21312150 21402048 21492384 21583434 
2672.582 21675514 21769288 21864612 21961596 22059926 22159046 22258536 
2675.957 22357842 22456542 22554216 22650726 22746384 22841506 22936996 
2679.332 23033626 23132270 23233558 23337526 23444562 23554318 23666970 
2682.707 23782872 23902094 24025028 24151848 24282562 24417064 24555114 
2686.083 24696470 24841168 24989390 25141034 25295926 25454036 25615016 
2689.458 25778726 25945242 26114814 26287724 26464226 26644110 26826994 
2692.833 27012072 27198886 27386910 27576322 27767476 27961012 28157284 
2696.208 28356758 28559510 28765366 28974116 29185908 29400534 29617890 
2699.583 29837520 30058826 30280918 30502768 30723736 30943570 31161986 
2702.959 31379334 31595514 31810582 32023766 32234446 32441262 32642856 
2706.334 32837972 33025452 33204354 33373992 33534426 33685500 33827748 
2709.709 33961620 34087436 34205292 34315292 34417392 34511552 34598056 
2713.084 34677432 34750004 34816268 34876300 34929512 34975080 35011860 
2716.460 35039012 35055824 35062288 35059020 35046840 35027052 35000836 
2719.835 34969268 34933604 34894932 34854720 34814296 34775384 34739664 
2723.210 34708904 34684648 34668388 34661428 34664548 34678368 34703096 
2726.585 34738664 34784608 34840648 34906136 34980720 35064192 35155908 
2729.961 35255688 35363116 35477364 35597540 35722676 35851556 35983032 
2733.336 36115736 36248912 36381692 36513796 36644860 36774700 36902844 
2736.711 37028756 37151856 37270908 37385044 37493792 37597296 37696084 
2740.086 37791464 37884732 37977404 38070532 38165200 38262096 38361832 
2743.462 38465104 38572208 38683752 38799604 38919904 39044228 39172176 
2746.837 39303244 39436748 39571636 39706712 39839756 39968484 40090384 
2750.212 40203372 40305920 40397076 40477048 40546268 40605564 40655812 
2753.587 40697292 40730844 40756540 40774664 40785328 40787908 40781576 
2756.963 40764796 40735900 40693292 40635724 40562636 40474140 40370388 
2760.338 40252152 40119632 39973316 39813824 39641872 39458484 39265160 
2763.713 39063804 38856160 38644456 38430604 38217152 38006628 37801696 
2767.088 37605280 37419892 37247436 37089636 36947148 36820212 36708928 
2770.464 36613172 36532720 36467164 36415780 36377480 36350600 36333600 
2773.839 36324444 36321528 36322968 36327328 36332660 36337272 36339184 
2777.214 36336228 36326572 36308344 36280644 36242176 36192796 36132444 
2780.589 36061728 35981736 35893696 35799240 35700412 35598584 35495380 
2783.965 35392052 35289432 35188460 35089624 34993616 34899816 34807836 
2787.340 34716120 34623064 34526440 34425176 34318196 34205328 34087008 
2790.715 33963984 33837312 33708024 33577096 33445988 33316356 33190190 
2794.090 33069250 32955740 32850656 32754890 32668900 32592888 32526996 
2797.466 32471790 32427836 32395634 32375678 32367788 32371822 32387174 
2800.841 32413416 32450258 32497466 32554746 32621104 32695048 32775008 
2804.216 32858986 32945442 33033028 33121380 33210148 33299040 33387482 
2807.591 33474442 33558444 33638348 33712356 33779612 33839212 33890364 
2810.967 33932492 33964488 33985304 33994156 33990140 33973196 33942920 
2814.342 33899892 33845048 33779756 33706128 33626820 33545130 33464708 
2817.717 33388880 33320896 33263444 33218984 33189510 33177350 33184252 
2821.092 33211902 33261370 33332560 33423658 33531814 33653136 33783480 
2824.468 33918808 34055792 34191312 34322820 34447916 34564328 34669752 
2827.843 34762640 34841724 34906892 34958564 34997856 35025616 35042820 
2831.218 35049968 35047740 35036604 35017676 34992108 34961544 34927680 
2834.593 34891880 34855008 34817956 34780944 34743792 34706720 34669536 
2837.969 34632684 34596188 34560632 34526976 34496056 34469296 34448096 
2841.344 34433928 34428260 34432600 34448312 34477008 34520128 34579576 
2844.719 34657228 34754888 34873860 35015092 35177752 35360096 35557872 
2848.094 35764552 35972592 36172088 36353304 36507384 36627304 36708748 
2851.469 36751368 36757608 36732400 36682464 36615188 36537656 36456388 
2854.845 36377224 36304488 36241668 36190888 36152896 36127152 36111664 
2858.220 36103852 36100648 36099064 36096472 36090640 36079692 36061872 
2861.595 36036024 36000668 35954452 35896436 35825756 35742212 35646492 
2864.970 35540144 35425556 35306544 35187020 35071736 34965280 34871848 
2868.346 34794620 34735972 34697280 34678652 34679476 34697960 34731628 
2871.721 34776820 34829948 34886712 34943084 34996056 35043360 35084020 
2875.096 35118184 35146636 35170420 35190432 35207248 35221120 35231720 
2878.471 35238548 35241388 35240092 35234956 35226688 35216376 35205596 
2881.847 35196220 35189716 35187668 35190864 35199632 35213752 35232796 
2885.222 35256264 35283720 35315312 35351036 35390936 35434792 35481968 
2888.597 35531228 35581212 35630160 35676416 35718684 35755740 35787580 
2891.972 35814532 35837560 35858428 35879156 35901076 35925044 35951248 
2895.348 35979072 36007508 36036168 36065328 36095964 36130068 36169388 
2898.723 36215196 36267352 36324768 36385116 36445360 36502732 36555136 
2902.098 36601096 36639668 36670492 36693132 36707412 36713360 36711452 
2905.473 36702364 36687328 36667320 36643384 36616272 36586536 36555136 
2908.849 36523204 36492752 36466116 36445504 36433112 36429652 36434696 
2912.224 36446660 36462732 36479452 36493036 36499380 36494768 36476208 
2915.599 36440856 36387420 36315372 36225860 36121136 36003912 35877720 
2918.974 35745232 35608688 35469276 35327208 35181992 35032872 34878740 
2922.350 34719600 34555932 34389164 34221820 34057228 33898744 33749564 
2925.725 33612464 33488720 33378180 33279900 33191550 33110048 33032280 
2929.100 32955166 32876138 32793838 32707694 32618854 32529284 32442584 
2932.475 32362756 32293652 32239046 32201576 32182592 32182484 32200542 
2935.851 32235336 32284908 32347120 32420054 32501712 32590032 32683760 
2939.226 32781512 32882750 32986838 33093278 33201386 33309952 33417076 
2942.601 33520144 33615864 33700400 33769300 33818044 33841716 33835592 
2945.976 33795944 33720560 33609208 33464454 33291380 33097136 32890364 
2949.352 32680046 32473576 32277520 32095964 31930960 31782738 31650710 
2952.727 31533762 31430590 31340338 31262490 31196412 31141516 31096880 
2956.102 31061002 31032568 31009932 30991892 30977942 30968192 30963284 
2959.477 30963638 30969546 30980718 30996374 31015166 31036020 31058584 
2962.853 31083034 31110228 31140876 31175512 31213964 31254944 31296640 
2966.228 31337346 31375382 31409648 31439922 31466250 31488656 31507182 
2969.603 31521682 31532016 31538464 31541672 31542670 31542920 31543560 
2972.978 31545200 31548548 31553358 31559594 31567112 31575914 31586282 
2976.354 31598006 31610514 31622238 31631074 31633784 31627048 31607840 
2979.729 31573598 31523146 31456594 31375382 31281934 31179536 31071538 
2983.104 30960898 30850144 30740592 30633024 30527188 30422728 30318506 
2986.479 30213670 30107120 29998394 29886714 29771798 29653118 29529998 
2989.854 29400888 29263878 29115818 28953786 28775136 28578726 28365142 
2993.230 28137734 27901826 27663678 27429614 27204214 26989578 26785478 
2996.605 26589118 26396828 26204762 26010178 25811742 25609496 25404430 
2999.980 25197844 24991216 24785528 24581726 24380858 24184112 23992882 
3003.355 23808526 23632366 23464566 23305186 23153728 23009450 22871856 
3006.731 22740486 22615540 22496600 22383728 22276010 22172750 22072790 
3010.106 21974910 21878376 21782734 21687810 21593950 21501402 21410610 
3013.481 21321892 21235698 21152376 21072508 20996450 20924470 20856674 
3016.856 20792886 20732550 20675280 20620064 20566526 20514314 20463324 
3020.232 20413728 20365770 20319762 20276084 20234842 20195998 20159622 
3023.607 20125784 20094654 20066406 20041942 20022130 20007870 19999926 
3026.982 19999092 20005302 20018002 20035280 20054850 20073242 20086880 
3030.357 20092362 20087018 20069286 20039098 19997356 19946184 19887352 
3033.733 19823048 19754730 19683650 19611194 19538268 19466358 19397022 
3037.108 19331334 19269952 19212702 19158748 19106738 19055254 19003362 
3040.483 18950750 18897554 18844504 18792844 18743576 18697602 18655852 
3043.858 18618672 18586336 18558496 18534292 18512680 18492246 18471950 
3047.234 18451310 18430670 18410864 18393266 18378854 18368034 18360222 
3050.609 18354174 18348264 18341004 18331742 18320198 18306856 18292688 
3053.984 18278244 18264004 18250320 18237534 18225958 18216248 18209270 
3057.359 18205778 18206332 18210790 18218668 18229240 18241714 18255366 
3060.735 18270018 18285844 18303056 18322272 18343942 18368380 18395928 
3064.110 18426280 18459364 18494424 18530694 18567108 18602658 18636552 
3067.485 18668096 18696980 18722924 18745654 18765304 18781530 18794538 
3070.860 18804434 18812012 18817514 18821770 18825092 18827584 18828864 
3074.236 18828828 18827618 18825402 18823154 18822082 18822946 18826060 
3077.611 18831112 18837098 18842496 18846166 18847550 18846856 18845162 
3080.986 18844158 18845230 18849176 18855784 18864194 18872742 18879732 
3084.361 18884058 18885788 18885752 18885684 18887760 18893782 18904580 
3087.737 18920464 18940296 18963070 18987544 19012848 19038708 19065190 
3091.112 19092230 19119930 19147770 19174988 19201134 19225930 19250038 
3094.487 19274560 19300990 19330712 19364490 19402426 19443694 19487010 
3097.862 19530816 19573932 19615424 19655222 19693254 19730146 19766556 
3101.238 19803072 19840286 19878542 19917946 19958222 19999126 20039964 
3104.613 20080392 20120370 20160074 20200234 20241336 20283792 20327922 
3107.988 20373582 20420222 20467492 20515078 20562496 20609814 20656514 
3111.363 20702280 20746590 20789134 20829768 20868982 20907398 20945992 
3114.739 20985528 21026704 21069136 21112580 21156478 21200350 21243980 
3118.114 21287442 21330700 21373646 21415694 21456142 21494576 21530786 
3121.489 21565014 21598374 21632258 21667922 21706026 21746538 21788830 
3124.864 21831510 21873392 21913606 21951838 21988538 22024440 22060624 
3128.240 22097786 22136626 22177214 22219094 22262026 22305274 22348562 
3131.615 22391786 22434944 22478664 22522946 22568806 22616412 22666192 
3134.990 22718174 22772084 22827466 22883590 22939582 22994706 23048372 
3138.365 23100120 23150268 23198988 23246842 23294312 23341512 23387982 
3141.740 23433546 23477820 23520492 23562398 23604622 23648530 23695628 
3145.116 23746788 23802156 23860996 23921980 23983568 24044604 24104108 
3148.491 24162042 24218408 24273872 24328710 24383488 24438374 24493760 
3151.866 24549714 24606482 24664098 24722352 24781038 24839764 24898360 
3155.241 24956928 25015468 25074404 25133698 25193420 25253010 25312048 
3158.617 25370284 25427792 25484990 25543214 25603204 25666438 25733126 
3161.992 25803128 25875778 25950026 26024286 26097642 26169006 26238058 
3165.367 26304656 26369152 26432074 26494300 26556078 26618110 26680470 
3168.742 26742978 26805318 26867352 26928902 26990246 27051636 27113422 
3172.118 27175852 27238714 27301762 27364538 27426648 27488030 27548572 
3175.493 27608346 27667386 27725446 27782348 27837878 27892250 27945674 
3178.868 27998860 28052898 28108606 28166582 28227254 28291048 28357750 
3182.243 28427540 28500030 28574904 28651100 28727522 28802858 28876050 
3185.619 28946418 29014214 29080248 29145654 29211742 29279652 29350014 
3188.994 29423190 29499252 29578270 29659858 29743766 29829324 29915820 
3192.369 30002228 30088050 30172964 30256974 30340430 30423616 30506926 
3195.744 30589718 30671888 30753146 30833780 30914608 30996944 31081968 
3199.120 31170492 31262528 31357184 31452962 31548652 31642732 31735006 
3202.495 31825378 31914200 32002040 32089184 32176062 32262888 32350120 
3205.870 32438014 32526818 32616604 32706622 32796342 32885466 32973826 
3209.245 33062026 33151242 33242412 33336352 33432890 33530920 33629328 
3212.621 33727076 33823524 33919524 34016120 34114748 34216224 34320492 
3215.996 34426572 34533292 34638820 34742428 34843984 34944020 35043180 
3219.371 35142504 35242716 35344064 35446372 35549420 35652640 35755668 
3222.746 35858072 35959888 36061296 36162904 36265336 36369660 36476208 
3226.122 36584800 36694540 36803800 36911216 37015696 37116952 37215564 
3229.497 37312788 37410108 37508636 37609144 37711300 37814636 37918140 
3232.872 38021200 38122944 38223340 38322240 38420252 38517928 38616352 
3236.247 38716244 38818624 38923200 39029616 39136788 39243544 39349460 
3239.623 39454200 39558932 39664704 39773336 39884972 39999544 40116108 
3242.998 40233504 40351332 40469664 40589592 40712540 40839960 40972156 
3246.373 41108536 41248172 41389348 41531332 41673760 41816972 41961360 
3249.748 42107436 42254624 42402116 42549036 42694220 42837140 42977916 
3253.124 43116724 43254228 43390888 43527452 43664680 43803560 43945056 
3256.499 44089932 44238156 44389112 44541300 44693092 44843032 44990672 
3259.874 45136376 45281320 45426940 45573968 45722036 45870496 46017820 
3263.249 46162612 46304548 46443504 46580032 46715344 46849784 46983784 
3266.625 47117008 47249020 47379076 47506988 47632688 47755868 47876864 
3270.000 47995560 48111516 48225056 48336296 48445304 48552744 48659140 
3273.375 48764816 48870480 48976288 49082560 49189600 49297228 49405100 
3276.750 49512560 49618708 49723168 49825612 49926556 50026852 50128068 
3280.125 50231128 50337040 50445916 50557060 50669676 50782732 50895708 
3283.501 51007932 51119736 51231384 51343396 51456480 51571348 51688856 
3286.876 51809836 51934544 52062948 52194528 52327904 52461700 52594672 
3290.251 52725816 52855276 52983616 53112140 53242356 53375532 53512196 
3293.626 53652728 53796492 53942516 54089828 54237380 54384416 54530716 
3297.002 54676764 54823272 54971376 55122196 55276420 55434084 55595200 
3300.377 55758744 55923748 56089680 56256016 56422828 56590992 56761220 
3303.752 56934916 57112988 57296084 57484744 57679008 57878396 58082384 
3307.127 58290256 58501864 58717148 58936708 59161084 59391092 59626996 
3310.503 59868392 60114676 60364792 60618296 60874880 61135352 61400636 
3313.878 61672348 61951492 62238464 62533388 62835752 63144840 63460596 
3317.253 63782752 64111336 64446240 64787024 65132492 65481320 65832092 
3320.628 66183180 66533856 66883004 67230696 67576600 67920664 68263208 
3324.004 68604248 68943944 69282296 69618920 69953112 70284336 70611560 
3327.379 70934120 71251328 71562560 71866624 72161712 72445560 72715504 
3330.754 72969384 73205952 73425080 73627672 73814880 73987368 74144312 
3334.129 74284168 74404688 74504032 74581608 74638072 74675648 74696696 
3337.505 74702800 74694536 74671000 74630320 74570552 74490424 74389664 
3340.880 74268600 74128392 73970000 73794376 73601880 73392632 73166384 
3344.255 72922584 72660000 72377104 72072640 71745752 71396784 71027528 
3347.630 70640528 70239696 69828256 69408816 68983016 68551320 68113768 
3351.006 67670608 67221944 66768384 66310272 65847628 65380008 64907312 
3354.381 64429908 63948876 63466808 62986992 62512884 62046884 61590476 
3357.756 61143668 60705700 60275020 59850324 59431172 59017128 58608448 
3361.131 58205496 57808252 57416328 57030080 56649276 56273932 55904716 
3364.507 55541956 55186300 54838348 54498860 54169060 53849600 53541356 
3367.882 53244116 52957492 52679764 52409508 52144648 51884172 51627096 
3371.257 51373568 51123876 50878088 50636688 50399140 50165408 49935256 
3374.632 49708716 49485784 49266532 49050768 48838112 48627676 48418928 
3378.008 48210916 48003816 47797368 47592124 47388316 47186220 46985848 
3381.383 46787152 46589988 46394572 46200940 46009456 45820340 45633772 
3384.758 45449636 45268156 45089544 44913760 44740728 44569972 44400968 
3388.133 44232692 44064148 43894500 43723632 43552100 43380604 43210412 
3391.509 43042960 42879196 42719552 42564420 42413040 42264704 42117696 
3394.884 41970484 41821092 41668696 41512520 41353444 41193268 41034240 
3398.259 40878728 40728076 40582752 40441696 40303376 40166008 40028392 
3401.634 39890020 39750932 39611596 39472380 39332988 39193136 39052128 
3405.010 38909724 38766128 38622036 38478176 38335160 38192768 38049916 
3408.385 37905844 37759152 37609400 37456732 37302064 37146728 36992136 
3411.760 36839580 36689492 36541980 36396576 36252872 36110296 35968128 
3415.135 35826188 35684472 35542876 35401540 35260684 35120304 34980288 
3418.510 34840500 34700796 34560772 34421016 34281908 34144856 34010744 
3421.886 33880692 33755224 33634124 33516746 33401080 33285766 33168658 
3425.261 33048618 32924928 32798092 32669290 32540352 32413058 32289046 
3428.636 32169282 32053440 31940662 31829584 31719002 31608626 31498774 
3432.011 31390804 31286206 31186122 31090794 30999400 30910694 30822684 
3435.387 30733728 30643194 30550756 30456704 30361570 30265428 30167850 
3438.762 30068094 29964738 29857042 29744370 29626830 29504960 29379758 
3442.137 29252358 29124288 28996006 28867692 28738602 28607496 28472328 
3445.512 28331400 28184120 28031270 27875326 27719584 27567672 27422416 
3448.888 27284580 27153242 27025930 26900028 26773144 26644322 26513918 
3452.263 26383272 26253896 26127094 26002228 25879260 25756436 25632238 
3455.638 25506108 25377696 25247498 25116038 24984266 24852852 24721724 
3459.013 24590982 24460352 24329622 24198406 24067052 23936228 23806882 
3462.389 23680370 23558130 23440926 23328820 23221148 23116440 23013012 
3465.764 22909508 22804942 22699148 22592120 22483898 22374518 22263454 
3469.139 22150120 22034096 21915940 21796322 21676386 21557876 21441452 
3472.514 21327774 21217050 21108822 21003334 20901002 20802028 20706832 
3475.890 20614784 20525220 20436580 20347922 20257824 20166252 20073312 
3479.265 19979524 19885270 19790726 19696028 19601144 19506800 19413792 
3482.640 19323022 19235316 19150230 19066782 18983216 18897346 18807306 
3486.015 18712164 18612136 18508080 18401322 18293310 18185600 18079092 
3489.391 17974408 17871922 17771602 17672546 17573720 17473468 17370206 
3492.766 17262932 17151478 17036300 16918982 16801144 16684093 16568728 
3496.141 16455423 16344523 16236264 16131438 16030727 15934164 15840922 
3499.516 15748868 15655631 15558157 15454558 15344290 15228731 15110526 
3502.892 14993143 14880146 14773658 14674838 14583305 14497650 14415642 
3506.267 14334472 14251775 14165706 14074999 13979862 13882045 13783941 
3509.642 13688252 13597167 13511568 13430499 13352314 13274861 13196636 
3513.017 13117230 13037258 12958290 12881419 12807360 12735327 12664124 
3516.393 12591910 12517320 12440016 12360577 12280336 12200824 12123064 
3519.768 12047159 11972765 11898520 11823471 11746733 11668407 11589416 
3523.143 11511392 11436001 11364875 11298692 11236735 11177541 11118389 
3526.518 11056457 10989947 10917807 10840447 10759840 10678330 10598501 
3529.894 10522318 10450833 10384482 10323301 10266978 10214904 10165889 
3533.269 10118066 10069096 10016503 9958356 9893809 9823682 9750345 9676648 
3537.126 9605573 9538505 9475444 9415575 9357577 9300602 9245021 9191614 
3540.984 9141969 9096154 9053592 9011777 8967700 8917845 8860013 8793129 
3544.841 8718276 8637893 8555193 8473895 8397070 8326777 8264027 8208106 
3548.698 8157764 8110095 8062328 8011631 7955912 7894734 7829347 7761913 
3552.556 7695534 7632841 7575822 7524541 7478491 7436188 7395405 7354222 
3556.413 7310617 7262972 7210010 7151598 7088074 7021159 6953378 6887527 
3560.271 6825994 6770595 6722236 6680679 6645149 6614062 6584996 6554821 
3564.128 6519234 6473022 6410842 6329371 6228287 6112271 5990408 5874724 
3567.986 5775424 5699445 5648049 5617302 5600117 5588202 5574878 5555043 
3571.843 5525880 5486484 5437530 5380362 5316761 5249213 5180568 5113644 
3575.700 5050719 4993267 4941218 4893330 4847793 4802563 4756734 4709536 
3579.558 4661975 4615558 4571457 4530842 4494181 4461541 4432752 4406810 
3583.415 4382645 4357442 4327958 4289909 4238613 4170897 4086167 3987475 
3587.273 3881852 3779062 3689028 3619394 3573255 3549135 3542521 3546229 
3591.130 3552409 3554781 3547899 3528524 3495689 3451100 3398167 3341200 
3594.988 3285075 3233397 3188167 3150051 3117645 3088745 3060448 3029917 
3598.845 2994851 2953816 2906780 2855548 2803254 2753101 2708721 2672647 
3602.702 2645277 2626409 2613842 2605108 2596808 2585875 2569243 2544079 
3606.560 2508319 2461365 2405054 2343487 2282528 2228504 2185544 2154042 
3610.417 2130700 2108958 2082422 2046134 1999463 1946407 1894722 1852293 
3614.275 1824975 1813795 1814560 1818786 1816756 1799921 1762392 1702712 
3618.132 1624481 1535225 1444991 1363184 1297776 1252216 1226131 1216462 
3621.990 1218721 1227992 1241582 1258031 1278069 1302860 1332539 1364247 
3625.847 1391437 1403736 1388279 1333669 1235601 1101279 951690 815066 
3629.704 716849 668695 666007 692655 730557 763349 780245 777821 758603 
3634.044 729030 696704 667268 643542 624793 609198 594234 579204 563976 
3638.384 549013 534582 520151 504460 486547 466180 444853 425351 411156 
3642.723 405683 410161 423924 444123 465517 482235 488770 480046 453046 
3647.063 406678 342542 264622 177568 88145 3611 -68813 -121816 -150170 
3651.402 -152025 -129766 -89717 -41249 4771 37575 48941 34394 -4406 -59272 
3656.224 -117146 -165373 -195049 -203991 -196208 -179085 -161200 -147951 
3660.082 -142850 -146129 -156364 -171236 -188425 -206409 -223332 -237373 
3663.939 -246579 -248434 -240917 -223497 -197467 -166367 -136093 -114827 
3667.796 -110090 -129468 -175111 -243268 -321546 -390905 -433309 -437049 
3671.654 -401266 -336478 -260587 -195446 -160604 -171865 -233631 -336379 
3675.511 -455420 -560895 -631142 -659595 -654103 -629653 -600900 -577241 
3679.369 -562185 -554475 -550041 -545275 -538657 -530747 -522838 -515292 
3683.226 -505927 -491199 -467302 -432813 -390176 -346476 -310719 -293037 
3687.083 -300951 -336379 -394182 -463331 -531674 -588360 -628826 -653507 
3690.941 -665881 -670248 -668990 -663068 -652548 -637924 -619925 -600702 
3694.798 -582139 -565693 -551960 -540014 -527901 -514167 -498083 -480376 
3698.656 -463993 -453037 -451216 -461808 -485341 -518999 -557586 -593422 
3702.513 -619562 -631406 -626808 -607518 -577341 -541006 -502981 -466839 
3706.371 -434832 -407655 -385906 -369949 -360845 -360448 -371505 -395837 
3710.228 -434203 -484778 -543224 -601694 -652151 -687186 -702403 -697739 
3714.085 -676401 -644144 -607187 -571451 -541238 -518172 -502319 -491133 
3717.943 -481832 -471705 -459425 -445722 -432846 -423246 -418777 -419506 
3721.800 -423710 -428245 -429966 -427119 -420035 -411396 -404941 -403683 
3725.658 -408714 -417586 -425563 -425663 -412620 -384350 -343099 -294627 
3729.515 -247175 -209886 -188524 -185775 -199023 -222040 -247175 -269296 
3733.373 -288170 -308401 -336743 -378027 -431091 -488353 -537730 -567248 
3737.230 -570921 -549147 -507846 -454228 -393454 -328300 -258931 -185212 
3741.087 -110686 -43966 894 5964 -43834 -152853 -305289 -466541 -591768 
3745.427 -650530 -637990 -571120 -477166 -382794 -310520 -273170 -275819 
3749.284 -313732 -377365 -454427 -533527 -606657 -666840 -707133 -721424 
3753.142 -705810 -661514 -594547 -515822 -437513 -369916 -320718 -292739 
3756.999 -284793 -292839 -312176 -338365 -368095 -397525 -421790 -435030 
3760.857 -431820 -409840 -372200 -325982 -282011 -250752 -239029 -248268 
3764.714 -272905 -303004 -327505 -339193 -336941 -326545 -316414 -314295 
3768.572 -325320 -348761 -379152 -408483 -428874 -436123 -430164 -413680 
3772.429 -391534 -368195 -346642 -328101 -312341 -298037 -283601 -268402 
3776.286 -252937 -239493 -231810 -233234 -246381 -270521 -301878 -333134 
3780.144 -356144 -365314 -358627 -339093 -312474 -286978 -268667 -261282 
3784.001 -264825 -276117 -290289 -302143 -308798 -308931 -303434 -294428 
3787.859 -283601 -273071 -263998 -257607 -254163 -253666 -254692 -254593 
3791.716 -250652 -240354 -223431 -201971 -180609 -165075 -160140 -167195 
3795.573 -184020 -202732 -214026 -209687 -186338 -147322 -100980 -60995 
3799.431 -41249 -52646 -99125 -174117 -260852 -335617 -377828 -378192 
3803.288 -340418 -278965 -212006 -159312 -135629 -148150 -193592 -258898 
3807.146 -323665 -368161 -381437 -363659 -323201 -271547 -218993 -170971 
3811.003 -127911 -87067 -45126 -1491 39928 71012 81749 63787 15473 -55330 
3815.825 -130230 -187365 -209787 -192399 -142353 -76665 -16632 18522 14512 
3820.165 -33696 -117775 -217602 -307110 -365083 -382165 -362931 -319824 
3824.022 -269395 -225551 -196837 -185246 -186802 -193625 -196374 -188723 
3827.879 -169348 -141624 -111812 -85874 -68582 -61293 -61757 -65501 -67621 
3832.219 -63778 -52017 -32834 -8581 16633 37840 50134 48643 30186 -5798 
3837.041 -55661 -112574 -166466 -207601 -230286 -233797 -222404 -203428 
3840.898 -184749 -172560 -169944 -176402 -188624 -201606 -209720 -208859 
3844.756 -196539 -172792 -138975 -97999 -53077 -6229 41320 90399 142400 
3849.095 198982 259649 320458 372520 402267 393379 330704 207965 34891 
3853.435 -158914 -334789 -459921 -519628 -519595 -476868 -410369 -334889 
3857.292 -260421 -192035 -131257 -78222 -32933 4705 34460 57027 72867 82909 
3862.114 87151 84433 72304 49770 17892 -16931 -45126 -56423 -44430 -9542 
3866.936 39696 88377 120922 124204 92950 33532 -36744 -95912 -128640 -130097 
3871.758 -108301 -77294 -51818 -41680 -47942 -63877 -77659 -77659 -56589 
3876.097 -14644 41850 102561 156752 195601 212872 207302 182275 146311 
3880.437 110482 86322 81948 99115 133318 173789 207766 221657 206573 161326 
3885.259 95701 27502 -23027 -40289 -20244 30186 95867 160033 207700 228751 
3890.080 220463 187778 141969 95867 61004 44335 46787 66074 97590 137196 
3894.902 180850 225038 266877 302884 329875 345626 349174 341713 326061 
3899.242 306564 287665 272115 260345 250432 238531 220662 194407 160199 
3903.581 121950 85792 59115 47152 52255 72669 103224 138058 170972 197954 
3908.403 217247 229348 236707 241879 247449 254544 263694 274602 286704 
3912.743 300032 313594 327156 339093 347516 350368 346057 334517 316744 
3917.082 295623 274237 255207 240255 230044 225005 225137 230906 242144 
3921.422 258190 276724 294528 307294 311870 306896 294131 277453 262500 
3925.761 254510 256102 267076 284515 304177 321817 334351 340121 339226 
3930.101 332395 320524 304774 286239 266479 248112 233492 225369 224574 
3934.441 230806 241813 254676 266744 276392 283554 289787 297181 307360 
3938.780 320856 336440 351429 362803 368109 365953 356867 343006 327487 
3943.120 313693 304310 300729 302387 307891 314589 319993 321817 319330 
3947.459 312798 303945 295225 289025 287035 289887 296982 306830 318435 
3951.799 330306 341879 352755 362803 371193 377494 380711 380744 377726 
3956.139 372785 367777 364329 363632 365754 369966 374642 378323 379948 
3960.478 379285 377129 374642 373150 373514 376201 380910 387078 393545 
3964.818 399382 403793 405915 405584 402831 397823 391655 385287 379849 
3969.157 375968 374344 374874 376997 380114 383596 386945 389565 391456 
3973.497 392484 392882 392683 391821 390395 388206 385387 381871 377958 
3977.837 374310 371525 370364 371492 374974 380611 387576 395402 403262 
3982.176 410857 418319 425815 433443 441072 448070 453510 456760 457225 
3986.516 455268 451619 447606 444156 442166 441437 441669 442100 442266 
3990.855 442266 441901 441934 442697 444621 447440 450923 454936 458651 
3995.195 462001 464854 467242 469365 471455 473909 477624 482434 488305 
3999.535 494873 501076 505521 
##END=
