
##TITLE=Z408_1_a
##JCAMP-DX=5.01  $$ Nicolet v. 1
##DATATYPE=INFRARED SPECTRUM
##ORIGIN=UniL
##OWNER=Nicolet
##LONGDATE=2011/09/16
##TIME=09:42:02
##SPECTROMETER/DATA SYSTEM=Nicolet iS5
##DATA PROCESSING=
Ratio against background
%Transmittance->Absorbance
Truncated
ElementMultiply or ElementDivide
##COMMENTS=
Number of sample scans: 32
Collection length: 51.12 sec
Sample gain: 2.0
Background collected on: Ven Sep 16 09:40:23 2011 (GMT+02:00);
Number of background scans: 32
Background gain: 2.0
Sample spacing:  1.000
Number of scan points: 12415
Resolution points: 8192
Number of FFT points: 65536
Apodization: N-B fort;
Phase correction: Mertz;
Laser frequency: 15798.0 cm-1
Number of rejected sample scans: 0
Number of rejected background scans: 0
Bench serial number: ASB1000141;
##RESOLUTION=4.000
##XUNITS=1/CM
##YUNITS=ABSORBANCE
##FIRSTX=649.893372
##LASTX=4000.122314
##FIRSTY=0.085607
##MAXX=4000.122314
##MINX=649.893372
##MAXY=0.314160
##MINY=-0.001063
##XFACTOR=1.000000
##YFACTOR=1.000000E-009
##NPOINTS=6950
##DELTAX=0.482117
##ZPD=6100
##XYDATA=(X++(Y..Y))
649.893 85607496 86043736 86568936 87208688 87960416 88796576 89682128 
653.268 90598712 91556544 92595016 93759936 95080896 96559424 98170104 
656.643 99879760 101672040 103561320 105585600 107788088 110189448 112777456 
660.018 115513680 118361152 121307008 124375864 127613632 131060944 
662.911 134717408 138533840 142417680 146275424 150038336 153658576 
665.803 157098368 160281792 163046800 165159456 166374064 166551344 
668.696 165732032 164094128 161840640 159109760 155966208 152434016 
671.589 148541040 144365168 140035120 135694928 131483584 127488552 
674.481 123739792 120232392 116951048 113892208 111069176 108501712 
677.374 106197384 104142424 102301696 100629120 99079656 97624808 96249120 
680.749 94946048 93709280 92525472 91376864 90248488 89135576 88048544 
684.124 87009016 86043048 85168432 84389880 83698216 83075408 82503520 
687.498 81967608 81457328 80964984 80477144 79974232 79430840 78819480 
690.873 78119248 77319216 76419736 75428560 74357768 73219920 72027072 
694.248 70794592 69543080 68295856 67079744 65918116 64825104 63806704 
697.623 62861560 61984740 61172044 60422292 59735604 59111576 58546492 
700.998 58032012 57556728 57109812 56683100 56273216 55881468 55511340 
704.373 55166360 54848348 54556712 54288964 54042624 53815284 53604704 
707.747 53408956 53224976 53049392 52879864 52715788 52562880 52433060 
711.122 52347232 52331492 52412944 52611840 52932220 53353504 53824208 
714.497 54270120 54601160 54727312 54585116 54147140 53434436 52509856 
717.872 51476548 50458904 49578704 48955220 48685380 48831920 49418988 
721.247 50414024 51722824 53175468 54553032 55618552 56145524 55987788 
724.621 55106508 53587724 51615568 49433580 47291836 45373636 43787068 
727.996 42555580 41640104 40968948 40467736 40081404 39772208 39516940 
731.371 39299944 39103936 38912656 38715084 38509384 38303820 38112420 
734.746 37948188 37816188 37712384 37625764 37545412 37465148 37385044 
738.121 37309176 37241124 37180188 37121032 37057264 36986256 36911468 
741.496 36842936 36792012 36765252 36760996 36769580 36777620 36774268 
744.870 36756236 36727604 36698256 36676764 36666276 36664400 36666236 
748.245 36667608 36669556 36677416 36696704 36728936 36769144 36806112 
751.620 36827928 36828724 36811232 36787860 36773760 36782524 36819780 
754.995 36883656 36967132 37064480 37174592 37301268 37449440 37620740 
758.370 37810588 38009952 38210028 38408272 38611244 38833732 39092736 
761.744 39399488 39756524 40158084 40596252 41069056 41586752 42171768 
765.119 42858312 43685416 44688504 45899952 47340240 49013228 50895336 
768.494 52928744 55021956 57054188 58915988 60548964 61987800 63374704 
771.869 64940520 66947484 69571392 72819560 76448776 80001112 82839680 
775.244 84309648 83960608 81641192 77584272 72303752 66498140 60846788 
778.619 55851508 51827272 48856428 46854252 45634580 44991076 44748848 
781.993 44774888 44989752 45347484 45818240 46382812 47029492 47755940 
785.368 48568752 49481148 50506696 51654152 52928216 54334288 55883348 
788.743 57598872 59515296 61671512 64108184 66860244 69956112 73424728 
792.118 77298592 81613040 86403344 91687072 97447200 103610024 110043120 
795.493 116547384 122855680 128675936 133691472 137595104 140151696 
798.385 141217184 140787584 139002656 136145184 132593944 128736912 
801.278 124952432 121525896 118609520 116224192 114257976 112511928 
804.171 110734344 108705768 106289512 103464176 100331120 97082264 93952168 
807.546 91131448 88729384 86741456 85061488 83512360 81898024 80070480 
810.920 77947376 75530944 72886096 70116896 67330152 64610116 62019252 
814.295 59594804 57357112 55320000 53492596 51879616 50479600 49284532 
817.670 48280524 47451472 46783724 46268240 45899252 45673596 45587104 
821.045 45633884 45808484 46108560 46538612 47110804 47844048 48759812 
824.420 49875560 51201224 52732512 54449804 56309916 58246340 60170084 
827.794 61964640 63506192 64681144 65401344 65635956 65418608 64852260 
831.169 64082764 63285844 62640316 62288824 62333500 62814312 63702672 
834.544 64896388 66224128 67477200 68412552 68807856 68509296 67451160 
837.919 65682284 63345528 60659020 57855228 55138600 52671384 50544140 
841.294 48788060 47390568 46314388 45512148 44935552 44542328 44293156 
844.669 44151732 44089712 44085860 44129064 44218128 44356488 44547796 
848.043 44791348 45081236 45408840 45767912 46156684 46579664 47044628 
851.418 47558888 48125396 48742500 49405512 50110776 50858940 51655716 
854.793 52509744 53429788 54422800 55493040 56645724 57890776 59243908 
858.168 60729092 62375420 64212704 66272056 68584024 71177080 74078952 
861.543 77307728 80860992 84696096 88718040 92772536 96635752 100054688 
864.917 102769232 104540872 105210552 104709512 103077680 100450696 97048744 
868.292 93145000 89006264 84887496 80994416 77460928 74368424 71743416 
871.667 69574808 67828424 66460492 65427080 64685404 64197680 63931064 
875.042 63854984 63944808 64183124 64559020 65069592 65716164 66499992 
878.417 67417416 68457120 69597912 70812136 72066144 73323976 74553600 
881.792 75725560 76818400 77820800 78731696 79560280 80320928 81030144 
885.166 81699976 82335280 82936976 83506616 84053200 84599984 85182256 
888.541 85842376 86621272 87544384 88616448 89818568 91115464 92460576 
891.916 93805912 95111168 96340520 97462752 98450576 99274752 99908080 
895.291 100328280 100518432 100470616 100186248 99676304 98962664 98078816 
898.666 97073976 96007224 94943784 93949776 93076312 92357280 91805016 
902.040 91413096 91162920 91032888 91005712 91071336 91226280 91472032 
905.415 91811000 92246016 92780504 93420520 94175224 95055160 96070672 
908.790 97227808 98527600 99966592 101540872 103248944 105094680 107085808 
912.165 109231120 111537464 114007608 116642896 119448688 122439064 
915.058 125641168 129094216 132839936 136918944 141359216 146170752 
917.950 151340768 156829664 162568672 168440976 174280320 179875456 
920.843 184959968 189266704 192572096 194740208 195779968 195860464 
923.736 195316432 194573024 194115120 194423760 195870544 198704304 
926.628 202993424 208617008 215248368 222372864 229377408 235538576 
929.521 240145456 242613248 242497168 239589312 233928240 225790064 
932.414 215647120 204097456 191838320 179534000 167767936 157024688 
935.306 147613280 139703984 133349464 128509848 125099320 123014336 
938.199 122158432 122434720 123731024 125907736 128755272 131990712 
941.092 135290080 138279968 140614176 142034416 142387696 141669248 
943.985 140005952 137639136 134859312 131955968 129190120 126739872 
946.877 124705008 123114856 121945064 121142448 120644352 120398144 
949.770 120360808 120498968 120787200 121199736 121711576 122301344 
952.663 122952328 123655872 124409448 125213000 126064536 126957400 
955.555 127880648 128823280 129778208 130744640 131727456 132733408 
958.448 133765904 134822560 135895424 136974592 138053520 139132256 
961.341 140216864 141314944 142431904 143566832 144713280 145862720 
964.233 147009536 148154368 149303984 150466688 151647888 152846736 
967.126 154056496 155269184 156479968 157690704 158909696 160147680 
970.019 161411488 162702576 164015920 165345888 166690464 168054832 
972.912 169449520 170886640 172373248 173908080 175482608 177085984 
975.804 178711152 180358640 182035200 183748336 185500336 187284224 
978.697 189084784 190883280 192664768 194422256 196154992 197863904 
981.590 199545296 201186784 202771120 204281424 205709504 207060432 
984.482 208350816 209602720 210833888 212054384 213266592 214470624 
987.375 215670592 216879056 218113584 219392096 220723760 222106768 
990.268 223528880 224975696 226438288 227917248 229420976 230958624 
993.160 232532784 234135824 235752352 237366464 238971072 240571456 
996.053 242182928 243821664 245496736 247204752 248932352 250663424 
998.946 252389168 254112128 255845280 257604128 259397504 261224272 
1001.839 263075088 264940912 266820640 268724704 270671136 272677024 
1004.731 274748416 276876256 279039264 281216480 283394912 285575296 
1007.624 287767872 289983008 292219072 294459680 296674176 298829408 
1010.517 300901056 302876704 304752352 306522752 308170240 309662464 
1013.409 310960896 312031168 312859072 313454496 313847808 314073664 
1016.302 314159680 314120224 313957888 313674464 313280864 312798880 
1019.195 312256992 311680160 311078656 310449888 309785920 309087680 
1022.087 308377280 307700832 307115104 306678656 306431328 306386176 
1024.980 306533152 306847808 307302304 307867200 308511456 309192192 
1027.873 309842912 310380160 310707008 310725408 310359648 309555456 
1030.766 308280800 306519552 304261920 301505312 298261184 294563648 
1033.659 290475936 286078912 281464768 276712960 271875008 266975488 
1036.552 262015584 256987152 251885808 246718352 241504032 236272160 
1039.446 231056800 225896912 220840048 215937408 211242784 206801824 
1042.339 202633936 198723504 195011696 191410176 187810544 184112240 
1045.232 180249376 176197312 171978912 167651776 163299024 159009360 
1048.125 154861488 150925808 147252624 143871376 140794192 138013536 
1051.018 135507008 133239672 131174800 129277216 127518208 125878944 
1053.911 124346744 122910856 121560704 120281864 119058208 117875280 
1056.804 116721312 115589080 114474504 113372976 112277664 111179376 
1059.697 110068272 108938408 107790256 106632112 105477528 104341416 
1062.590 103237520 102175024 101159800 100196392 99289328 98443216 97660736 
1065.965 96938712 96265376 95619744 94976152 94308016 93595128 92828464 
1069.341 92011456 91158216 90289000 89428016 88599504 87824960 87124856 
1072.716 86515632 86008960 85611328 85322248 85135016 85037752 85016440 
1076.091 85055448 85136944 85241400 85343184 85410536 85410288 85309824 
1079.466 85085912 84731536 84258312 83696000 83084024 82469424 81897344 
1082.842 81406128 81030504 80798576 80734560 80860392 81194408 81751128 
1086.217 82541872 83573800 84850120 86368344 88117256 90069592 92173000 
1089.592 94352480 96503320 98501336 100228688 101580632 102490528 102942184 
1092.967 102968808 102648888 102085368 101402040 100719352 100140096 
1095.860 99751336 99610784 99749000 100171184 100858728 101771000 102844168 
1099.236 103998888 105136632 106140224 106892088 107273376 107182016 
1102.129 106554736 105371552 103665968 101514080 99029752 96342256 93572352 
1105.504 90832792 88210456 85763608 83528904 81519696 79732272 78149392 
1108.879 76745488 75490656 74352856 73304016 72320112 71381472 70473728 
1112.254 69585584 68708016 67834624 66962132 66091584 65228356 64381944 
1115.630 63563952 62784256 62051356 61370300 60743308 60171608 59656756 
1119.005 59201032 58807468 58478476 58215272 58016372 57878208 57793832 
1122.380 57751892 57736604 57723852 57680672 57569436 57348376 56980060 
1125.755 56440716 55723520 54843044 53829984 52728960 51588736 50452356 
1129.131 49356436 48325040 47370020 46493616 45690636 44951060 44262040 
1132.506 43610308 42984392 42375008 41778084 41193524 40625540 40080172 
1135.881 39563724 39081388 38635980 38229200 37861592 37534176 37248632 
1139.256 37006816 36810076 36658736 36552000 36488608 36467812 36489828 
1142.632 36555892 36667392 36824756 37026232 37267800 37544076 37848940 
1146.007 38175728 38518400 38869712 39221060 39562812 39884140 40175128 
1149.382 40429768 40645696 40825400 40974192 41099472 41208608 41308184 
1152.757 41404432 41503804 41612020 41734748 41875748 42035852 42212592 
1156.133 42401056 42595232 42789312 42978796 43160420 43330588 43484416 
1159.508 43615112 43713924 43772664 43783920 43743056 43647532 43496536 
1162.883 43289588 43025876 42705440 42329168 41900452 41426084 40914952 
1166.258 40376788 39821776 39258560 38694620 38137236 37593788 37072132 
1169.634 36580948 36127436 35716884 35352296 35034344 34762820 34537636 
1173.009 34360548 34234692 34163816 34151412 34199844 34310772 34485760 
1176.384 34727932 35042212 35435224 35914788 36487740 37159616 37934556 
1179.759 38816960 39812376 40929224 42177648 43568804 45113400 46819372 
1183.135 48693016 50738676 52959100 55353644 57915196 60627476 63457720 
1186.510 66356056 69259904 72089264 74757344 77178768 79264176 80934968 
1189.885 82126984 82793016 82914552 82503680 81605048 80287600 78638680 
1193.260 76756080 74729008 72637752 70546032 68494048 66503316 64577864 
1196.635 62709636 60884600 59089560 57318088 55573096 53868168 52223600 
1200.011 50665060 49216544 47896508 46717232 45682576 44789876 44031548 
1203.386 43397408 42875796 42452352 42112144 41836964 41606700 41402032 
1206.761 41205292 41002556 40785688 40550812 40298104 40029480 39748648 
1210.136 39460296 39170868 38889428 38627688 38398316 38215308 38091364 
1213.512 38036932 38061416 38172868 38378412 38685312 39099148 39623288 
1216.887 40257896 41000084 41844884 42787776 43826212 44960540 46193164 
1220.262 47527208 48965012 50507364 52155072 53910104 55777548 57764952 
1223.637 59881740 62135456 64528808 67057320 69708456 72461936 75286920 
1227.013 78144872 80985864 83745504 86352944 88730520 90800080 92498248 
1230.388 93775688 94605248 94984352 94936280 94512848 93789752 92874544 
1233.763 91896232 90989984 90301592 89963648 90085984 90761248 92054208 
1237.138 94006720 96642416 99966216 103963952 108594368 113791048 119452480 
1240.514 125438464 131591720 137728400 143651328 149173344 154104544 
1243.407 158269376 161527024 163769216 164940304 165039376 164118608 
1246.300 162270848 159613824 156290736 152451760 148246368 143825136 
1249.193 139311456 134790832 130299640 125817848 121277264 116578496 
1252.086 111628072 106358368 100753912 94858200 88771904 82637360 76604320 
1255.461 70825360 65426848 60491180 56063968 52148456 48716180 45716072 
1258.836 43087164 40768620 38701064 36836656 35138480 33578992 32140918 
1262.212 30813186 29587740 28457398 27413908 26447780 25550138 24713690 
1265.587 23933848 23208706 22537640 21919914 21353494 20834670 20359450 
1268.962 19924988 19530608 19177760 18868970 18606048 18389570 18217768 
1272.337 18088352 17999860 17952722 17949718 17994680 18090942 18240300 
1275.713 18441700 18690754 18979512 19297040 19627002 19948890 20240086 
1279.088 20476868 20640148 20720108 20717432 20643448 20514452 20348442 
1282.463 20157298 19945734 19711458 19449238 19155284 18831700 18486264 
1285.838 18131878 17783994 17455324 17156272 16893900 16672766 16496722 
1289.214 16368056 16287345 16251709 16254151 16286314 16338639 16404701 
1292.589 16482577 16574029 16682887 16812750 16964974 17138244 17331270 
1295.964 17543946 17779300 18043136 18342940 18684664 19072426 19508048 
1299.339 19992224 20525916 21110632 21745598 22425314 23135030 23851824 
1302.715 24543368 25173862 25711398 26129768 26414292 26561820 26579714 
1306.090 26484052 26296982 26046802 25763712 25477578 25216244 24999710 
1309.465 24839098 24736102 24685246 24676724 24699976 24747258 24812260 
1312.840 24889588 24973668 25056396 25128886 25183552 25214804 25221160 
1316.216 25203848 25165190 25106944 25029612 24933520 24820152 24694224 
1319.591 24563632 24437462 24323840 24227588 24149292 24087470 24041032 
1322.966 24012036 24007310 24038124 24116226 24253584 24459476 24740488 
1326.341 25102206 25549154 26082722 26698510 27381440 28105354 28830936 
1329.717 29514608 30115962 30603442 30962498 31195806 31320572 31361886 
1333.092 31348384 31308216 31264558 31237746 31244796 31298670 31409218 
1336.467 31582042 31819530 32123222 32495964 32943942 33477016 34106040 
1339.842 34838060 35674220 36606972 37621788 38697660 39810160 40931192 
1343.218 42025156 43053136 43973432 44745028 45338548 45738460 45945292 
1346.593 45971592 45835988 45555496 45139576 44590132 43903700 43077352 
1349.968 42114084 41026844 39838372 38581512 37293688 36011504 34772116 
1353.343 33607560 32544638 31605988 30806534 30152648 29641090 29260334 
1356.719 28994092 28825130 28741470 28735946 28805940 28950174 29165002 
1360.094 29443188 29776908 30160180 30593630 31086094 31652636 32308110 
1363.469 33061132 33912108 34853176 35871636 36951800 38075920 39220516 
1366.844 40348572 41411432 42346808 43083796 43559976 43725940 43554080 
1370.219 43041060 42205068 41082972 39722976 38189836 36560796 34918560 
1373.595 33354670 31951290 30766982 29831276 29140978 28672018 28392768 
1376.970 28280686 28330126 28555088 28985626 29663370 30639316 31964876 
1380.345 33689800 35850044 38447840 41427396 44650128 47908608 50919140 
1383.720 53370100 54985288 55531824 54874512 52998400 50036632 46268204 
1387.096 42066516 37853640 33975236 30644188 27939456 25826652 24212454 
1390.471 22983458 22039882 21301882 20710482 20228142 19829914 19501634 
1393.846 19237948 19038222 18904338 18837410 18835956 18895582 19009938 
1397.221 19170556 19367052 19587106 19815522 20037640 20242340 20424182 
1400.597 20584104 20726156 20855354 20974436 21084162 21184450 21276758 
1403.972 21365396 21457466 21559340 21674436 21800884 21933470 22066270 
1407.347 22197508 22331156 22476710 22645490 22845976 23080866 23346408 
1410.722 23635306 23940992 24261574 24600942 24965772 25361644 25790014 
1414.098 26247068 26727580 27228378 27752076 28307846 28909410 29570324 
1417.473 30299000 31094922 31946830 32834504 33733700 34621196 35476356 
1420.848 36282516 37026268 37700784 38309608 38873444 39432176 40042924 
1424.223 40764544 41641888 42698240 43932516 45332184 46884032 48582500 
1427.599 50424260 52397432 54473320 56598128 58700568 60712520 62583292 
1430.974 64295372 65862516 67324080 68730064 70129864 71572568 73107536 
1434.349 74791904 76697528 78902600 81473640 84439416 87762432 91351064 
1437.724 95094752 98895752 102677264 106361000 109853584 113013840 115657280 
1441.100 117599488 118666080 118738856 117774712 115798624 112895008 
1443.993 109185064 104827896 99995704 94855272 89578840 84325176 79246480 
1447.368 74502544 70235288 66549464 63487320 61020176 59066480 57524420 
1450.743 56313124 55388616 54748208 54413036 54406164 54730844 55368928 
1454.118 56283776 57435916 58797340 60342024 62040272 63843624 65683320 
1457.494 67488120 69208456 70834488 72379920 73867392 75316984 76740584 
1460.869 78141184 79509544 80827344 82057256 83138992 83999960 84561576 
1464.244 84769640 84619632 84166120 83504128 82729152 81918032 81113808 
1467.619 80332208 79575800 78838872 78107472 77353616 76530096 75572544 
1470.995 74412232 73009760 71388072 69650848 67951304 66439368 65209644 
1474.370 64284920 63641288 63241608 63063040 63105836 63389272 63932912 
1477.745 64746828 65822684 67140416 68675304 70409936 72340744 74475320 
1481.120 76827856 79410840 82230232 85285432 88576424 92111064 95911464 
1484.496 100008720 104426488 109161976 114153024 119249104 124222264 
1487.389 128750328 132450536 134945552 135889632 135058912 132420464 
1490.282 128165840 122682880 116441576 109903472 103404688 97127304 91149848 
1493.657 85468056 80054224 74909296 70075080 65644084 61738536 58466004 
1497.032 55882520 53976956 52693304 51951608 51675348 51805316 52293556 
1500.407 53098252 54179456 55490108 56977076 58586116 60247464 61878736 
1503.783 63378544 64594240 65323436 65317152 64323960 62212228 59079916 
1507.158 55258208 51151980 47070920 43161664 39446216 35900144 32505426 
1510.533 29265048 26215074 23405324 20874474 18644714 16711744 15051659 
1513.908 13631082 12414205 11367018 10454125 9642905 8908239 8236471 7631054 
1517.766 7106059 6675665 6342080 6089858 5885438 5689239 5467895 5213564 
1521.623 4949663 4718479 4554112 4463984 4429371 4417254 4397941 4353493 
1525.481 4285358 4209505 4147146 4111153 4099680 4100182 4098409 4088575 
1529.338 4076166 4074226 4095398 4143332 4208701 4271036 4305469 4296367 
1533.196 4245572 4175413 4115367 4088374 4100349 4141960 4197126 4252465 
1537.053 4300885 4342482 4380067 4413438 4433957 4426158 4376753 4288336 
1540.910 4182238 4087371 4025598 3999748 3995835 3990652 3964603 3909835 
1544.768 3834683 3758173 3700992 3674693 3677132 3696046 3715997 3726557 
1548.625 3725588 3719973 3719873 3732573 3757003 3784243 3801824 3800822 
1552.483 3779530 3744403 3707074 3679037 3667475 3672721 3690131 3713758 
1556.340 3738655 3759310 3766261 3743535 3670683 3536909 3357327 3172547 
1560.198 3026480 2942707 2922625 2950647 3004626 3061616 3104630 3126122 
1564.055 3129259 3125988 3130894 3154223 3196979 3251757 3306676 3352152 
1567.912 3382806 3399836 3408052 3414263 3423213 3438275 3462589 3501301 
1571.770 3560527 3645389 3757170 3891213 4035865 4175547 4296066 4390175 
1575.627 4464085 4536634 4631834 4765175 4939978 5150659 5390225 5656139 
1579.485 5952179 6286003 6665572 7095416 7574372 8097300 8656315 9244040 
1583.342 9851101 10464069 11062508 11616948 12094446 12466100 12713388 
1586.717 12835378 12849201 12789411 12700457 12631102 12631614 12744710 
1590.093 13005676 13439624 14055594 14842601 15762027 16752342 17724348 
1593.468 18575926 19213290 19556188 19558302 19214674 18561230 17667646 
1596.843 16619161 15509874 14421259 13416111 12541533 11824287 11275806 
1600.218 10894804 10671709 10592627 10644068 10817143 11106831 11509691 
1603.594 12019941 12625610 13306394 14036497 14783873 15511728 16182747 
1606.969 16754065 17183088 17432940 17474882 17295652 16899724 16309809 
1610.344 15563858 14711032 13809730 12914221 12068962 11304270 10631097 
1613.719 10046206 9535830 9082282 8667097 8276083 7905903 7563111 7263107 
1617.577 7022472 6851946 6752220 6714967 6725433 6766321 6821619 6878067 
1621.434 6929104 6975499 7024762 7086727 7169249 7274900 7401169 7543050 
1625.292 7696546 7860015 8032490 8212091 8393624 8568846 8729027 8868773 
1629.149 8989146 9096966 9201632 9311637 9430542 9556220 9681053 9794637 
1633.006 9885945 9943540 9957915 9921437 9832663 9698468 9535966 9368445 
1636.864 9215982 9089996 8991040 8911384 8838473 8759014 8663717 8549212 
1640.721 8420278 8286755 8160397 8049333 7954832 7871385 7788156 7693005 
1644.579 7573967 7423481 7239994 7029611 6805597 6586510 6393423 6242606 
1648.436 6144229 6100745 6106928 6151555 6215984 6276153 6299383 6249598 
1652.293 6102392 5866597 5593841 5350774 5180434 5085650 5045087 5033154 
1656.151 5030104 5025645 5015456 4999669 4979860 4957505 4932739 4904556 
1660.008 4871349 4831074 4781758 4720824 4647072 4561311 4468504 4377691 
1663.866 4300081 4245606 4219040 4219040 4238379 4266351 4289808 4297137 
1667.723 4280840 4238546 4174142 4095800 4014060 3938054 3874564 3828064 
1671.581 3800187 3789190 3789424 3791062 3780500 3743668 3671920 3568177 
1675.438 3449129 3337427 3253360 3204656 3186198 3184796 3186498 3182827 
1679.295 3172880 3164203 3167240 3190137 3232362 3282838 3319797 3317794 
1683.153 3254495 3124353 2946944 2762270 2610108 2509052 2456267 2436441 
1687.010 2433275 2433342 2428111 2413517 2388029 2352848 2311374 2270270 
1690.868 2237863 2222610 2230203 2260744 2307876 2358511 2396192 2405387 
1694.725 2377434 2317636 2246922 2193470 2176852 2200929 2252584 2310808 
1698.583 2349417 2345219 2286392 2180182 2055988 1948970 1883906 1865105 
1702.440 1881643 1916620 1953630 1979225 1983985 1965345 1928235 1883740 
1706.297 1844440 1820050 1814461 1825807 1848134 1874755 1901078 1926005 
1710.155 1952365 1984351 2026560 2080757 2146184 2219279 2295685 2372437 
1714.012 2447837 2521483 2592209 2655678 2704020 2727726 2719857 2681249 
1717.870 2623376 2564943 2522749 2507019 2518650 2551678 2597342 2647644 
1721.727 2697819 2746031 2792916 2840006 2888335 2937836 2987511 3036490 
1725.584 3085174 3134065 3183494 3232429 3277931 3316258 3344672 3362737 
1729.442 3374357 3384876 3399636 3419306 3438108 3442483 3412794 3330615 
1733.299 3185831 2988712 2769540 2569276 2418482 2325831 2282694 2270870 
1737.157 2272369 2271636 2258646 2229937 2188541 2142388 2101333 2073866 
1741.014 2064011 2071835 2094141 2126671 2165031 2206391 2249887 2296418 
1744.872 2347984 2406120 2470696 2539147 2607308 2669847 2722258 2761570 
1748.729 2786847 2798218 2795484 2778677 2748466 2707787 2662746 2621509 
1752.586 2591409 2576576 2576043 2583642 2589509 2583676 2558311 2512118 
1756.444 2450069 2383398 2323899 2278797 2249154 2229504 2211486 2186410 
1760.301 2148148 2094807 2028657 1955460 1882109 1816024 1762092 1723569 
1764.159 1701547 1694495 1698753 1708134 1715618 1715119 1704242 1685381 
1768.016 1665956 1654581 1656510 1671178 1691335 1705872 1703443 1677664 
1771.874 1631200 1576027 1527844 1498983 1494129 1510387 1540579 1577889 
1775.731 1618362 1661067 1707003 1756803 1808671 1858516 1901245 1932994 
1779.588 1952498 1962416 1967875 1974565 1986215 2003025 2022964 2042805 
1783.446 2059683 2072368 2081423 2087949 2093842 2099902 2107559 2118014 
1787.303 2133697 2156273 2187142 2225207 2266273 2303579 2328929 2334592 
1791.161 2316171 2275033 2217647 2153776 2093542 2043637 2006420 1980723 
1795.018 1963814 1952664 1944443 1936888 1928035 1916454 1901245 1882242 
1798.875 1860446 1837752 1815658 1795628 1777929 1762458 1748951 1737873 
1802.733 1730455 1728160 1732251 1742697 1758167 1777130 1797625 1818686 
1806.590 1840514 1863807 1889131 1915755 1942014 1965345 1983352 1995302 
1810.448 2002326 2006687 2011447 2018470 2028690 2041773 2056654 2073300 
1814.305 2092310 2115117 2143320 2177851 2218713 2264741 2314239 2365574 
1818.163 2417149 2468263 2517784 2564943 2609275 2650911 2690584 2729326 
1822.020 2767506 2803721 2835170 2857482 2866954 2863019 2849144 2833269 
1825.877 2823964 2828133 2846943 2876594 2908048 2930965 2937670 2925461 
1829.735 2898875 2867488 2842674 2832635 2840539 2864453 2899642 2941639 
1833.592 2986576 3033053 3080803 3130360 3182426 3237670 3296827 3361101 
1837.450 3432431 3512825 3603925 3706472 3820543 3945510 4080715 4225397 
1841.307 4378193 4536567 4696440 4852752 5001210 5139963 5270979 5400054 
1845.165 5533733 5675173 5823375 5972872 6115564 6242539 6347964 6428798 
1849.022 6484894 6518326 6530637 6522093 6491957 6439022 6363094 6266405 
1852.879 6152967 6027699 5894675 5756520 5613946 5467358 5317767 5167859 
1856.737 5021154 4881166 4748895 4622792 4499337 4374511 4246777 4117240 
1860.594 3989749 3869349 3759610 3661661 3573923 3494119 3420742 3354556 
1864.452 3298262 3254428 3223917 3204323 3190170 3175117 3154323 3127023 
1868.309 3096988 3070458 3053507 3049003 3055977 3069591 3084841 3098089 
1872.167 3107133 3111471 3111471 3106699 3096754 3081170 3060381 3035356 
1876.024 3008263 2979771 2949546 2915286 2873525 2821396 2758836 2687950 
1879.881 2613175 2539180 2468863 2402489 2337924 2272369 2203960 2133930 
1883.739 2065909 2004423 1953530 1914823 1887301 1867867 1853258 1841013 
1887.596 1829966 1819385 1808704 1797259 1784549 1771474 1760662 1756536 
1891.454 1762891 1782021 1812897 1850995 1889797 1924374 1951766 1973067 
1895.311 1992739 2014909 2042372 2074998 2109657 2143187 2173855 2202528 
1899.168 2232201 2266040 2305645 2349716 2394892 2437307 2474061 2505220 
1903.026 2533214 2559977 2587242 2614942 2640843 2663979 2684016 2702653 
1906.883 2722458 2745065 2769540 2792516 2809057 2815026 2809424 2794350 
1910.741 2774275 2753667 2735962 2721591 2709788 2700319 2693851 2692984 
1914.598 2700252 2715356 2734428 2750600 2755168 2742130 2711188 2668246 
1918.456 2623309 2585576 2559811 2543946 2532248 2516751 2492656 2459732 
1922.313 2421680 2384897 2353747 2329096 2307677 2286058 2261011 2233567 
1926.170 2207723 2188874 2180649 2183413 2193736 2205891 2215150 2218846 
1930.028 2216815 2211220 2204193 2196200 2187542 2178451 2169393 2163233 
1933.885 2162467 2167961 2177918 2187775 2192104 2187142 2174055 2157438 
1937.743 2145451 2145085 2159336 2185411 2216981 2246056 2266773 2277698 
1941.600 2281295 2281695 2283127 2286991 2292520 2299016 2306544 2317803 
1945.458 2336158 2364575 2402555 2445837 2487957 2522083 2544513 2555711 
1949.315 2558011 2555644 2552012 2548045 2543879 2540180 2538280 2540913 
1953.172 2550579 2567043 2586409 2602675 2609242 2603242 2587342 2567877 
1957.030 2554045 2552545 2564444 2584509 2605175 2618975 2623275 2621875 
1960.887 2621042 2627309 2643710 2668080 2695118 2720691 2742730 2762937 
1964.745 2784412 2808523 2832402 2850511 2855514 2843808 2818595 2788514 
1968.602 2764538 2755301 2762137 2779044 2797885 2808690 2808056 2798819 
1972.459 2788114 2784012 2791782 2813659 2848744 2898842 2967493 3060915 
1976.317 3183094 3332051 3495389 3653274 3782705 3866140 3896027 3874899 
1980.174 3812421 3721878 3614482 3497493 3376595 3257499 3145646 3049370 
1984.032 2974700 2924627 2896006 2882231 2874659 2867955 2861718 2860150 
1987.889 2869089 2892437 2927729 2968595 3006528 3035289 3054341 3069090 
1991.747 3088178 3118746 3162433 3215004 3267648 3312753 3346175 3367779 
1995.604 3382205 3393492 3403911 3411759 3413896 3407250 3391822 3371219 
1999.461 3350516 3334989 3326442 3322468 3318629 3310315 3295024 3273357 
2003.319 3249254 3226053 3205825 3189936 3177420 3169142 3167674 3175484 
2007.176 3194743 3223984 3256965 3283840 3297061 3291752 3269952 3238705 
2011.034 3206926 3182393 3168541 3164303 3166339 3173715 3186298 3208729 
2014.891 3245114 3297728 3363104 3435938 3507280 3571351 3627245 3677132 
2018.749 3725688 3775352 3825858 3872191 3910370 3936316 3950426 3956678 
2022.606 3961360 3968415 3981122 3999179 4019879 4042219 4065096 4087371 
2026.463 4107908 4122492 4126272 4114197 4085297 4042587 3994999 3953569 
2030.321 3927689 3921838 3936683 3967211 4007974 4056500 4112056 4176016 
2034.178 4249587 4330200 4411965 4488825 4555619 4611640 4659463 4704478 
2038.036 4750067 4796565 4841092 4878519 4906567 4925567 4939508 4953216 
2041.893 4970174 4989781 5007411 5016528 5012305 4993501 4963840 4929287 
2045.750 4897385 4874465 4863541 4866858 4885422 4918496 4964074 5016193 
2049.608 5064195 5094635 5095070 5058865 4988441 4895609 4797403 4713154 
2053.465 4656349 4630829 4630260 4643220 4655679 4658994 4650823 4635216 
2057.323 4618874 4606885 4601427 4600857 4603034 4605847 4609765 4616664 
2061.180 4627648 4640876 4653234 4658860 4653736 4637728 4614219 4589639 
2065.038 4569883 4558331 4554212 4554179 4554146 4551601 4546578 4540987 
2068.895 4536132 4532349 4527092 4517114 4500475 4477509 4451531 4427798 
2072.752 4410225 4399915 4394560 4390242 4382879 4371432 4357375 4343821 
2076.610 4333914 4328527 4325280 4320227 4309886 4292719 4269697 4244201 
2080.467 4218572 4194650 4172235 4150457 4129015 4109614 4095666 4090515 
2084.325 4095365 4107707 4121388 4129918 4128011 4114030 4090716 4063724 
2088.182 4037537 4014362 3992892 3968950 3938957 3902012 3860724 3821212 
2092.040 3790059 3771509 3766529 3772712 3785179 3800320 3816198 3832376 
2095.897 3849492 3867811 3886065 3901778 3913379 3920166 3923543 3926017 
2099.754 3929261 3933574 3938221 3941598 3943839 3947584 3957548 3979015 
2103.612 4015131 4064895 4123094 4182539 4236003 4279870 4315007 4346030 
2107.469 4378059 4416116 4461273 4512361 4567137 4622658 4678286 4733988 
2111.327 4789898 4844710 4895542 4938135 4968599 4985592 4990585 4987669 
2115.184 4982910 4982407 4990049 5008886 5039523 5081493 5133693 5193813 
2119.042 5258100 5321860 5380093 5428136 5464473 5490008 5508228 5523665 
2122.899 5540377 5560043 5582530 5605890 5628345 5649191 5669365 5689709 
2126.756 5710826 5731574 5748932 5759307 5760012 5750980 5734663 5715492 
2130.614 5698807 5689105 5689541 5701862 5726740 5764008 5812428 5868679 
2134.471 5928363 5985033 6032839 6069025 6094932 6115934 6139423 6171989 
2138.329 6215648 6267312 6319588 6364506 6396617 6415515 6424595 6429202 
2142.186 6434011 6439156 6441678 6437643 6423552 6400451 6373719 6349477 
2146.043 6333641 6328464 6331389 6336768 6338752 6333036 6317234 6291281 
2149.901 6254841 6205800 6143255 6065363 5974753 5876874 5778983 5687225 
2153.758 5605554 5531182 5460245 5390158 5325247 5278893 5272086 5327830 
2157.616 5460412 5670373 5936862 6226740 6502551 6732567 6898973 6999137 
2161.473 7040656 7035706 6998564 6940921 6872008 6800549 6732567 6671561 
2165.331 6618839 6571977 6526062 6476049 6418441 6353007 6281734 6208825 
2169.188 6135828 6064019 5992054 5918018 5842081 5767533 5699310 5644558 
2173.045 5608475 5593035 5595989 5611563 5631702 5646941 5648587 5628748 
2176.903 5581355 5503967 5399753 5277116 5149485 5033891 4945809 4894838 
2180.760 4883076 4903584 4944066 4991088 5034428 5070464 5099898 5125210 
2184.618 5148177 5167524 5178422 5177483 5162964 5137381 5106570 5078509 
2188.475 5058328 5048373 5048138 5054239 5064095 5076397 5090880 5107676 
2192.333 5125747 5142411 5154112 5159008 5156794 5150089 5142679 5137180 
2196.190 5133022 5127356 5115153 5093226 5062720 5028696 4998831 4981268 
2200.047 4978955 4990217 5008652 5025076 5032148 5025880 5006741 4977447 
2203.905 4942089 4903349 4862469 4820420 4778776 4740654 4710541 4692990 
2207.762 4688903 4698516 4717843 4742296 4768491 4794220 4819180 4843303 
2211.620 4866088 4884986 4897888 4903115 4901774 4897318 4895441 4900334 
2215.477 4914877 4938168 4966487 4994876 5020417 5041233 5057994 5071805 
2219.334 5083169 5091249 5094299 5091249 5082733 5071134 5060575 5054272 
2223.192 5053702 5057558 5062619 5065100 5063122 5056116 5045959 5034797 
2227.049 5023869 5012707 5000339 4984820 4966554 4946982 4928282 4912866 
2230.907 4901272 4892425 4884249 4874699 4863474 4851680 4841997 4836334 
2234.764 4835530 4838914 4844174 4850105 4856706 4865417 4878653 4898189 
2238.622 4923221 4951473 4979089 5002853 5021322 5035568 5047836 5060105 
2242.479 5073850 5087628 5099630 5108179 5113711 5117835 5124674 5136577 
2246.336 5154682 5177751 5201995 5223491 5239386 5248609 5251895 5251258 
2250.194 5248139 5243813 5238313 5232411 5226877 5223792 5224832 5230600 
2254.051 5240560 5251895 5261051 5265545 5264170 5257698 5248039 5237039 
2257.909 5225000 5211686 5195557 5175672 5153173 5130809 5111632 5099026 
2261.766 5093998 5095741 5101641 5109386 5117265 5125881 5137113 5152838 
2265.624 5173996 5199614 5226810 5252097 5272220 5285400 5291203 5290633 
2269.481 5285400 5277116 5267457 5257698 5249313 5243444 5240560 5240191 
2273.338 5240963 5240694 5237743 5231237 5222115 5212458 5205047 5202565 
2277.196 5205516 5214067 5226844 5242237 5259475 5278122 5298481 5320182 
2281.053 5343025 5365702 5387172 5406630 5423606 5438402 5451421 5462358 
2284.911 5471049 5476284 5477458 5474941 5469841 5463533 5457628 5452863 
2288.768 5448468 5443737 5437563 5430048 5422063 5416124 5414111 5417769 
2292.625 5427532 5441824 5458869 5476888 5494705 5511584 5528296 5545109 
2296.483 5562057 5578704 5594411 5608710 5621632 5632978 5642444 5649862 
2300.340 5653857 5653051 5646673 5634791 5618544 5600151 5582195 5566420 
2304.198 5554607 5547056 5543968 5545277 5550949 5561285 5576052 5594512 
2308.055 5615188 5636402 5656744 5675777 5693704 5711430 5729862 5749436 
2311.913 5769481 5789560 5809104 5828514 5848965 5872105 5899142 5930278 
2315.770 5964138 5998504 6030890 6059416 6084011 6105550 6126385 6148968 
2319.627 6175451 6207145 6244186 6285263 6327522 6366322 6395373 6407445 
2323.485 6397055 6360471 6298408 6215951 6122386 6028237 5944017 5877546 
2327.342 5832208 5807391 5799063 5802186 5811421 5823375 5835969 5848327 
2331.200 5860484 5872105 5883389 5895044 5908009 5923695 5943781 5968706 
2335.057 5998067 6030488 6063884 6096444 6127863 6157941 6187684 6217598 
2338.915 6247648 6276927 6304426 6329035 6350452 6369113 6385488 6399812 
2342.772 6411480 6419047 6420963 6416625 6406705 6394095 6383067 6378763 
2346.629 6385891 6408387 6448236 6505713 6579782 6667658 6765682 6869383 
2350.487 6973715 7074435 7168440 7254178 7331913 7403292 7470334 7534048 
2354.344 7594974 7653142 7708148 7760799 7812883 7866493 7923618 7985442 
2358.202 8051696 8121066 8192068 8263386 8334445 8404670 8473760 8540493 
2362.059 8603216 8660709 8712799 8760468 8806350 8853420 8902592 8953764 
2365.917 9004030 9049734 9086579 9112124 9126133 9130059 9125998 9115812 
2369.774 9100688 9080759 9055858 9026831 8994964 8963201 8934756 8912264 
2373.631 8898060 8893494 8899311 8916357 8945545 8987523 9042562 9110670 
2377.489 9191005 9282830 9385407 9498812 9623324 9759800 9907709 10065806 
2381.346 10231188 10400704 10569846 10735759 10895484 11047247 11189474 
2384.721 11320730 11439097 11543274 11632058 11705134 11763175 11807128 
2388.097 11837874 11855920 11861062 11853162 11832664 11800591 11758749 
2391.472 11709593 11654964 11595916 11532386 11463864 11390148 11312193 
2394.847 11232043 11152791 11077871 11010575 10952567 10905167 10869323 
2398.222 10845339 10834740 10838849 10858757 10894804 10946009 11010371 
2401.598 11085451 11169007 11259687 11357495 11463115 11577914 11703636 
2404.973 11841381 11992112 12156286 12333646 12523458 12723931 12933098 
2408.348 13148751 13369535 13594842 13825499 14062678 14307076 14558394 
2411.723 14814214 15070903 15323626 15567360 15798038 16012471 16207648 
2415.099 16381441 16531140 16654380 16749140 16815402 16854632 16870304 
2418.474 16867240 16849982 16822220 16786712 16744113 16694698 16638577 
2421.849 16575990 16507702 16435154 16359592 16282840 16207270 16135633 
2425.224 16071606 16019931 15984936 15970634 15979916 16013812 16071744 
2428.600 16152620 16254494 16375523 16514551 16670251 16841646 17028340 
2431.975 17230180 17447806 17682278 17934558 18204986 18492902 18796062 
2435.350 19111516 19436312 19768496 20107528 20454812 20812944 21184868 
2438.725 21573614 21981114 22408672 22856908 23325882 23814722 24322822 
2442.101 24848432 25389782 25945066 26513178 27093496 27686526 28293100 
2445.476 28913516 29547412 30193282 30848614 31510390 32176062 32842904 
2448.851 33508800 34171704 34829228 35479016 36118688 36745848 37358500 
2452.226 37954696 38532192 39087332 39616244 40113532 40573732 40992032 
2455.602 41363472 41684304 41950264 42157420 42301264 42377860 42383192 
2458.977 42314956 42172024 41954936 41664720 41303740 40874580 40380492 
2462.352 39825228 39214168 38553668 37851040 37115544 36356184 35583008 
2465.727 34806364 34035292 33279042 32546282 31843882 31178540 30556088 
2469.103 29980748 29456556 28986124 28570586 28210140 27903592 27648000 
2472.478 27439672 27273606 27144496 27046100 26972688 26918820 26879478 
2475.853 26850364 26827982 26809442 26793056 26777548 26762042 26745692 
2479.228 26727544 26705416 26677264 26640270 26592078 26531458 26458240 
2482.604 26373448 26279064 26177346 26070268 25959698 25847190 25734216 
2485.979 25622818 25514716 25411280 25313452 25221230 25133064 25047408 
2489.354 24962578 24877026 24790334 24702114 24612092 24519492 24422986 
2492.729 24320336 24209790 24090274 23961508 23824594 23681106 23532210 
2496.104 23378994 23221080 23057594 22887294 22709306 22523434 22330284 
2499.480 22130944 21926988 21719576 21509966 21298612 21086248 20873604 
2502.855 20661900 20452590 20248104 20050616 19862482 19685072 19519412 
2506.230 19364454 19218416 19078522 18941854 18805818 18669308 18532216 
2509.605 18395964 18262346 18132708 18007528 17886182 17767322 17648770 
2512.981 17529662 17409452 17288686 17168956 17051668 16938308 16829730 
2516.356 16726825 16629798 16539263 16455768 16379755 16311839 16252259 
2519.731 16200734 16157402 16121604 16093612 16073326 16060570 16055206 
2523.106 16056892 16065281 16080100 16101487 16129030 16161906 16198568 
2526.482 16236471 16272588 16304649 16330831 16351026 16366784 16379789 
2529.857 16391488 16402602 16412202 16418569 16420152 16416332 16407797 
2533.232 16396821 16386086 16377760 16373184 16372425 16374696 16379308 
2536.607 16386086 16395032 16407212 16423110 16442621 16465370 16490424 
2539.983 16516995 16544737 16573891 16604632 16637027 16670320 16703237 
2543.358 16734367 16762776 16788366 16812372 16836240 16861556 16889320 
2546.733 16919464 16951158 16983132 17014006 17042814 17069004 17092130 
2550.108 17112324 17129662 17144552 17157752 17169956 17182296 17195326 
2553.484 17209114 17222940 17235970 17246934 17255554 17262208 17267586 
2556.859 17272412 17277412 17281654 17283894 17281930 17273482 17256552 
2560.234 17230042 17193258 17146620 17090956 17027444 16957808 16883912 
2563.609 16807274 16729373 16650937 16572410 16493486 16414955 16337505 
2566.985 16263645 16196264 16138315 16092066 16058233 16036158 16023267 
2570.360 16017215 16015634 16017353 16022475 16031483 16045786 16065864 
2573.735 16091961 16123597 16160496 16201904 16246893 16294776 16344454 
2577.110 16394205 16443035 16490320 16536303 16582670 16631210 16684197 
2580.486 16743079 16808202 16878952 16954398 17033440 17115220 17199670 
2583.861 17286584 17375930 17467156 17559644 17652808 17746472 17840988 
2587.236 17937008 18035192 18135124 18236118 18336372 18434232 18528204 
2590.611 18617876 18703346 18784990 18863536 18939154 19012018 19082224 
2593.987 19150472 19217826 19285888 19356208 19429626 19506348 19585406 
2597.362 19665934 19746512 19827000 19907644 19989586 20073938 20162018 
2600.737 20254490 20351914 20454710 20563226 20678058 20799908 20929060 
2604.112 21065762 21209778 21360700 21518008 21680844 21848480 22019944 
2607.488 22194196 22370052 22546328 22722188 22896968 23070070 23240690 
2610.863 23407948 23569780 23724392 23869222 24002268 24122146 24228112 
2614.238 24320020 24398172 24462982 24514934 24554974 24584040 24603816 
2617.613 24615810 24621348 24621524 24616826 24607252 24592596 24573450 
2620.989 24550590 24525662 24500666 24477354 24456848 24439952 24426562 
2624.364 24416606 24410194 24407880 24410264 24418396 24432556 24452956 
2627.739 24479212 24510482 24546244 24586038 24629624 24677144 24728912 
2631.114 24784968 24845204 24909904 24978582 25050638 25125552 25201812 
2634.490 25278436 25354126 25428284 25500802 25572594 25644962 25719556 
2637.865 25797362 25879402 25965396 26054964 26147468 26241648 26336974 
2641.240 26432602 26528042 26622410 26715458 26806870 26896892 26986474 
2644.615 27076462 27168092 27261964 27358608 27457886 27559868 27664632 
2647.990 27772634 27884548 28000874 28122074 28248224 28378832 28513548 
2651.366 28652090 28794148 28939760 29089388 29243108 29401102 29563338 
2654.741 29730106 29901764 30078534 30261130 30449986 30644758 30845128 
2658.116 31050290 31259608 31472482 31688918 31908672 32131820 32357722 
2661.491 32585316 32813494 33041074 33267416 33492622 33717012 33941592 
2664.867 34166648 34392752 34619548 34847036 35074968 35303628 35533956 
2668.242 35766496 36002220 36241492 36484748 36731788 36982788 37237980 
2671.617 37497188 37760524 38027276 38296328 38566232 38835252 39102160 
2674.992 39365676 39625284 39880760 40131628 40377764 40619096 40855756 
2678.368 41088540 41319008 41549416 41782676 42021544 42268904 42527184 
2681.743 42798488 43084560 43386716 43705716 44041708 44394584 44763652 
2685.118 45147704 45546072 45958256 46383956 46823544 47276800 47743624 
2688.493 48223280 48714808 49217176 49729560 50251364 50782436 51322548 
2691.869 51872148 52431380 53000276 53579440 54169212 54769860 55381728 
2695.244 56004520 56637384 57279524 57929772 58587180 59250896 59920460 
2698.619 60595168 61274444 61957148 62642724 63330196 64019136 64709060 
2701.994 65399580 66089496 66776536 67457424 68127992 68783600 69420056 
2705.370 70033496 70620136 71176960 71701008 72189016 72638224 73045904 
2708.745 73410008 73729712 74004024 74232864 74416600 74555680 74650504 
2712.120 74702800 74714168 74686352 74621072 74519296 74380624 74204408 
2715.495 73988976 73732928 73435720 73097376 72719032 72303088 71852552 
2718.871 71371280 70863936 70336256 69793856 69243272 68690432 68140784 
2722.246 67599248 67070692 66559076 66068820 65604352 65169104 64766592 
2725.621 64399012 64067328 63771972 63512860 63289680 63102656 62952100 
2728.996 62837860 62759748 62716724 62707224 62729544 62782108 62863672 
2732.372 62973356 63110396 63273496 63460744 63669712 63897088 64139372 
2735.747 64393820 64657532 64928092 65203020 65479860 65755792 66028392 
2739.122 66295064 66554016 66803856 67043320 67271776 67488928 67694536 
2742.497 67889360 68075312 68254992 68431560 68608552 68788760 68974280 
2745.873 69166104 69364384 69569096 69779392 69994496 70213208 70433400 
2749.248 70652648 70868032 71077008 71277256 71467872 71649064 71821984 
2752.623 71988232 72150408 72311112 72473552 72640960 72816816 73003328 
2755.998 73201568 73410880 73628176 73848848 74067912 74280240 74480752 
2759.374 74666080 74832688 74976776 75094968 75183056 75237232 75254448 
2762.749 75232656 75170880 75069128 74928272 74749392 74534208 74285504 
2766.124 74006808 73703088 73380160 73044016 72700656 72355336 72012640 
2769.499 71676344 71350152 71036848 70739952 70461888 70204528 69968800 
2772.875 69755104 69563072 69392296 69241680 69109576 68993704 68890752 
2776.250 68796328 68704912 68610720 68508024 68390792 68253592 68091168 
2779.625 67898616 67671848 67408120 67106620 66769196 66399792 66004588 
2783.000 65590328 65163984 64731828 64298988 63869760 63447632 63035184 
2786.375 62634228 62245572 61868420 61500836 61139776 60782412 60426212 
2789.751 60070156 59714048 59359336 59007680 58660632 58320268 57987440 
2793.126 57663608 57349812 57047500 56757444 56480448 56216452 55965016 
2796.501 55725104 55496020 55276648 55066372 54864252 54669172 54479516 
2799.876 54293436 54108896 53924396 53739228 53552788 53365416 53177228 
2803.252 52987848 52797164 52603832 52406924 52206448 52002288 51795540 
2806.627 51587840 51381024 51176992 50977676 50784596 50598864 50421468 
2810.002 50252108 50089692 49932836 49779236 49626432 49473052 49317904 
2813.377 49160808 49002396 48843452 48684824 48527736 48373336 48223096 
2816.753 48079940 47947492 47830140 47733156 47661452 47619452 47610724 
2820.128 47637824 47701912 47802988 47940132 48111332 48313632 48543596 
2823.503 48797516 49071468 49361520 49663392 49972128 50282204 50587212 
2826.878 50879840 51152984 51399564 51613552 51790348 51926704 52020480 
2830.254 52070792 52077368 52040984 51963448 51847320 51696212 51514412 
2833.629 51306852 51078740 50834732 50579576 50317024 50049868 49779792 
2837.004 49506912 49230684 48949248 48661692 48366816 48065100 47757716 
2840.379 47446668 47134440 46822768 46512572 46204440 45897780 45592332 
2843.755 45288456 44987036 44689420 44398144 44115384 43843620 43585252 
2847.130 43342744 43118080 42913468 42730448 42570012 42432880 42318356 
2850.505 42225884 42154316 42102652 42069436 42053704 42053704 42067428 
2853.880 42093052 42128064 42170344 42218360 42270368 42324748 42380200 
2857.256 42434080 42483700 42525944 42557588 42575568 42577616 42561060 
2860.631 42524076 42464812 42381112 42271752 42136096 41974496 41788300 
2864.006 41580516 41354832 41115132 40866280 40613348 40361184 40115672 
2867.381 39882864 39668080 39476988 39313872 39181460 39081204 39013016 
2870.757 38975248 38965168 38979232 39013488 39063404 39125180 39195348 
2874.132 39271216 39351308 39434968 39521952 39612432 39706200 39802716 
2877.507 39901608 40002088 40103680 40206244 40309812 40414096 40518912 
2880.882 40623648 40727680 40830352 40932028 41033148 41134436 41236696 
2884.258 41340216 41444856 41549452 41653084 41754116 41851816 41945412 
2887.633 42034976 42120508 42202292 42280076 42354408 42425204 42492656 
2891.008 42557260 42619280 42678976 42736516 42792128 42845772 42897888 
2894.383 42948800 42998988 43049220 43100040 43152368 43207264 43265900 
2897.759 43329456 43398764 43474016 43554336 43638188 43722788 43805244 
2901.134 43883284 43954660 44018308 44073428 44119416 44155288 44179680 
2904.509 44191164 44188304 44170660 44138636 44093524 44037196 43971636 
2907.884 43898460 43818772 43732796 43640348 43541844 43437032 43326308 
2911.260 43210524 43090092 42965480 42837212 42705660 42571296 42435252 
2914.635 42298632 42162748 42029028 41898920 41773160 41652536 41537672 
2918.010 41429108 41327828 41234764 41151520 41079908 41021420 40977868 
2921.385 40950672 40940912 40948924 40973972 41014428 41067344 41128680 
2924.760 41193924 41257500 41314308 41360112 41391204 41405892 41403708 
2928.136 41385700 41354068 41311428 41261472 41207984 41155164 41108500 
2931.511 41073756 41057328 41066328 41106900 41184888 41304508 41468260 
2934.886 41677156 41930704 42227196 42563836 42936840 43341756 43773324 
2938.261 44225904 44694012 45172440 45656884 46143712 46629644 47111872 
2941.637 47586580 48048668 48492128 48909232 49289992 49624240 49900276 
2945.012 50106276 50232504 50271936 50221940 50085676 49872476 49596792 
2948.387 49276036 48929372 48574572 48225836 47893992 47585248 47302808 
2951.762 47046844 46816012 46608692 46421856 46252832 46098976 45957372 
2955.138 45825420 45701532 45584568 45473956 45369556 45271136 45178548 
2958.513 45091416 45009232 44931472 44858060 44788884 44724016 44663716 
2961.888 44608524 44558884 44515672 44479696 44451872 44433156 44423760 
2965.263 44423652 44432788 44450592 44476944 44512260 44556720 44610472 
2968.639 44672600 44741244 44813020 44883704 44948852 45004452 45047788 
2972.014 45077928 45095132 45101488 45099984 45094616 45089580 45089176 
2975.389 45096932 45114616 45141044 45171008 45195240 45200608 45171564 
2978.764 45092852 44952232 44741908 44461016 44114648 43714508 43274540 
2982.140 42811436 42341804 41879364 41436000 41020512 40637980 40291380 
2985.515 39981160 39706420 39465268 39256636 39078920 38930232 38807208 
2988.890 38702480 38603496 38492840 38348768 38147328 37868428 37498744 
2992.265 37035144 36486372 35871712 35218140 34553096 33902436 33285230 
2995.641 32711518 32183520 31696904 31244226 30816670 30406594 30009224 
2999.016 29621260 29241726 28870524 28508204 28154634 27810076 27474016 
3002.391 27145728 26824986 26511066 26203988 25904126 25612028 25328520 
3005.766 25054606 24791072 24538248 24296296 24064740 23842864 23629916 
3009.142 23424874 23226916 23035618 22850342 22670554 22495796 22325540 
3012.517 22159290 21996902 21838234 21683352 21532668 21386628 21245650 
3015.892 21110178 20980974 20858272 20742524 20633928 20532134 20436162 
3019.267 20344936 20256366 20168300 20078828 19986082 19888670 19785800 
3022.643 19677306 19563536 19445668 19325792 19206400 19091020 18983666 
3026.018 18887518 18805334 18738492 18686326 18646582 18615386 18588168 
3029.393 18559498 18524194 18477862 18416600 18337722 18239952 18123068 
3032.768 17988706 17838882 17677378 17508102 17335030 17161958 16992228 
3036.144 16827972 16670527 16520917 16379170 16245311 16119368 16001299 
3039.519 15891407 15789961 15697163 15612800 15536453 15466541 15401343 
3042.894 15338969 15277394 15215142 15151765 15087233 15022332 14958332 
3046.269 14896468 14837287 14781508 14728753 14678471 14629737 14581455 
3049.645 14532150 14480897 14426740 14369096 14308069 14244003 14177483 
3053.020 14109226 14039680 13968913 13896652 13822421 13746046 13667804 
3056.395 13588278 13508731 13430567 13354877 13282581 13214124 13149605 
3059.770 13088783 13031248 12976862 12925212 12876299 12829782 12785861 
3063.146 12744744 12707076 12673403 12644338 12620186 12600812 12585600 
3066.521 12573593 12563771 12555005 12546513 12537509 12527312 12514899 
3069.896 12499621 12480149 12455905 12426753 12393033 12355839 12316841 
3073.271 12277506 12239538 12203993 12171381 12141362 12113286 12085893 
3076.646 12057549 12026822 11992453 11953930 11911733 11866987 11821462 
3080.022 11777031 11735022 11695705 11659014 11623890 11589042 11553857 
3083.397 11517891 11481384 11445289 11409842 11375317 11341849 11309234 
3086.772 11277404 11246902 11218647 11193078 11170877 11151941 11135148 
3090.147 11119612 11104044 11087796 11071174 11055063 11040381 11028621 
3093.523 11020295 11015333 11013124 11012784 11013260 11014212 11015231 
3096.898 11016149 11017508 11019411 11021893 11025324 11029913 11035453 
3100.273 11042284 11050407 11059415 11069067 11079026 11088612 11097619 
3103.648 11105675 11112915 11119510 11125731 11131816 11137901 11144225 
3107.024 11150547 11156429 11161460 11165336 11167546 11168191 11167614 
3110.399 11166730 11166560 11168498 11173971 11183626 11198008 11216606 
3113.774 11238571 11262510 11287061 11310935 11333381 11353583 11371678 
3117.149 11387698 11401814 11413890 11423551 11430184 11433315 11432736 
3120.525 11428654 11421884 11414095 11406713 11401271 11398957 11399671 
3123.900 11402802 11407393 11411917 11415183 11416543 11416067 11414571 
3127.275 11413381 11413992 11417258 11423891 11433518 11445050 11457093 
3130.650 11468491 11478118 11486181 11493088 11500165 11508704 11519796 
3134.026 11533814 11550488 11569203 11589008 11609563 11630288 11651288 
3137.401 11672731 11694446 11715516 11735600 11753779 11769780 11783875 
3140.776 11796709 11809477 11823164 11838418 11855375 11873968 11894195 
3144.151 11915820 11939592 11966021 11995586 12028286 12063307 12099283 
3147.527 12134718 12168042 12198608 12226486 12252796 12278563 12305388 
3150.902 12334431 12366100 12400192 12436128 12472920 12509579 12545149 
3154.277 12579324 12611864 12643144 12674017 12705268 12737954 12772655 
3157.652 12809817 12849541 12892068 12937228 12985499 13037121 13092506 
3161.028 13151621 13214055 13279200 13345959 13413446 13480772 13547768 
3164.403 13614261 13680491 13746593 13812706 13878385 13943354 14007615 
3167.778 14071098 14134111 14196791 14258760 14319301 14377418 14431296 
3171.153 14479288 14520295 14553941 14580667 14602289 14620485 14637380 
3174.529 14654549 14672610 14691118 14708975 14724570 14736431 14743972 
3177.904 14747571 14748326 14748771 14751239 14757751 14769784 14787713 
3181.279 14810545 14837459 14866499 14896126 14925341 14953736 14980830 
3184.654 15007617 15034817 15063494 15095020 15130082 15169573 15213598 
3188.030 15261848 15313535 15367803 15423830 15480618 15537757 15595077 
3191.405 15652128 15709221 15766425 15823672 15881956 15941383 16002674 
3194.780 16066002 16131025 16196676 16262062 16326047 16387841 16447440 
3198.155 16505567 16563013 16621329 16680960 16742390 16805344 16869478 
3201.531 16934416 17000256 17067178 17135418 17205462 17277344 17350858 
3204.906 17425558 17501374 17578034 17655326 17732702 17809574 17884732 
3208.281 17957384 18026556 18091910 18153918 18213622 18272366 18331464 
3211.656 18391954 18454698 18519942 18588100 18659900 18735412 18815090 
3215.031 18898626 18985154 19073534 19161758 19248098 19331092 19409910 
3218.407 19484066 19554488 19621802 19687430 19752822 19819476 19888774 
3221.782 19961794 20038854 20119814 20204156 20290840 20379002 20467734 
3225.157 20556624 20645256 20733000 20819478 20903712 20985146 21063396 
3228.532 21138460 21211518 21283614 21355930 21429616 21504570 21580022 
3231.908 21655280 21728844 21799876 21868444 21935004 22000354 22065818 
3235.283 22132304 22200122 22269558 22340260 22411358 22482504 22552926 
3238.658 22621964 22690000 22757314 22824778 22893544 22964384 23037540 
3242.033 23112874 23189656 23267010 23344240 23421270 23498632 23577370 
3245.409 23658468 23743010 23830998 23922086 24015468 24110272 24206146 
3248.784 24302640 24400064 24498142 24596524 24695066 24793000 24890220 
3252.159 24986584 25082582 25179200 25276822 25375870 25476348 25577726 
3255.534 25679866 25782208 25884994 25988860 26093736 26200012 26306840 
3258.910 26413588 26519130 26622654 26724162 26823858 26922836 27022438 
3262.285 27123228 27225556 27329108 27433038 27536216 27638288 27739184 
3265.660 27839398 27940270 28042508 28147174 28254448 28364188 28475548 
3269.035 28587572 28699308 28810012 28919288 29026966 29132898 29237296 
3272.411 29340478 29442798 29545250 29648220 29752600 29859100 29967756 
3275.786 30078390 30190832 30304544 30419246 30534936 30651796 30769756 
3279.161 30888744 31008084 31126992 31244510 31360246 31474016 31586568 
3282.536 31699042 31812328 31927430 32044918 32164502 32286730 32411308 
3285.912 32538924 32670294 32806024 32946266 33091024 33239156 33389558 
3289.287 33541154 33693092 33845124 33997524 34150556 34304820 34460508 
3292.662 34618184 34777572 34939064 35102808 35268660 35436844 35606816 
3296.037 35778516 35951824 36126824 36304488 36485180 36669556 36857756 
3299.413 37049036 37242820 37437808 37633100 37828876 38025612 38224532 
3302.788 38427132 38634712 38848332 39068696 39296100 39530588 39771848 
3306.163 40019200 40271856 40528404 40787764 41049132 41312376 41578036 
3309.538 41847324 42121604 42401968 42688880 42982124 43281532 43586532 
3312.914 43896992 44213176 44535204 44863240 45196932 45535808 45878960 
3316.289 46225740 46575972 46929436 47286296 47646772 48010252 48376812 
3319.664 48745764 49116988 49490948 49867792 50247644 50630544 51015460 
3323.039 51401276 51786916 52171248 52553536 52933420 53310420 53683320 
3326.415 54051028 54412096 54765200 55110156 55447336 55777548 56101256 
3329.790 56417888 56725540 57021504 57302776 57566828 57812684 58040344 
3333.165 58250548 58444740 58623240 58786336 58933328 59063780 59177568 
3336.540 59274780 59355916 59420760 59468940 59499340 59510852 59502152 
3339.916 59472740 59422472 59351472 59259668 59146884 59012724 58856904 
3343.291 58679712 58481696 58264036 58027468 57771956 57496732 57200216 
3346.666 56880408 56536456 56168336 55777732 55367420 54940764 54501040 
3350.041 54051292 53593532 53129144 52658852 52182796 51700948 51212704 
3353.417 50718084 50217252 49711020 49201440 48691088 48182816 47679648 
3356.792 47183232 46694504 46213728 45740260 45273488 44813240 44359792 
3360.167 43913636 43475592 43046216 42625532 42213684 41810296 41415152 
3363.542 41027796 40648460 40276692 39913012 39557552 39210652 38872832 
3366.917 38544544 38225728 37916296 37614928 37320552 37032080 36748376 
3370.293 36469472 36195496 35927384 35665376 35409452 35158996 34912348 
3373.668 34668496 34426324 34185540 33946720 33710820 33478986 33251998 
3377.043 33030384 32813850 32602246 32395206 32192334 31993516 31797890 
3380.418 31604778 31412746 31220124 31025804 30829014 30629894 30429196 
3383.794 30228696 30030242 29835180 29644710 29459110 29277948 29100406 
3387.169 28925170 28751416 28578232 28405042 28231604 28057670 27883348 
3390.544 27708670 27533886 27359666 27187070 27016938 26850470 26688186 
3393.919 26530224 26375666 26223064 26070936 25917772 25763114 25607494 
3397.295 25452350 25299194 25149882 25005044 24865028 24728562 24594454 
3400.670 24461510 24328396 24194342 24059034 23922330 23783956 23644332 
3404.045 23503772 23363434 23224644 23088414 22955686 22826418 22699636 
3407.420 22573518 22446108 22315878 22182164 22045216 21906324 21766954 
3410.796 21628810 21493010 21360106 21230410 21103952 20980348 20859492 
3414.171 20740752 20623642 20507228 20390842 20274072 20156880 20039826 
3417.546 19923358 19808100 19694156 19581212 19469128 19357248 19245604 
3420.921 19134542 19024860 18916692 18810524 18705870 18601656 18497016 
3424.297 18390952 18282942 18173716 18064448 17956278 17850414 17747854 
3427.672 17648424 17551640 17456636 17362272 17267482 17171574 17073828 
3431.047 16974140 16873026 16770629 16667807 16565252 16463649 16363481 
3434.422 16264917 16168166 16073050 15979778 15888039 15798002 15709909 
3437.798 15623859 15539887 15458197 15378651 15301282 15225677 15151628 
3441.173 15078759 15006588 14934429 14861597 14787713 14711752 14632890 
3444.548 14550480 14464078 14373616 14280195 14185322 14091154 13999710 
3447.923 13912733 13830596 13752407 13676831 13601645 13525344 13447245 
3451.299 13367964 13288902 13212007 13138745 13070106 13005710 12944362 
3454.674 12884081 12822819 12759211 12692065 12621244 12547025 12470431 
3458.049 12392794 12315477 12239232 12165179 12093355 12023518 11954952 
3461.424 11886976 11818875 11750443 11681920 11613476 11545996 11479887 
3464.800 11415149 11351882 11290224 11229221 11168803 11108156 11046669 
3468.175 10983456 10917603 10848939 10777502 10704140 10629840 10556131 
3471.550 10483926 10413465 10344304 10275800 10206932 10137737 10068621 
3474.925 10000193 9933676 9870184 9809718 9752276 9696842 9642296 9587586 
3478.783 9531461 9473142 9411986 9347555 9280358 9210939 9141124 9072470 
3482.640 9007176 8946391 8890348 8838168 8788226 8738358 8686973 8633161 
3486.498 8576720 8517954 8457373 8395448 8332215 8267674 8202265 8136730 
3490.355 8072354 8010653 7952842 7899390 7849725 7802527 7756347 7709429 
3494.212 7660932 7610451 7558559 7505392 7451929 7398708 7346370 7296060 
3498.070 7248518 7204620 7164668 7127851 7092857 7057023 7018027 6974018 
3501.927 6924121 6869181 6811387 6753768 6699657 6651037 6608511 6571876 
3505.785 6539684 6509480 6479243 6446689 6410135 6368574 6321773 6270069 
3509.642 6214943 6158512 6103097 6051184 6004786 5964776 5931286 5903172 
3513.500 5878721 5856085 5833349 5808298 5780360 5748764 5713612 5675744 
3517.357 5636569 5597398 5560379 5526752 5497289 5472123 5449944 5428974 
3521.214 5407032 5382542 5353961 5321793 5286574 5249716 5212323 5174868 
3525.072 5137080 5098390 5058462 5017333 4976040 4935923 4898323 4864211 
3528.929 4833788 4805912 4778910 4751541 4722767 4692788 4662109 4631398 
3532.787 4601360 4571926 4542393 4511925 4479852 4446108 4410994 4375382 
3536.644 4340240 4306507 4274516 4244703 4217367 4192944 4171800 4154137 
3540.501 4139920 4128714 4119749 4111922 4104229 4095331 4083825 4068005 
3544.359 4045731 4015365 3975905 3927990 3874765 3820643 3770840 3729264 
3548.216 3697884 3675462 3657585 3638940 3614549 3580839 3537677 3487539 
3552.074 3435503 3386112 3343671 3310148 3285275 3267748 3255263 3246049 
3555.931 3238304 3230293 3220913 3208395 3191572 3169810 3143543 3114575 
3559.789 3085642 3059547 3038726 3024578 3017438 3015637 3017371 3019607 
3563.646 3018873 3011599 2993850 2961889 2912718 2846109 2764104 2672481 
3567.503 2579509 2493189 2420614 2364941 2325898 2300315 2283061 2269271 
3571.361 2254283 2235132 2210620 2181048 2148115 2114219 2081523 2051860 
3575.218 2025927 2003125 1982487 1961984 1940416 1916587 1890695 1863807 
3579.076 1837453 1812996 1792035 1774901 1761527 1751546 1744560 1740235 
3582.933 1738805 1740002 1743296 1747255 1749084 1744693 1730155 1702013 
3586.791 1659271 1604593 1543538 1483988 1433255 1396523 1375017 1366740 
3590.648 1367106 1370629 1372424 1368701 1357799 1339552 1315057 1286244 
3594.505 1254575 1221811 1189183 1158319 1130346 1106793 1087859 1072912 
3598.363 1060223 1047236 1031527 1012164 989680 966368 945514 930571 923499 
3602.702 925225 934656 950030 968858 988684 1006651 1019902 1024984 1017943 
3607.042 996389 959295 908623 849658 789605 735004 690365 656450 630899 
3611.382 609364 587565 563113 536406 511128 491788 482898 487343 504593 
3615.721 531198 561089 587167 601434 596888 570113 521942 458353 389333 
3620.061 326592 279641 253549 248510 261307 285709 316512 350633 386945 
3624.400 426312 469663 516303 562317 599775 617394 603292 548748 454339 
3628.740 332229 203888 93779 17859 -20244 -27334 -15672 1855 14214 15507 
3633.562 4738 -14512 -36180 -54402 -65269 -68548 -66528 -63049 -61094 -62486 
3638.384 -66826 -72955 -79050 -84417 -89552 -94819 -100517 -104425 -103167 
3642.723 -92301 -68283 -30084 19947 76446 131959 179955 214894 233823 235945 
3647.545 220994 187744 134975 61965 -28262 -126818 -219258 -290091 -328267 
3651.885 -329492 -298633 -246215 -186272 -132880 -96475 -83854 -95084 
3655.742 -124499 -161067 -193128 -210184 -206409 -181172 -138113 -83556 
3659.599 -24651 31379 79562 117973 148664 176507 207137 246056 296253 358956 
3664.421 434339 523767 630434 759433 915928 1104003 1326258 1586402 1893690 
3668.761 2270204 2750133 3377930 4196089 5226207 6465858 7891056 9470602 
3672.618 11167886 12937979 14717133 16382817 17749130 18594704 18717838 
3675.993 18043136 16655447 14758952 12583042 10323776 8136933 6129443 
3679.369 4381808 2949179 1848134 1058330 525425 182209 -38930 -189485 
3683.226 -297905 -376471 -427682 -453037 -458928 -456247 -457406 -473823 
3687.083 -510593 -567215 -637660 -713915 -789264 -859606 -922829 -977083 
3690.941 -1020091 -1049147 -1062930 -1062699 -1052188 -1036619 -1020818 
3694.316 -1007001 -994835 -982769 -967826 -948651 -925639 -899948 -874255 
3698.174 -851074 -832125 -819658 -815689 -822601 -842146 -873395 -912248 
3702.031 -951031 -981017 -994604 -988290 -963396 -925044 -880009 -834374 
3705.888 -792009 -754039 -719902 -688377 -660124 -637163 -623664 -624888 
3709.746 -644244 -683017 -738625 -805602 -875346 -939228 -989678 -1021149 
3713.603 -1031561 -1021876 -995364 -956916 -912182 -867146 -826007 -791810 
3717.461 -765086 -745141 -730090 -718579 -710045 -704652 -703065 -705082 
3721.318 -709515 -714080 -716396 -715205 -710508 -704619 -700517 -701311 
3725.176 -708556 -722119 -738724 -753972 -761878 -758636 -741502 -711434 
3729.033 -671736 -628065 -587334 -555368 -536274 -530383 -534322 -542694 
3732.890 -550669 -557321 -566983 -586540 -623003 -678187 -746464 -815788 
3736.748 -871312 -903221 -908181 -889731 -854646 -809074 -756255 -695621 
3740.605 -626080 -548750 -469851 -402656 -366605 -380477 -454990 -581312 
3744.463 -728073 -850049 -912248 -904081 -838508 -741105 -638818 -554938 
3748.320 -504735 -493714 -518436 -569432 -634980 -704884 -772726 -833415 
3752.177 -881199 -910297 -915654 -896939 -858978 -810397 -762407 -723541 
3756.035 -699558 -691486 -696448 -709747 -727610 -748349 -772263 -799516 
3759.892 -828025 -852827 -867609 -867609 -851967 -824618 -793596 -767666 
3763.750 -753344 -752782 -762308 -774810 -781359 -776232 -758769 -733597 
3767.607 -707861 -689204 -683414 -692148 -713353 -741205 -768658 -789892 
3771.465 -800939 -801104 -792273 -777655 -760952 -745273 -732571 -722482 
3775.322 -713518 -703528 -691387 -678254 -667138 -662274 -667899 -684969 
3779.179 -710408 -737698 -759000 -768559 -764888 -751558 -734655 -721556 
3783.037 -717024 -722350 -735118 -750566 -763531 -770940 -772098 -768195 
3786.894 -761580 -753245 -743421 -731546 -717124 -700947 -684870 -670843 
3790.752 -660157 -652416 -645534 -636733 -624491 -609536 -595805 -588360 
3794.609 -592330 -609867 -637990 -668792 -690825 -694364 -674482 -632962 
3798.467 -578697 -524857 -486499 -475610 -498315 -550702 -619065 -681562 
3802.324 -718811 -720895 -689270 -635608 -575686 -526909 -503345 -512910 
3806.181 -555037 -619528 -689766 -747556 -781624 -789264 -775405 -748019 
3810.039 -714113 -677327 -637825 -592959 -540742 -481733 -421326 -368824 
3813.896 -335418 -331512 -361010 -418380 -487194 -544713 -572675 -561722 
3817.754 -516385 -451382 -386965 -343563 -337074 -374783 -451051 -547625 
3821.611 -638354 -701477 -726055 -714742 -678353 -631837 -587996 -554475 
3825.469 -534719 -526048 -523467 -519959 -511089 -494972 -473293 -449396 
3829.326 -427020 -410005 -399975 -397161 -400107 -405536 -409277 -407158 
3833.183 -396400 -375974 -348066 -317076 -289660 -272905 -271879 -288733 
3837.041 -320751 -361308 -401829 -434302 -454957 -463893 -464621 -461775 
3840.898 -459657 -461312 -468196 -480906 -499274 -522176 -547195 -571649 
3844.756 -590941 -600602 -597459 -580186 -549776 -508574 -459061 -403120 
3848.613 -340616 -270620 -193128 -110521 -31211 31080 58319 31080 -61757 
3852.953 -215582 -402491 -582834 -719604 -794126 -809372 -781094 -729065 
3856.810 -668627 -610529 -559670 -516649 -480277 -448436 -419936 -394049 
3860.667 -371009 -351178 -335451 -324790 -321115 -326049 -340153 -361308 
3864.525 -383622 -398684 -397691 -375345 -332770 -278137 -225153 -188558 
3868.382 -182099 -211840 -273567 -351376 -423147 -470910 -486962 -475478 
3872.240 -449098 -423015 -409112 -412389 -429966 -452706 -468858 -468957 
3876.097 -449628 -413316 -367698 -322009 -285389 -264792 -263700 -280521 
3879.955 -309229 -340881 -364983 -373889 -364222 -338199 -303136 -268932 
3883.812 -247076 -246612 -271084 -315851 -368890 -414242 -437778 -433541 
3887.669 -404212 -360017 -314195 -279362 -265753 -276647 -309328 -354389 
3891.527 -400207 -435957 -455056 -456247 -442015 -416162 -382331 -343000 
3895.384 -300024 -254891 -210085 -168785 -134900 -112111 -102703 -106413 
3899.242 -120193 -139538 -159279 -175574 -187332 -195744 -204554 -217039 
3903.099 -235585 -259726 -286614 -311513 -329558 -337537 -335253 -324526 
3906.957 -308964 -292508 -278071 -267110 -259295 -253567 -248136 -241546 
3910.814 -233234 -222703 -210052 -194784 -176767 -155900 -133045 -110156 
3914.671 -90579 -77659 -74445 -81700 -97800 -119067 -140498 -158451 -170308 
3919.011 -176303 -177230 -174680 -169613 -162425 -153151 -142718 -132814 
3922.868 -126984 -128077 -138577 -158451 -184947 -212900 -236777 -252308 
3926.726 -257176 -251811 -238102 -218563 -196473 -173720 -153019 -136855 
3930.583 -127613 -127944 -139140 -160405 -188094 -217139 -241711 -257010 
3934.441 -261282 -255057 -241645 -224855 -208164 -193989 -182762 -174117 
3938.298 -167195 -161697 -157888 -156695 -159179 -166301 -178224 -194188 
3942.156 -212900 -231942 -248732 -261150 -267011 -265521 -256712 -242572 
3946.013 -225782 -209356 -196341 -187994 -184418 -184020 -184418 -183755 
3949.870 -181106 -177032 -172627 -169480 -168188 -168652 -169778 -170441 
3953.728 -170043 -168487 -166301 -164048 -162028 -159577 -155867 -150005 
3957.585 -141525 -131124 -120160 -110421 -103332 -100053 -100285 -103697 
3961.443 -109328 -116583 -124499 -132714 -140598 -147123 -151561 -153681 
3965.300 -153317 -151197 -147818 -143811 -138975 -132979 -124864 -114231 
3969.157 -101345 -87431 -74478 -64440 -58875 -58146 -61393 -67024 -73054 
3973.497 -78023 -79978 -78984 -74743 -67985 -59637 -50890 -42906 -36644 
3977.837 -32668 -30946 -30548 -30449 -29653 -27334 -23855 -19946 -16500 
3982.176 -14512 -13982 -14611 -15440 -16003 -16003 -15638 -15638 -16268 
3986.516 -17825 -19979 -22431 -24849 -27500 -31111 -36147 -42707 -50095 
3990.855 -56887 -61028 -61492 -57715 -50791 -42409 -35087 -30382 -28991 
3995.195 -30184 -32933 -35882 -37903 -39228 -40289 -41879 -45026 -50162 
3999.535 -57417 -66428 -76466 
##END=
