
##TITLE=Z408_1_d
##JCAMP-DX=5.01  $$ Nicolet v. 1
##DATATYPE=INFRARED SPECTRUM
##ORIGIN=UniL
##OWNER=Nicolet
##LONGDATE=2011/09/16
##TIME=09:57:37
##SPECTROMETER/DATA SYSTEM=Nicolet iS5
##DATA PROCESSING=
Ratio against background
%Transmittance->Absorbance
Truncated
ElementMultiply or ElementDivide
##COMMENTS=
Number of sample scans: 32
Collection length: 51.13 sec
Sample gain: 2.0
Background collected on: Ven Sep 16 09:40:23 2011 (GMT+02:00);
Number of background scans: 32
Background gain: 2.0
Sample spacing:  1.000
Number of scan points: 12415
Resolution points: 8192
Number of FFT points: 65536
Apodization: N-B fort;
Phase correction: Mertz;
Laser frequency: 15798.0 cm-1
Number of rejected sample scans: 0
Number of rejected background scans: 0
Bench serial number: ASB1000141;
##RESOLUTION=4.000
##XUNITS=1/CM
##YUNITS=ABSORBANCE
##FIRSTX=649.893372
##LASTX=4000.122314
##FIRSTY=0.079089
##MAXX=4000.122314
##MINX=649.893372
##MAXY=0.360017
##MINY=-0.002785
##XFACTOR=1.000000
##YFACTOR=1.000000E-009
##NPOINTS=6950
##DELTAX=0.482117
##ZPD=6100
##XYDATA=(X++(Y..Y))
649.893 79089312 79458096 79933728 80532056 81240112 82021992 82836920 
653.268 83664704 84515288 85426992 86443096 87592496 88875688 90268512 
656.643 91740800 93280192 94903496 96654168 98583936 100727008 103092976 
660.018 105670064 108445904 111428672 114654680 118171256 122014696 
662.911 126178560 130614952 135245120 140003984 144864000 149818768 
665.803 154852016 159857968 164547616 168463392 171076432 172019232 
668.696 171277264 169147632 166047104 162312256 158153568 153677168 
671.589 148940928 144024752 139044176 134126248 129394632 124927872 
674.481 120752416 116864608 113251168 109908840 106848008 104081200 
677.374 101606256 99399376 97417096 95609384 93931848 92359000 90880376 
680.749 89492872 88190440 86957120 85769424 84606432 83457496 82329552 
684.124 81242152 80222744 79291984 78458624 77718752 77060800 76472440 
687.498 75944032 75468216 75035736 74628192 74218040 73769760 73246512 
690.873 72620552 71878160 71020576 70058880 69009240 67886848 66703820 
694.248 65473228 64211548 62938848 61679836 60458088 59290660 58188824 
697.623 57157584 56198540 55313824 54506676 53779316 53130528 52553196 
700.998 52034296 51556684 51105724 50671908 50253408 49854748 49482964 
704.373 49143260 48835440 48553192 48285896 48023684 47759192 47491352 
707.747 47224084 46965616 46724792 46509844 46327696 46185536 46092348 
711.122 46061620 46109592 46253200 46502320 46852956 47279128 47728496 
714.497 48131356 48407740 48483016 48310224 47876828 47212780 46380748 
717.872 45473956 44598572 43855936 43343988 43144648 43313416 43876132 
721.247 44809312 46032700 47394188 48691828 49703588 50214056 50082516 
724.621 49268724 47850928 46000948 43947292 41925380 40108404 38599076 
727.996 37420908 36539280 35889164 35402728 35029532 34735144 34497632 
731.371 34301916 34131376 33970688 33809052 33643864 33480200 33327122 
734.746 33191692 33074148 32968000 32863844 32755606 32644146 32537066 
738.121 32443442 32368824 32310072 32257638 32199580 32128322 32045736 
741.496 31962488 31893340 31849268 31833078 31837822 31851516 31862174 
744.870 31864386 31860142 31856540 31860248 31873334 31891522 31908422 
748.245 31918016 31919620 31917408 31917982 31925752 31940446 31956888 
751.620 31969048 31974576 31977288 31986632 32012102 32059326 32125756 
754.995 32203254 32281268 32354012 32424088 32501284 32597852 32722164 
758.370 32875102 33050228 33238404 33433608 33637560 33858948 34109012 
761.744 34395156 34718204 35073784 35457228 35871888 36333776 36870708 
765.119 37521424 38327956 39327476 40552668 42023368 43740380 45674920 
768.494 47760160 49893552 51941564 53784564 55360008 56708432 57989484 
771.869 59461568 61421440 64075468 67452200 71311304 75176192 78367768 
775.244 80172888 80083992 77904760 73850664 68447888 62429968 56521996 
778.619 51267400 47014020 43862244 41730952 40428132 39735684 39466064 
781.993 39474268 39671820 40006232 40443224 40961920 41551748 42215040 
785.368 42965440 43824452 44811956 45939140 47208088 48616852 50168268 
788.743 51878344 53778788 55910520 58320268 61050684 64136608 67611992 
792.118 71512560 75877968 80751120 86161176 92105864 98525648 105295664 
795.493 112213176 118991440 125305088 130791696 135092736 137929504 
798.385 139128064 138679376 136743680 133650232 129840624 125766368 
801.278 121864992 118460032 115713888 113626976 112038208 110682136 
804.171 109230992 107401464 105018208 102051920 98628800 94987360 91420656 
807.546 88170352 85384400 83079648 81154464 79424320 77679680 75758976 
810.920 73567456 71099016 68413672 65612756 62801944 60064640 57463148 
814.295 55033952 52796188 50761952 48937456 47324016 45917228 44706904 
817.670 43679076 42819956 42119812 41573952 41181060 40939932 40846040 
821.045 40891216 41065672 41362924 41784284 42340672 43052180 43943732 
824.420 45036832 46345612 47869244 49588360 51458420 53408992 55346344 
827.794 57148624 58688244 59849600 60546108 60750628 60503180 59914752 
831.169 59138840 58357560 57754092 57471960 57610260 58202276 59209464 
834.544 60516740 61938576 63253528 64207628 64572012 64192688 63009596 
837.919 61082564 58568672 55701716 52727760 49861552 47271592 45049992 
841.294 43225380 41779576 40668220 39836560 39230196 38802864 38513728 
844.669 38327524 38218204 38167552 38167588 38218996 38325820 38491028 
848.043 38712840 38983944 39294720 39638640 40014476 40427476 40885536 
851.418 41395212 41956872 42565152 43210488 43885224 44586972 45320896 
854.793 46097504 46929624 47829476 48806820 49871472 51036476 52318412 
858.168 53740500 55329712 57112800 59118108 61374152 63909336 66753812 
861.543 69930384 73442736 77254728 81275272 85350040 89249256 92708912 
864.917 95454512 97233232 97876448 97313400 95590552 92856320 89347744 
868.292 85354032 81152352 77002208 73106672 69592432 66530616 63937552 
871.667 61794040 60060984 58692644 57646580 56882676 56366352 56067400 
875.042 55956500 56008856 56206196 56536904 56997324 57589412 58315568 
878.417 59173312 60151856 61228696 62373852 63549988 64717480 65842428 
881.792 66895180 67856896 68720712 69491392 70183528 70816000 71407712 
885.166 71971728 72512008 73027080 73515256 73981704 74445664 74939568 
888.541 75504336 76182160 77001928 77973904 79085496 80306728 81594216 
891.916 82900312 84182936 85402752 86524616 87518560 88354112 89003904 
895.291 89446136 89664280 89649664 89401680 88927856 88246184 87385880 
898.666 86392640 85323744 84244120 83221976 82311368 81549752 80952528 
902.040 80515584 80220792 80046216 79974312 79995104 80106664 80312512 
905.415 80617976 81028112 81546832 82179192 82931520 83811600 84826832 
908.790 85981896 87277016 88709184 90274232 91970792 93802376 95776480 
912.165 97902560 100188584 102639072 105257704 108051208 111034728 114236248 
915.540 117696536 121460112 125572280 130067032 134959888 140242064 
918.432 145874080 151782624 157841168 163868368 169635824 174857216 
921.325 179247744 182571184 184687040 185610464 185528432 184804720 
924.218 183898544 183331248 183618240 185156992 188213040 192859280 
927.110 198967104 206186656 213962976 221629872 228393248 233464304 
930.003 236189216 236069952 232879648 226677056 217796336 206791440 
932.896 194347824 181244976 168205328 155844800 144657616 134942752 
935.789 126850128 120406584 115548264 112168560 110147256 109376272 
938.681 109749224 111144744 113413760 116334888 119611776 122908128 
941.574 125841408 128062520 129318896 129472568 128539920 126670584 
944.467 124126872 121213264 118223800 115416640 112961096 110946080 
947.359 109390000 108260544 107500080 107044216 106840296 106846480 
950.252 107030440 107366840 107830176 108394744 109038400 109743424 
953.145 110500304 111306080 112160792 113063360 114008296 114986032 
956.037 115985576 116999152 118023696 119061864 120117944 121194776 
958.930 122290800 123400512 124517256 125637368 126762672 127899856 
961.823 129056480 130237208 131440792 132660864 133888872 135119232 
964.716 136351696 137591472 138845184 140116688 141404080 142700816 
967.608 143999648 145296816 146595456 147904768 149235808 150596016 
970.501 151986320 153401776 154835840 156285664 157755408 159254416 
973.394 160794368 162382256 164017472 165691840 167394720 169118928 
976.286 170863984 172636016 174442448 176286704 178164080 180062800 
979.179 181967456 183866560 185755264 187634656 189506656 191368560 
982.072 193209504 195013536 196765232 198457392 200094976 201694304 
984.964 203276176 204857184 206446000 208042976 209646480 211258272 
987.857 212888656 214553104 216268320 218043424 219876816 221757440 
990.750 223672080 225613248 227582304 229588864 231642880 233747792 
993.643 235896576 238074112 240264336 242459920 244665824 246897504 
996.535 249171840 251499408 253878976 256300384 258751248 261226976 
999.428 263734752 266291824 268916800 271620512 274401504 277249152 
1002.321 280152672 283109184 286128768 289229632 292429536 295733920 
1005.213 299132832 302602624 306119968 309670528 313254432 316881472 
1008.106 320558976 324278272 328010720 331708448 335318304 338797504 
1010.999 342116224 345255904 348198272 350910336 353342976 355440512 
1013.891 357152128 358451616 359342560 359852832 360016608 359860576 
1016.784 359397856 358631584 357568704 356232320 354662304 352909632 
1019.677 351023040 349033280 346956128 344800352 342582752 340342208 
1022.570 338141152 336049664 334136544 332446848 330995968 329775968 
1025.462 328765536 327942496 327284832 326767616 326351264 325968864 
1028.355 325532160 324938400 324083200 322886912 321294144 319273696 
1031.249 316811744 313901216 310541760 306746720 302552992 298025568 
1034.142 293247296 288310880 283294176 278245184 273181632 268095824 
1037.035 262969248 257785616 252540016 247240816 241907344 236566656 
1039.928 231253504 226014768 220903728 215978288 211288352 206855808 
1042.821 202664736 198653280 194729424 190781616 186709536 182451184 
1045.714 177990080 173359360 168625840 163880160 159213440 154702960 
1048.607 150414032 146389408 142652032 139208000 136046224 133143440 
1051.500 130466592 127982240 125659808 123475840 121416328 119473504 
1054.393 117641712 115914272 114281080 112729864 111249056 109829136 
1057.286 108463984 107149960 105882192 104652928 103452152 102268312 
1060.179 101093056 99924464 98767336 97631984 96530376 95473464 94468080 
1063.554 93518112 92625656 91792904 91021768 90311880 89657520 89045064 
1066.930 88452032 87852752 87221120 86538040 85796192 85000560 84166800 
1070.305 83315984 82472792 81661064 80901512 80213216 79611424 79106448 
1073.680 78703968 78402664 78195848 78071616 78017000 78017872 78059000 
1077.055 78124288 78192160 78235168 78223888 78128176 77925496 77607408 
1080.431 77182488 76675752 76121344 75560712 75034200 74576656 74220560 
1083.806 73994000 73922272 74030112 74338864 74866112 75625344 76624752 
1087.181 77867848 79351720 81064888 82979728 85043920 87182072 89288240 
1090.556 91235968 92904616 94186136 95012312 95366640 95285096 94850000 
1093.932 94168768 93369120 92573736 91885296 91389864 91143584 91176616 
1097.307 91495024 92082400 92900840 93889112 94968976 96042024 96990240 
1100.682 97695128 98037824 97916840 97270120 96079560 94379704 92246712 
1104.057 89793224 87146120 84423120 81732976 79158408 76754072 74553240 
1107.433 72567688 70793648 69216144 67813360 66560544 65431088 64401508 
1110.808 63451236 62562852 61722648 60919060 60141884 59383000 58636548 
1114.183 57900392 57176556 56470980 55791936 55147512 54544652 53987764 
1117.558 53478804 53018692 52608472 52249832 51945372 51697520 51508112 
1120.934 51377408 51303456 51281684 51303048 51353280 51409708 51439880 
1124.309 51406312 51266620 50982260 50528284 49896708 49101036 48171448 
1127.684 47152644 46093488 45037384 44021024 43068064 42190028 41388288 
1131.059 40657376 39986940 39364368 38776776 38213208 37665004 37127996 
1134.435 36601996 36090568 35598832 35131904 34693508 34285280 33907344 
1137.810 33559840 33243268 32959386 32710660 32498822 32324706 32187626 
1141.185 32086190 32019556 31988058 31993374 32037708 32122686 32247826 
1144.560 32410380 32605744 32828574 33072822 33332956 33602440 33873132 
1147.936 34135608 34379196 34593820 34772800 34913748 35019076 35094512 
1151.311 35148148 35188028 35220940 35252920 35289508 35335332 35395140 
1154.686 35472112 35567008 35678036 35801180 35931488 36064284 36196364 
1158.061 36325564 36449724 36565520 36667284 36747584 36798644 36813684 
1161.437 36788296 36720680 36610612 36458476 36264688 36029432 35753760 
1164.812 35440368 35094728 34723876 34335732 33937904 33536468 33136222 
1168.187 32741636 32357868 31991270 31649396 31339378 31066484 30833886 
1171.562 30641770 30489440 30376458 30304294 30276726 30298930 30375962 
1174.938 30512294 30710754 30973210 31301662 31699576 32171496 32723236 
1178.313 33360466 34089156 34915292 35846412 36892528 38066988 39384356 
1181.688 40859472 42505260 44330324 46340304 48538108 50924920 53498628 
1185.063 56250588 59163024 62200876 65310568 68425240 71459040 74319280 
1188.438 76915136 79152968 80951168 82244128 82984864 83155688 82770448 
1191.814 81876416 80544976 78866520 76941568 74861664 72708648 70547128 
1195.189 68416904 66338680 64315392 62338008 60392476 58466420 56555476 
1198.564 54665788 52814600 51025672 49328448 47749764 46310188 45023380 
1201.939 43893620 42918188 42088708 41394376 40822488 40358168 39986068 
1205.315 39687792 39443100 39232412 39037304 38843332 38641412 38427096 
1208.690 38199748 37960916 37713216 37460236 37206828 36960168 36729876 
1212.065 36527456 36365696 36256944 36212136 36241312 36353196 36555716 
1215.440 36856496 37261520 37774368 38395456 39122424 39951044 40877600 
1218.816 41900452 43021120 44243332 45571208 47008368 48557116 50219596 
1222.191 51999004 53902300 55939088 58121400 60459800 62960720 65623664 
1225.566 68440248 71394048 74457664 77594696 80755512 83873336 86872040 
1228.941 89664328 92158624 94275168 95945560 97122208 97784560 97940504 
1232.317 97632648 96934456 95959936 94851808 93764008 92864696 92308552 
1235.692 92224624 92722736 93880592 95750424 98366000 101742144 105876392 
1239.067 110741352 116284864 122418824 129013048 135913376 142929808 
1241.960 149846368 156447056 162499296 167775792 172082256 175256352 
1244.853 177197696 177876224 177330560 175657264 172990336 169500528 
1247.746 165369616 160779856 155914048 150920656 145903008 140906096 
1250.639 135909424 130837160 125578480 120029744 114117736 107828384 
1253.532 101214472 94392840 87526344 80784760 74339640 68332080 62852600 
1256.908 57949768 53624124 49840776 46539348 43648632 41098596 38821848 
1260.283 36764820 34887536 33161186 31568788 30100266 28747948 27504374 
1263.658 26360000 25303092 24322544 23408752 22555682 21760718 21023156 
1267.033 20342400 19716206 19140464 18610336 18122376 17675136 17269930 
1270.409 16909576 16596438 16331347 16113212 15940318 15811987 15729938 
1273.784 15698126 15721487 15803639 15945679 16144814 16394172 16683094 
1277.159 16998670 17323650 17637416 17918226 18143244 18294348 18362228 
1280.534 18347848 18262588 18123136 17947886 17749476 17532974 17296548 
1283.910 17034680 16743492 16424349 16084637 15736535 15394545 15070423 
1287.285 14773315 14509263 14282352 14096562 13955398 13860663 13810894 
1290.660 13800393 13820881 13862716 13919062 13987494 14069865 14170088 
1294.035 14291803 14435885 14600062 14781474 14978395 15192974 15430764 
1297.411 15699705 16007211 16358458 16756268 17201840 17696118 18240162 
1300.786 18832910 19468332 20130990 20797024 21433168 22002586 22473360 
1304.161 22820306 23030832 23104488 23051446 22889668 22641616 22334748 
1307.536 21997600 21658972 21346570 21081412 20876664 20735850 20654186 
1310.912 20620864 20622984 20649634 20691924 20743080 20798066 20851286 
1314.287 20897594 20932954 20955206 20964562 20962336 20949156 20923844 
1317.662 20882784 20822016 20739916 20639384 20528834 20419666 20323096 
1321.037 20247582 20195688 20166530 20157504 20168508 20203426 20271260 
1324.413 20382542 20548982 20780132 21083256 21464464 21928592 22477478 
1327.788 23107110 23802892 24538984 25275874 25969022 26576684 27065848 
1331.163 27421568 27647188 27762356 27795452 27778920 27744164 27716864 
1334.538 27718770 27767758 27877234 28056822 28311312 28640342 29040250 
1337.914 29506238 30035852 30630108 31294256 32035212 32860056 33772808 
1341.289 34772584 35852708 36999168 38188932 39385484 40544120 41613080 
1344.664 42539464 43283548 43821300 44148028 44273892 44216512 43991876 
1348.039 43607928 43064000 42354628 41475880 40432388 39241692 37933472 
1351.415 36549588 35136072 33736672 32393030 31138990 30000384 28997954 
1354.790 28144028 27443202 26891110 26476692 26184454 25999344 25911794 
1358.165 25917878 26018164 26213490 26500288 26867882 27300950 27781816 
1361.540 28297130 28842694 29423936 30053890 30746994 31516622 32370788 
1364.916 33311632 34335120 35429332 36570384 37715564 38806776 39770616 
1368.291 40526116 41005360 41159464 40967344 40435768 39594280 38488276 
1371.666 37168676 35696092 34136752 32558958 31039330 29650384 28449262 
1375.041 27472746 26730714 26212892 25899308 25773100 25828656 26076178 
1378.417 26540474 27259988 28286238 29675608 31486840 33767008 36528032 
1381.792 39720504 43206536 46772396 50121300 52921968 54875792 55723860 
1385.167 55304832 53581460 50670828 46848824 42500620 38074436 33948364 
1388.542 30365480 27428944 25118144 23346196 22001398 20983756 20212522 
1391.917 19626622 19183992 18850940 18598786 18405194 18252358 18131636 
1395.293 18043896 17997098 18001484 18063412 18181316 18342802 18526684 
1398.668 18705352 18855162 18964558 19037668 19091366 19146904 19222848 
1402.043 19327108 19457140 19601074 19744120 19872818 19979420 20063040 
1405.418 20127832 20180136 20226094 20272648 20328234 20403276 20509762 
1408.794 20657452 20850244 21084022 21347856 21629090 21918660 22216130 
1412.169 22529578 22872694 23257886 23692024 24175774 24706254 25281246 
1415.544 25903704 26581544 27323778 28133104 29000966 29901622 30797392 
1418.919 31651068 32439512 33161328 33829184 34460616 35065164 35644548 
1422.295 36197984 36732436 37270256 37852196 38527996 39344088 40334244 
1425.670 41512588 42881468 44438808 46183912 48112368 50206056 52426816 
1429.045 54709308 56970688 59134812 61146224 62987648 64677520 66263720 
1432.420 67807232 69368464 71006600 72778264 74743064 76968152 79519728 
1435.796 82445152 85751784 89388984 93267208 97295656 101402664 105536328 
1439.171 109632520 113596808 117269696 120431896 122856032 124319656 
1442.064 124664296 123823856 121817928 118744248 114749872 110028096 
1444.957 104785592 99217160 93515768 87850032 82374488 77247680 72611320 
1448.332 68573552 65183348 62418952 60203652 58436776 57036316 55956124 
1451.708 55194052 54774632 54727876 55066372 55780184 56838108 58200080 
1455.083 59828952 61673380 63661888 65696312 67665648 69486696 71132112 
1458.458 72635088 74051840 75437272 76834264 78268448 79751496 81279984 
1461.833 82836960 84380784 85837736 87112912 88094416 88689232 88861216 
1465.208 88648144 88148264 87474632 86728304 85974176 85243456 84549544 
1468.584 83893432 83265160 82636240 81952840 81135296 80088488 78741856 
1471.959 77091744 75233448 73336024 71583856 70109536 68960264 68120544 
1475.334 67548000 67209768 67098848 67235832 67650016 68366208 69389344 
1478.709 70705208 72287200 74108816 76154944 78423064 80924336 83676640 
1482.085 86699664 90010936 93629240 97581536 101906728 106651936 111854520 
1485.460 117521744 123590464 129892144 136160832 142008448 146960272 
1488.353 150535696 152279808 151880688 149264544 144641200 138476000 
1491.246 131347344 123831000 116350992 109141696 102306728 95842960 89711904 
1494.621 83900144 78437472 73410288 68942432 65149008 62094936 59775644 
1497.997 58137040 57097796 56578460 56518076 56869908 57596036 58661580 
1501.372 60024916 61636872 63445328 65380700 67359208 69276152 70967944 
1504.747 72207680 72700152 72116368 70235056 67087360 62998144 58428588 
1508.122 53772340 49250832 44932204 40815428 36891736 33165082 29672204 
1511.498 26465318 23586780 21065238 18902710 17079066 15560286 14303343 
1514.873 13259351 12369884 11576247 10831784 10113555 9433657 8829377 
1518.248 8344037 8002553 7797939 7686259 7599525 7463120 7229516 6905235 
1522.105 6545739 6222774 5982547 5834625 5755815 5709818 5660973 5589243 
1525.963 5491853 5378684 5261554 5145964 5030741 4914710 4804036 4716603 
1529.820 4675741 4701832 4801356 4960220 5142813 5297743 5377745 5354833 
1533.678 5238179 5068016 4898993 4775627 4719752 4737505 4826584 4983882 
1537.535 5205784 5482491 5790870 6083877 6300425 6389287 6336801 6176224 
1541.393 5967732 5769313 5609448 5484974 5368822 5228219 5039590 4802395 
1545.250 4539112 4287801 4085665 3953836 3895927 3899170 3942468 4001487 
1549.107 4055798 4092823 4108544 4106369 4093659 4079009 4069912 4071250 
1552.965 4086067 4114565 4155877 4210742 4284421 4388870 4541590 4759548 
1556.822 5049546 5389957 5719017 5925609 5892861 5578570 5053904 4460972 
1560.680 3922908 3508716 3230393 3066554 2982973 2944141 2922825 2902577 
1564.537 2881130 2866921 2872458 2907481 2975233 3071793 3188201 3310449 
1568.395 3420842 3500132 3531464 3507580 3436472 3341367 3254294 3204990 
1572.252 3217508 3303404 3461287 3676765 3925115 4176149 4397472 4567104 
1576.109 4679927 4749866 4800720 4856505 4935990 5051021 5211552 5427095 
1579.967 5705521 6051755 6465051 6939238 7464873 8032422 8634716 9263976 
1583.824 9908081 10546896 11149256 11679129 12104053 12401863 12568614 
1587.199 12619778 12588806 12519912 12462929 12470465 12589318 12860121 
1590.575 13314526 13967545 14812465 15812023 16901446 17984320 18946838 
1593.950 19682610 20097742 20135398 19784762 19082190 18103792 16945578 
1597.325 15715336 14507106 13393626 12428389 11640771 11041537 10626717 
1600.700 10383261 10294087 10343117 10519976 10819079 11236872 11768248 
1604.076 12401658 13117332 13889537 14685017 15464378 16186289 16801968 
1607.451 17262518 17525662 17558712 17347444 16897346 16234132 15400004 
1610.826 14449450 13447552 12456110 11527929 10701797 9995413 9409955 
1614.201 8931914 8538196 8197470 7874793 7543589 7191213 6827475 6479580 
1618.059 6180223 5954799 5814745 5759307 5778043 5855245 5971797 6109112 
1621.916 6250875 6383470 6498616 6594382 6675195 6750638 6832760 6934087 
1625.774 7062782 7220690 7401000 7589140 7765286 7911774 8020171 8094869 
1629.631 8151349 8209659 8289153 8402441 8554247 8742549 8960935 9199838 
1633.489 9443782 9670313 9847135 9935404 9904555 9748583 9494545 9189685 
1637.346 8882097 8604534 8368188 8168534 7991347 7821925 7650309 7476806 
1641.203 7310145 7165207 7056316 6991762 6973244 6995163 7046752 7110876 
1645.061 7165881 7185250 7140146 7010350 6793616 6513718 6212388 5938575 
1648.918 5735939 5631635 5639792 5759442 5976533 6255043 6529190 6711232 
1652.776 6711434 6498347 6123226 5684136 5262359 4896882 4596671 4356003 
1656.633 4166548 4022254 3918495 3851497 3816231 3807841 3820777 3849325 
1660.490 3887068 3924613 3947517 3939993 3887703 3786950 3648730 3498495 
1664.348 3368146 3284107 3263675 3310416 3415900 3561897 3724752 3879947 
1668.205 4002925 4075531 4087505 4039009 3940729 3811886 3678101 3563500 
1672.063 3487573 3460218 3477753 3522044 3560660 3558823 3489443 3350482 
1675.920 3166773 2979904 2827899 2730360 2689617 2694251 2729160 2782912 
1679.778 2853980 2950446 3086142 3271788 3506044 3767465 4012957 4179394 
1683.635 4201609 4049778 3753628 3392356 3046233 2768173 2573710 2452568 
1687.492 2382532 2337690 2296085 2239995 2161268 2061847 1954229 1857617 
1691.350 1793333 1780623 1830964 1946407 2117981 2326331 2542613 2730260 
1695.207 2858850 2917455 2923859 2914252 2928163 2990146 3103061 3246015 
1699.065 3375359 3436104 3379099 3196345 2929930 2650411 2417215 2258946 
1702.922 2178984 2161135 2179416 2201395 2198665 2153243 2063745 1945142 
1706.780 1820117 1710063 1626942 1573134 1544137 1533530 1537221 1556706 
1710.637 1597942 1669582 1778461 1926804 2111189 2323000 2552612 2789615 
1714.494 3026046 3254695 3465161 3640911 3758775 3793134 3727760 3566407 
1718.352 3336525 3079101 2835737 2636810 2495855 2414150 2383831 2392627 
1722.209 2426045 2469829 2512951 2547846 2572310 2589509 2606875 2634176 
1726.067 2679715 2748999 2842240 2953816 3073462 3190571 3296927 3391688 
1729.924 3481327 3578066 3694108 3835017 3993260 4142094 4239483 4232289 
1733.781 4082153 3791463 3411024 3017138 2673914 2419748 2261810 2188208 
1737.639 2175087 2194202 2218380 2225973 2208622 2172257 2133231 2108492 
1741.496 2108991 2136128 2182880 2238096 2292121 2341388 2390028 2447770 
1745.354 2525116 2629143 2760203 2911951 3073028 3230827 3375059 3496624 
1749.211 3587153 3636567 3632324 3564202 3430561 3244180 3031185 2824464 
1753.069 2655311 2542746 2491890 2493023 2525682 2562677 2578509 2558178 
1756.926 2501121 2421347 2338956 2273934 2237397 2230236 2243292 2259978 
1760.783 2261510 2229304 2153309 2034749 1887700 1733948 1597809 1500579 
1764.641 1454898 1463874 1520429 1609116 1709098 1799887 1869031 1915189 
1768.498 1948138 1982021 2028890 2091578 2161734 2221011 2247289 2224908 
1772.356 2151411 2040608 1915455 1798723 1704674 1637253 1594450 1572036 
1776.213 1567514 1580815 1613639 1666389 1735378 1813063 1887933 1947705 
1780.071 1984451 1996567 1990276 1976895 1968607 1973900 1994570 2025494 
1783.928 2056621 2076895 2077661 2057020 2020734 1981522 1954395 1954395 
1787.785 1992440 2073600 2195534 2348417 2516284 2678081 2809190 2888301 
1791.643 2900076 2841473 2723825 2570143 2407187 2256548 2132365 2039276 
1795.500 1975564 1935424 1912660 1902709 1903241 1914091 1935291 1965179 
1799.358 1998864 2027958 2041906 2032152 1994437 1930997 1850230 1763456 
1803.215 1682820 1617065 1571271 1546165 1540280 1550422 1573799 1608451 
1807.073 1652718 1705140 1763490 1824043 1882708 1935124 1976995 2005521 
1810.930 2018104 2014309 1995669 1966377 1933360 1904573 1888665 1891494 
1814.787 1915522 1958323 2012778 2070437 2122476 2163998 2193969 2215250 
1818.645 2232701 2250519 2272236 2300515 2337924 2388196 2455234 2541113 
1822.502 2643544 2754934 2861485 2946543 2997420 3009965 2992749 2963023 
1826.360 2942240 2947044 2983574 3045966 3117211 3176118 3201485 3181392 
1830.217 3117478 3023744 2921091 2829133 2762404 2726892 2722891 2745765 
1834.074 2789915 2849211 2918389 2993550 3072027 3151553 3231261 3310549 
1837.932 3390453 3473711 3565672 3674225 3807908 3975471 4182138 4428066 
1841.789 4705583 4999066 5286910 5544807 5753969 5907539 6013118 6087842 
1845.647 6150278 6214270 6283986 6356134 6422308 6475174 6509144 6523169 
1849.504 6519301 6500533 6468549 6423250 6362153 6283179 6185298 6070235 
1853.362 5941531 5803395 5659630 5512457 5362716 5210915 5058228 4906567 
1857.219 4758676 4616295 4480288 4349543 4222152 4096368 3971090 3847051 
1861.076 3725621 3608903 3498662 3397499 3308479 3236101 3186298 3165204 
1864.934 3176552 3220312 3290984 3378398 3467900 3544425 3594703 3609771 
1868.791 3587153 3530896 3450065 3356092 3259970 3170911 3094885 3034688 
1872.649 2989946 2957852 2933533 2911884 2888868 2862418 2832102 2798919 
1876.506 2763371 2724859 2681415 2630543 2569777 2499954 2422846 2342154 
1880.364 2261777 2184578 2111622 2042372 1975797 1910995 1848334 1789174 
1884.221 1735478 1689805 1654781 1632729 1626410 1637219 1664958 1705739 
1888.078 1750848 1788941 1807739 1799488 1764588 1712658 1659570 1621521 
1891.936 1611012 1631166 1676500 1734081 1789906 1832295 1855388 1860712 
1895.793 1853957 1842843 1833094 1828036 1829034 1836355 1850829 1873391 
1899.651 1905038 1944909 1990642 2038810 2086484 2132132 2176553 2221844 
1903.508 2269471 2319802 2371371 2422247 2471429 2519617 2568543 2619542 
1907.365 2671447 2719024 2754468 2769140 2757736 2720691 2664646 2599275 
1911.223 2535147 2479760 2436274 2404588 2384164 2375202 2380333 2402722 
1915.080 2442605 2495222 2550345 2592742 2607875 2587342 2532581 2455601 
1918.938 2373437 2304345 2260711 2245890 2255748 2280596 2308909 2328796 
1922.795 2331494 2312207 2270004 2208189 2133297 2053591 1977794 1912859 
1926.653 1863274 1829001 1806808 1790505 1774735 1755671 1732750 1707069 
1930.510 1680824 1655047 1630002 1604859 1579751 1556440 1538617 1529772 
1934.367 1531468 1542109 1556474 1568711 1573699 1571305 1565186 1563158 
1938.225 1573100 1600170 1644636 1702678 1767216 1829966 1883906 1923709 
1942.082 1945508 1948437 1933094 1903142 1864739 1825973 1794963 1777563 
1945.940 1776132 1787976 1807407 1827437 1842876 1852426 1858117 1863407 
1949.797 1871128 1882143 1895188 1908965 1924075 1943412 1971337 2011580 
1953.655 2063778 2122609 2178384 2221144 2243259 2243558 2224908 2195035 
1957.512 2161301 2128436 2098370 2071902 2049363 2033317 2028124 2037013 
1961.369 2060615 2095673 2136028 2175720 2212352 2247289 2284726 2327830 
1965.227 2375302 2419948 2450802 2457200 2434175 2386063 2324599 2264641 
1969.084 2219113 2193803 2186476 2192038 2202128 2212452 2221377 2230003 
1972.942 2238363 2245124 2247488 2244158 2238163 2237397 2251618 2288423 
1976.799 2348151 2421314 2492090 2542846 2562977 2550779 2513285 2461299 
1980.656 2405254 2349950 2295218 2238329 2177618 2114285 2054923 2005921 
1984.514 1973334 1957823 1957024 1965812 1980856 2001627 2031087 2073167 
1988.371 2130167 2199431 2275566 2350882 2419548 2478127 2527249 2568010 
1992.229 2601175 2625309 2638510 2639176 2629343 2614908 2602508 2598775 
1996.086 2605142 2619242 2634510 2644244 2645910 2641443 2637310 2640110 
1999.944 2654145 2677615 2704353 2726092 2736429 2732961 2717923 2696585 
2003.801 2672247 2646477 2618509 2586342 2550412 2514584 2484292 2465064 
2007.658 2457867 2458866 2459566 2452035 2430976 2397158 2355813 2314006 
2011.516 2278164 2250519 2230236 2216515 2211120 2218247 2244757 2295452 
2015.373 2369572 2458833 2552245 2635343 2699852 2744464 2774742 2799419 
2019.231 2825498 2856115 2888968 2919890 2945476 2965792 2983874 3004927 
2023.088 3032086 3065353 3101126 3134565 3161933 3181959 3194509 3201085 
2026.946 3201485 3193942 3176252 3147782 3111204 3073328 3042296 3024645 
2030.803 3022910 3035689 3057979 3084507 3113006 3144010 3179356 3221447 
2034.660 3268516 3316993 3362436 3403109 3441548 3483231 3535072 3600283 
2038.518 3676832 3757304 3831006 3889876 3929996 3954104 3967813 3978212 
2042.375 3989081 4000082 4007841 4008911 4001119 3986572 3968950 3953268 
2046.233 3942401 3936918 3935145 3935513 3936817 3938823 3941331 3942267 
2050.090 3938121 3924680 3898903 3861928 3818504 3776556 3744370 3727359 
2053.948 3726123 3735781 3750052 3762451 3770473 3775252 3780834 3791396 
2057.805 3808242 3829869 3851531 3869984 3882822 3891548 3899371 3910270 
2061.662 3925784 3946113 3968415 3989314 4006403 4018374 4025030 4026000 
2065.520 4020013 4005533 3981690 3949422 3911808 3873093 3837190 3806103 
2069.377 3778494 3750587 3718536 3680340 3637069 3592365 3551273 3517601 
2073.235 3491815 3471674 3453405 3433900 3412760 3391655 3373589 3361101 
2077.092 3354422 3351584 3349447 3345440 3338796 3330582 3322802 3316325 
2080.949 3310916 3304539 3295625 3283740 3270987 3261505 3259035 3265378 
2084.807 3278832 3294890 3308178 3314789 3313554 3306743 3298029 3290383 
2088.664 3284474 3278465 3268950 3253059 3230693 3203388 3175050 3148917 
2092.522 3125921 3105097 3084641 3062517 3039159 3017772 3001256 2992549 
2096.379 2991814 2996519 3002191 3005127 3003692 2998521 2992115 2986977 
2100.237 2984308 2984308 2986076 2989679 2996585 3009531 3031518 3063217 
2104.094 3102894 3146079 3187967 3224818 3256531 3286344 3319430 3360199 
2107.951 3411558 3472175 3538713 3606898 3673423 3736650 3796410 3852968 
2111.809 3906793 3956779 4002222 4042687 4078808 4112424 4145741 4180164 
2115.666 4216062 4252867 4289775 4326720 4364638 4405505 4450929 4501145 
2119.524 4554681 4608861 4660669 4709000 4754321 4798609 4844074 4891922 
2123.381 4941754 4991457 5038551 5081661 5120584 5156861 5191365 5224530 
2127.239 5255316 5282181 5304217 5322262 5339336 5359530 5385964 5419580 
2131.096 5458433 5498933 5536786 5569877 5598271 5623579 5647143 5668896 
2134.953 5685983 5694409 5691824 5679168 5660604 5643316 5633783 5635059 
2138.811 5645834 5661812 5677019 5688567 5696423 5703507 5712840 5725698 
2142.668 5738994 5746884 5743224 5724356 5691387 5649862 5606595 5568199 
2146.526 5538095 5516148 5499638 5485880 5473364 5461520 5449172 5433571 
2150.383 5409045 5371405 5316761 5247032 5169201 5092523 5025780 4973961 
2154.240 4934347 4900032 4862201 4816097 4762998 4711211 4672559 4658057 
2158.098 4672458 4713388 4772981 4841360 4910018 4973425 5027791 5069123 
2161.955 5093361 5096579 5077537 5038685 4987703 4933946 4884651 4843906 
2165.813 4809967 4778207 4743099 4702502 4657956 4614286 4576245 4545239 
2169.670 4519257 4492641 4460335 4419965 4374846 4331237 4297471 4278899 
2173.528 4276156 4283718 4293723 4297605 4288804 4264812 4225999 4174945 
2177.385 4114230 4047771 3979717 3915218 3859922 3818939 3793836 3782739 
2181.242 3780132 3778528 3772679 3760513 3744571 3729465 3718971 3713056 
2185.100 3708645 3698820 3679505 3650167 3615317 3583879 3566039 3567375 
2188.957 3589425 3628248 3676297 3726290 3772478 3812253 3844745 3869583 
2192.815 3886399 3893888 3892116 3882086 3867510 3852300 3840165 3832209 
2196.672 3827596 3823485 3817033 3807841 3797312 3788120 3783541 3784143 
2200.530 3788722 3794137 3797045 3795841 3789591 3779196 3764891 3745406 
2204.387 3719339 3685453 3644119 3599347 3557253 3523948 3504307 3497927 
2208.244 3501535 3508783 3513660 3513860 3510186 3506712 3507747 3516299 
2212.102 3532032 3552409 3573790 3593835 3612277 3630052 3649031 3669747 
2215.959 3691301 3711552 3728161 3740493 3748982 3754864 3758641 3759878 
2219.817 3756469 3746442 3729297 3707141 3684183 3665671 3655546 3654611 
2223.674 3660558 3668979 3675361 3676865 3672855 3665103 3655613 3645589 
2227.531 3634563 3622000 3606898 3590360 3574324 3561061 3552142 3546964 
2231.389 3543122 3537644 3528023 3514294 3498395 3483631 3472676 3466831 
2235.246 3465462 3466597 3469470 3473979 3481961 3495522 3516065 3542454 
2239.104 3572052 3600918 3626043 3647059 3665404 3683882 3704735 3728796 
2242.961 3754229 3778193 3797813 3812086 3821312 3828633 3835652 3844076 
2246.819 3853470 3862830 3870786 3876838 3881418 3885563 3889608 3892952 
2250.676 3894155 3891480 3884226 3873795 3862863 3854740 3852066 3855175 
2254.533 3862496 3870853 3877439 3880381 3879311 3874798 3867945 3859019 
2258.391 3848121 3835084 3820610 3806370 3794939 3788287 3787552 3791764 
2262.248 3798783 3806036 3812253 3817969 3825891 3838962 3859587 3887836 
2266.106 3921838 3957648 3991020 4018809 4039142 4051684 4056701 4055095 
2269.963 4047604 4035397 4020013 4003861 3989448 3978881 3972728 3969652 
2273.821 3967679 3964135 3957749 3948587 3938489 3929327 3923510 3921169 
2277.678 3921704 3923209 3923844 3922741 3920200 3917157 3915252 3915820 
2281.535 3920099 3928960 3943103 3963165 3989314 4020849 4055965 4091920 
2285.393 4125737 4155007 4179327 4199367 4216999 4234531 4253804 4274918 
2289.250 4297906 4322068 4347670 4375716 4408350 4447079 4493076 4546143 
2293.108 4604373 4665291 4725882 4784069 4838445 4888471 4934750 4978285 
2296.965 5020215 5062452 5106738 5154313 5205784 5260448 5316526 5371338 
2300.823 5422432 5468533 5509873 5548096 5586087 5626735 5672017 5723516 
2304.680 5781871 5847420 5920739 6002031 6091404 6188054 6290104 6394936 
2308.537 6499962 6603297 6704704 6804285 6903215 7001729 7099290 7194447 
2312.395 7285783 7372488 7455704 7538296 7624444 7717963 7822060 7937724 
2316.252 8064522 8200408 8342516 8488119 8634513 8778726 8918453 9051561 
2320.110 9176385 9292240 9398612 9495358 9581218 9654491 9712699 9754242 
2323.967 9779319 9790536 9793586 9796569 9807278 9832663 9876522 9939167 
2327.824 10017452 10105484 10196417 10283094 10359269 10420728 10464612 
2331.200 10491020 10501985 10502595 10499370 10498963 10507484 10528870 
2334.575 10564142 10611607 10668415 10731140 10796829 10864295 10932486 
2337.950 11000924 11068727 11134264 11195254 11249997 11296822 11334912 
2341.325 11363753 11382018 11386883 11373685 11334741 11260809 11142898 
2344.701 10973806 10752503 10485996 10191769 9895674 9628778 9424481 9309809 
2348.558 9304122 9415474 9640161 9963034 10359541 10802434 11262679 11715516 
2352.416 12144565 12540340 12899987 13224099 13515055 13775698 14008813 
2355.791 14218736 14410196 14587760 14754324 14911111 15056530 15188376 
2359.166 15305366 15408346 15500156 15583537 15660407 15729664 15787659 
2362.541 15829548 15852228 15855219 15841987 15817899 15787041 15752029 
2365.917 15711421 15661437 15596897 15514510 15412466 15291809 15153790 
2369.292 14999591 14829470 14642657 14438797 14218976 13985407 13742489 
2372.667 13495162 13247327 13002398 12762452 12529017 12303957 12089607 
2376.042 11888201 11701662 11531433 11377427 11239897 11119001 11015911 
2379.417 10933063 10873401 10839088 10830901 10847513 10885835 10940912 
2382.793 11008162 11082867 11161018 11239150 11314370 11383685 11444710 
2386.168 11495844 11536366 11566209 11585980 11595848 11595508 11584278 
2389.543 11561240 11526533 11481010 11426341 11364638 11297468 11225446 
2392.918 11148100 11064853 10975844 10882777 10788881 10698163 10614697 
2396.294 10541363 10479276 10428602 10388725 10359778 10342913 10340334 
2399.669 10354043 10385399 10434066 10498658 10576602 10665257 10763100 
2403.044 10869425 10984680 11109516 11244896 11391270 11549025 11718172 
2406.419 11898724 12090493 12292947 12505384 12726899 12956925 13195748 
2409.795 13444305 13703641 13974045 14254754 14542805 14833721 15121848 
2413.170 15400999 15665730 15911547 16134394 16331552 16500233 16638715 
2416.545 16745936 16822566 16870650 16893214 16894314 16877228 16845056 
2419.920 16799936 16743388 16677104 16602911 16522776 16438665 16352642 
2423.296 16265985 16180340 16097842 16021032 15953654 15900137 15864188 
2426.671 15849169 15857177 15888624 15943376 16021203 16121671 16244451 
2430.046 16389526 16555853 16742218 16947368 17170094 17410106 17667818 
2433.421 17943950 18238780 18551892 18881462 19225412 19581454 19949028 
2436.797 20328686 20722402 21132580 21561254 22009626 22478070 22966548 
2440.172 23475198 24004472 24554974 25127518 25721840 26337220 26972406 
2443.547 27626212 28298298 28988604 29697392 30424326 31168144 31926076 
2446.922 32694976 33471182 34251648 35033732 35815072 36593236 37364964 
2450.298 38126888 38875836 39609348 40325588 41023424 41701336 42356344 
2453.673 42984280 43578880 44133684 44642896 45101196 45504528 45848876 
2457.048 46129892 46341964 46478976 46534184 46501804 46377352 46158524 
2460.423 45844788 45437828 44941064 44359868 43700988 42973676 42187540 
2463.799 41352896 40480576 39580420 38662204 37735876 36811124 35898520 
2467.174 35009704 34154856 33344008 32585456 31884674 31245402 30669008 
2470.549 30155456 29704204 29313642 28981874 28705964 28481632 28303780 
2473.924 28165630 28060214 27980836 27920694 27873948 27835582 27801246 
2477.300 27767864 27733286 27696414 27656580 27613748 27566682 27514116 
2480.675 27452944 27380558 27294530 27194088 27080094 26955272 26823154 
2484.050 26687128 26550160 26413870 26279698 26148454 26021294 25899518 
2487.425 25784386 25676526 25575372 25479580 25386550 25293784 25199144 
2490.801 25100908 24998480 24891202 24778898 24660872 24536672 24406024 
2494.176 24268966 24125542 23976040 23820358 23657874 23487508 23308194 
2497.551 23119060 22919986 22711958 22496392 22275034 22049328 21820536 
2500.926 21589668 21357602 21125520 20894430 20666140 20442066 20223630 
2504.302 20012346 19809452 19615840 19432744 19259942 19097044 18942442 
2507.677 18793328 18646998 18501236 18354658 18207472 18061062 17916948 
2511.052 17776296 17639072 17504342 17369964 17234798 17097988 16960392 
2514.427 16823564 16689740 16560880 16437942 16321335 16210433 16105097 
2517.802 16005218 15911445 15824977 15747081 15678681 15620837 15573406 
2521.178 15536316 15509084 15490954 15481236 15478833 15483468 15494799 
2524.553 15512965 15537895 15569078 15605243 15643850 15681807 15716059 
2527.928 15743852 15764227 15777765 15785426 15788829 15788794 15785255 
2531.303 15777936 15766254 15750758 15733477 15716540 15702935 15694313 
2534.679 15691049 15691942 15695240 15699122 15702901 15706679 15711971 
2538.054 15720112 15732342 15749177 15770378 15795736 15824839 15857246 
2541.429 15892714 15930178 15968125 16004909 16039219 16070610 16099939 
2544.804 16129339 16161047 16196297 16235232 16276406 16317310 16355498 
2548.180 16389355 16418844 16445272 16470153 16495483 16522156 16550036 
2551.555 16578194 16605217 16630348 16652416 16671423 16687158 16700208 
2554.930 16710950 16720179 16728822 16737465 16746487 16755546 16763363 
2558.305 16768081 16767219 16758678 16739910 16709538 16666500 16611243 
2561.681 16544599 16468363 16385328 16298905 16211638 16125901 16042622 
2565.056 15961766 15882093 15803294 15725369 15649792 15579278 15516742 
2568.431 15464721 15424001 15394202 15373433 15359703 15351910 15349713 
2571.806 15353936 15365675 15385757 15413942 15448892 15488619 15531439 
2575.182 15576188 15622142 15669612 15718669 15769277 15821267 15874429 
2578.557 15928974 15985176 16043758 16105235 16169781 16236952 16306473 
2581.932 16378310 16453084 16532036 16616577 16707439 16804552 16906236 
2585.307 17009974 17113532 17215734 17316618 17417728 17521108 17627756 
2588.683 17737740 17849310 17959698 18066244 18167046 18261516 18350442 
2592.058 18435338 18517762 18599096 18679546 18758868 18836718 18912434 
2595.433 18986090 19057886 19128692 19199436 19271720 19346890 19426334 
2598.808 19511060 19601490 19697206 19797800 19902752 20012034 20126512 
2602.184 20247478 20376672 20515252 20663778 20821564 20987164 21159052 
2605.559 21335674 21516130 21699756 21886390 22075718 22267118 22459926 
2608.934 22653484 22847094 23040196 23231878 23421132 23605638 23783572 
2612.309 23951846 24108204 24250712 24378336 24490500 24586706 24666518 
2615.685 24729824 24776232 24806576 24822434 24826012 24820012 24807594 
2619.060 24790686 24770934 24749010 24725510 24700644 24675074 24649404 
2622.435 24624364 24600346 24577624 24556130 24536182 24518300 24503926 
2625.810 24494286 24491132 24495268 24507222 24526820 24553326 24586284 
2629.186 24625382 24670586 24722142 24780442 24845344 24916430 24993146 
2632.561 25074226 25158274 25243984 25329960 25415250 25498868 25580748 
2635.936 25661482 25742230 25824544 25909682 25998674 26092012 26189416 
2639.311 26290330 26393834 26498984 26604970 26710842 26815964 26919594 
2642.687 27021416 27121746 27221252 27321274 27423086 27528202 27637228 
2646.062 27750380 27867306 27987658 28110870 28237228 28366840 28500066 
2649.437 28637190 28778112 28922938 29071390 29223722 29380502 29542198 
2652.812 29709740 29883412 30063370 30249334 30441066 30638428 30841534 
2656.188 31050860 31267122 31490258 31720642 31958100 32202114 32452476 
2659.563 32708876 32970466 33236508 33505864 33776892 34047904 34317944 
2662.938 34586212 34853176 35119116 35385080 35651236 35917956 36184764 
2666.313 36451488 36718124 36984956 37253000 37523048 37796164 38072992 
2669.688 38353872 38639240 38929184 39224140 39524056 39828860 40137768 
2673.064 40449516 40762508 41074992 41385592 41692908 41996068 42294324 
2676.439 42586680 42872504 43151384 43423588 43690436 43954036 44217356 
2679.814 44483992 44757260 45040472 45336416 45647428 45975676 46322572 
2683.189 46689224 47076016 47483000 47909680 48355108 48818836 49300420 
2686.565 49799376 50315388 50847620 51395120 51956276 52530236 53115664 
2689.940 53712232 54320356 54940240 55572304 56216944 56874476 57544624 
2693.315 58227812 58924412 59634368 60357976 61094468 61842748 62601700 
2696.690 63370100 64147324 64933284 65727844 66531160 67342848 68161552 
2700.066 68985928 69814680 70646528 71480872 72317056 73153992 73989560 
2703.441 74820792 75643640 76453440 77245544 78015536 78758504 79469712 
2706.816 80143960 80775744 81359976 81892576 82370800 82793536 83160256 
2710.191 83471272 83726624 83926040 84069280 84156992 84190096 84170464 
2713.567 84100048 83980424 83812008 83594496 83326616 83007048 82635320 
2716.942 82211896 81738128 81216816 80651136 80045416 79404544 78734904 
2720.317 78043616 77338768 76628704 75921376 75224264 74544000 73886280 
2723.692 73256392 72659216 72098568 71577840 71099288 70664152 70272920 
2727.068 69925672 69622808 69364768 69152576 68986472 68866832 68792944 
2730.443 68763256 68775560 68827272 68916184 69039728 69195320 69380320 
2733.818 69591536 69825960 70080536 70352824 70641104 70943872 71259448 
2737.193 71585296 71918320 72253864 72587856 72915880 73234744 73542376 
2740.569 73837344 74119080 74387264 74641536 74882560 75111432 75330736 
2743.944 75543640 75754080 75965624 76181440 76403496 76633136 76870808 
2747.319 77116080 77367920 77624448 77882280 78137528 78386344 78625056 
2750.694 78851544 79065464 79268040 79461920 79649984 79835560 80021432 
2754.070 80210984 80407280 80613592 80832336 81065040 81311272 81568384 
2757.445 81832456 82098280 82360792 82614760 82856128 83080504 83283472 
2760.820 83460672 83607024 83718464 83791152 83822936 83812336 83758480 
2764.195 83660608 83518176 83330912 83099800 82827576 82519104 82181112 
2767.571 81821008 81446024 81063248 80678224 80296000 79920976 79557176 
2770.946 79208512 78878240 78568392 78280432 78014424 77770224 77547832 
2774.321 77347048 77167368 77007752 76865304 76735880 76613088 76489864 
2777.696 76359216 76213824 76047368 75854256 75629128 75367312 75065312 
2781.072 74721376 74336264 73913352 73458432 72978752 72482128 71976384 
2784.447 71467560 70961424 70462200 69973392 69497032 69034096 68583712 
2787.822 68143568 67710568 67281408 66853748 66426204 65999424 65574916 
2791.197 65154396 64739824 64332872 63934364 63545504 63167564 62802136 
2794.573 62450744 62114660 61794536 61489460 61198064 60918836 60649840 
2797.948 60389544 60136820 59890676 59650108 59413964 59181208 58950672 
2801.323 58721548 58492920 58263540 58032088 57796592 57555288 57306444 
2804.698 57049164 56783952 56512300 56236632 55959552 55683896 55411576 
2808.073 55144504 54883652 54630356 54385208 54148752 53920608 53699928 
2811.449 53485100 53274160 53065488 52857784 52650852 52445136 52241424 
2814.824 52040724 51844444 51653700 51470432 51297376 51138188 50997312 
2818.199 50879540 50789924 50732644 50711272 50728736 50786308 50884796 
2821.574 51023660 51201524 51415972 51663184 51939584 52240040 52559816 
2824.950 52893708 53235540 53578616 53915844 54238732 54539920 54811768 
2828.325 55047908 55243684 55395576 55501064 55559164 55569144 55531524 
2831.700 55448016 55321316 55155264 54954188 54723436 54468060 54192972 
2835.075 53902716 53601632 53292624 52978112 52659228 52335792 52006844 
2838.451 51671320 51328404 50978160 50621944 50261708 49899868 49537884 
2841.826 49176392 48815088 48452488 48087680 47720436 47351620 46983448 
2845.201 46619352 46262748 45917004 45585156 45269588 44972444 44695852 
2848.576 44441672 44211780 44007936 43830792 43681056 43558256 43461672 
2851.952 43389680 43340732 43312356 43301924 43306576 43323560 43350136 
2855.327 43384556 43424944 43470132 43518624 43568256 43616136 43658672 
2858.702 43691536 43710588 43711612 43690988 43645772 43573604 43472512 
2862.077 43341756 43180768 42990540 42772672 42530360 42267588 41988732 
2865.453 41699332 41405308 41111816 40825216 40551396 40295920 40064616 
2868.828 39862600 39694076 39562272 39468680 39412944 39392376 39402316 
2872.203 39437112 39489832 39554684 39627244 39704496 39785684 39871132 
2875.578 39961656 40057532 40158376 40262660 40368860 40475484 40581736 
2878.954 40687760 40794424 40902612 41012608 41124200 41236656 41348964 
2882.329 41460788 41572092 41683284 41795340 41908480 42022856 42137448 
2885.704 42251444 42363068 42471280 42575020 42673820 42767044 42854512 
2889.079 42935668 43010912 43080464 43145160 43206020 43264108 43320228 
2892.455 43374964 43428496 43480792 43531848 43581884 43631448 43681532 
2895.830 43733528 43788936 43849488 43916788 43992316 44076436 44168828 
2899.205 44268096 44371752 44476616 44579556 44678004 44769636 44853504 
2902.580 44928608 44994164 45049076 45091564 45120020 45133032 45130200 
2905.956 45111784 45079400 45034776 44979980 44916408 44845020 44766040 
2909.331 44679544 44585944 44485392 44378948 44267548 44152208 44033420 
2912.706 43911804 43787360 43660284 43531260 43401032 43271140 43143076 
2916.081 43018816 42899568 42786568 42680396 42581416 42489768 42405732 
2919.457 42330336 42264960 42211424 42172024 42149024 42144092 42158112 
2922.832 42190644 42239940 42302832 42375008 42451840 42527440 42596548 
2926.207 42654372 42697032 42722000 42728288 42716444 42688368 42646656 
2929.582 42595268 42538476 42481216 42429952 42391596 42374060 42386188 
2932.958 42435872 42530108 42674624 42872396 43124520 43429960 43786080 
2936.333 44188740 44632904 45113036 45622728 46155464 46705088 47266160 
2939.708 47833948 48404964 48976212 49544904 50107540 50659140 51193132 
2943.083 51700428 52169120 52586032 52936340 53205128 53379916 53452724 
2946.458 53421320 53290752 53073392 52788184 52456124 52099964 51740328 
2949.834 51392848 51068524 50772864 50507176 50269184 50055184 49860992 
2953.209 49682228 49516052 49360332 49214464 49078144 48951772 48835148 
2956.584 48727600 48627636 48533144 48442008 48353220 48266456 48182780 
2959.959 48103892 48031532 47966696 47909420 47858772 47813568 47772956 
2963.335 47736596 47705532 47681572 47666888 47663300 47672288 47694328 
2966.710 47729388 47777208 47836688 47906644 47984792 48068616 48154456 
2970.085 48238276 48316264 48384928 48442340 48487612 48521400 48545776 
2973.460 48563748 48579312 48596616 48619520 48650688 48690196 48735084 
2976.836 48777344 48805152 48803188 48753804 48641312 48452824 48181368 
2980.211 47827368 47398216 46908248 46374776 45818020 45257896 44711164 
2983.586 44191828 43709968 43270732 42876672 42527040 42219896 41951980 
2986.961 41721144 41524952 41360624 41223616 41105440 40991636 40862860 
2990.337 40694888 40461372 40140204 39716728 39187768 38562900 37863872 
2993.712 37121140 36365480 35626204 34924952 34273304 33673972 33122312 
2997.087 32610104 32127790 31666822 31221866 30789246 30367610 29956538 
3000.462 29556104 29165992 28786112 28415336 28052898 27697438 27347880 
3003.838 27003504 26664262 26330708 26004584 25687952 25382860 25091148 
3007.213 24813488 24549678 24298540 24058402 23827496 23604412 23388086 
3010.588 23177704 22972976 22773166 22577636 22385820 22197508 22012868 
3013.963 21832416 21657368 21488832 21327740 21174744 21029696 20892414 
3017.339 20762126 20638306 20520184 20406642 20297194 20190202 20084174 
3020.714 19977062 19866784 19751438 19629430 19500214 19363970 19222364 
3024.089 19078348 18935590 18798310 18671038 18557322 18459676 18378922 
3027.464 18314254 18262968 18221052 18183458 18144106 18096882 18036158 
3030.840 17957038 17856146 17732218 17585762 17419834 17238004 17045502 
3034.215 16847020 16647080 16449230 16256491 16070610 15892886 15723925 
3037.590 15563789 15412260 15269021 15133548 15005970 14886181 14774446 
3040.965 14671171 14576007 14488057 14405915 14327828 14251673 14176147 
3044.341 14100567 14024588 13948554 13872842 13797759 13722859 13648383 
3047.716 13573919 13499673 13425885 13352998 13280908 13209342 13137652 
3051.091 13065018 12990688 12914358 12835993 12755867 12674086 12590375 
3054.466 12504157 12414478 12321204 12224543 12125858 12027129 11930634 
3057.842 11838044 11750511 11668306 11590710 11517108 11446649 11379331 
3061.217 11315322 11255233 11199164 11147488 11100032 11056287 11015911 
3064.592 10978393 10943460 10910943 10880535 10851725 10824412 10797746 
3067.967 10771320 10744521 10716740 10687024 10654628 10618601 10578333 
3071.343 10533758 10485216 10433794 10380919 10327813 10275833 10225929 
3074.718 10178405 10133090 10089884 10048172 10007245 9966662 9925776 
3078.093 9883979 9841069 9796569 9750345 9702500 9653204 9602456 9550834 
3081.950 9498609 9446288 9394041 9342308 9290717 9239436 9187858 9135879 
3085.808 9083906 9032751 8983836 8939153 8900021 8866913 8839251 8815310 
3089.665 8792317 8768210 8740994 8710332 8677373 8644112 8612611 8585034 
3093.523 8562189 8544075 8529613 8517616 8506905 8496870 8487510 8479266 
3097.380 8473083 8469604 8469063 8471631 8476732 8483558 8491464 8499201 
3101.238 8505858 8510589 8512312 8510487 8504979 8495755 8483795 8470448 
3105.095 8457170 8445717 8437203 8432237 8430413 8430548 8431156 8430785 
3108.952 8428487 8423960 8418049 8411832 8406698 8403894 8404062 8407136 
3112.810 8412812 8420278 8428960 8438217 8447777 8457474 8467340 8477442 
3116.667 8487510 8497512 8506804 8514644 8520117 8522213 8520185 8513900 
3120.525 8503729 8490586 8476192 8461799 8448589 8437271 8427474 8418487 
3124.382 8409434 8399671 8388523 8376159 8363054 8349847 8337214 8326169 
3128.240 8317151 8310497 8306344 8304317 8303878 8304351 8305026 8305702 
3132.097 8306174 8307121 8309316 8313234 8319110 8326540 8334647 8342449 
3135.954 8349407 8355217 8360453 8365756 8372005 8379065 8386969 8394502 
3139.812 8400989 8405718 8408859 8410887 8413217 8417069 8423555 8433319 
3143.669 8446697 8463623 8483963 8507277 8533195 8561074 8589596 8617715 
3147.527 8644146 8667841 8688393 8706072 8721894 8737107 8753301 8771524 
3151.384 8792757 8816865 8843714 8872121 8901103 8929412 8956403 8981738 
3155.241 9005485 9028455 9051392 9075312 9100925 9128671 9158720 9191174 
3159.099 9225898 9263197 9303039 9345660 9390892 9438669 9489025 9541791 
3162.956 9597410 9655948 9717714 9782539 9849575 9917505 9984699 10049224 
3166.814 10109927 10166194 10218500 10267759 10315055 10361440 10406983 
3170.189 10451579 10494144 10533215 10567538 10595955 10617753 10633405 
3173.564 10643456 10649331 10652489 10654356 10655375 10655851 10654900 
3176.939 10651572 10645154 10635443 10623083 10610079 10598060 10588994 
3180.315 10584003 10583291 10585871 10591303 10598331 10606480 10615953 
3183.690 10627327 10640604 10656530 10674935 10695820 10718982 10744725 
3187.065 10773222 10804846 10839631 10877205 10917195 10958752 11001128 
3190.440 11044086 11087320 11131000 11175263 11220040 11265298 11311207 
3193.816 11357733 11405081 11453555 11502717 11552155 11600987 11648021 
3197.191 11692881 11735328 11776452 11817376 11859939 11904889 11952874 
3200.566 12003658 12056357 12110356 12165384 12221714 12279483 12339271 
3203.941 12401181 12464669 12529256 12594127 12658939 12723078 12786134 
3207.317 12847903 12907428 12964196 13017762 13068466 13116820 13164803 
3210.692 13213851 13265534 13320368 13378420 13438564 13499742 13561305 
3214.067 13622740 13684046 13745601 13807268 13869285 13930900 13991668 
3217.442 14051076 14108815 14164850 14219626 14273415 14326527 14379678 
3220.818 14433522 14488982 14547328 14609245 14675215 14745377 14819047 
3224.193 14895508 14973594 15052517 15131317 15209239 15285219 15358021 
3227.568 15426611 15490199 15548850 15603491 15656045 15708569 15763059 
3230.943 15820613 15881235 15943961 16007142 16069131 16128859 16185774 
3234.319 16239738 16291440 16341392 16390180 16438458 16486879 16536063 
3237.694 16586594 16638922 16693080 16749140 16806688 16865518 16925526 
3241.069 16986406 17048360 17110912 17173678 17235832 17296652 17355652 
3244.444 17412728 17468606 17524040 17580208 17637900 17697568 17759140 
3247.820 17822624 17888184 17956140 18027352 18102170 18180868 18263382 
3251.195 18348574 18435130 18521532 18606428 18689232 18769662 18847964 
3254.570 18924688 19000248 19075232 19150056 19224962 19300748 19377724 
3257.945 19456480 19536916 19619238 19702860 19787292 19871744 19955690 
3261.321 20038368 20119710 20199402 20277406 20354068 20429598 20504484 
3264.696 20579762 20656480 20735538 20817948 20904096 20993632 21086144 
3268.071 21180344 21275088 21369470 21463210 21556240 21649254 21742916 
3271.446 21837502 21933262 22029982 22126968 22224186 22321076 22417742 
3274.822 22514432 22611456 22709236 22808156 22908424 23010498 23114728 
3278.197 23221708 23331476 23444212 23559214 23675718 23792566 23908780 
3281.572 24024186 24138888 24253760 24369748 24487766 24608340 24731332 
3284.947 24856536 24983600 25112246 25242862 25375448 25510606 25648688 
3288.323 25789484 25932896 26078570 26226336 26375738 26527020 26679870 
3291.698 26834468 26990634 27148622 27308396 27470592 27635604 27803930 
3295.073 27975748 28150886 28329172 28510220 28693998 28880192 29068804 
3298.448 29259412 29452090 29646234 29841922 30039296 30239032 30442346 
3301.823 30650696 30864802 31085276 31311706 31543170 31778890 32018590 
3305.199 32262352 32510892 32764860 33024556 33289452 33558552 33830688 
3308.574 34105000 34381776 34661824 34946568 35237360 35534752 35838496 
3311.949 36147816 36461900 36780036 37102552 37430076 37763848 38104860 
3315.324 38453664 38810436 39174424 39545140 39921692 40303560 40690088 
3318.700 41080600 41474784 41872212 42272848 42677000 43085000 43497016 
3322.075 43913232 44332896 44755276 45179652 45605064 46030636 46455888 
3325.450 46879972 47301592 47719624 48132656 48540112 48941980 49338876 
3328.825 49731860 50121488 50507140 50887476 51260580 51624224 51976820 
3332.201 52317552 52645724 52960744 53261308 53544992 53809652 54053052 
3335.576 54274624 54474892 54656172 54820828 54970844 55106924 55228332 
3338.951 55333288 55419780 55486228 55531372 55554532 55554872 55531600 
3342.326 55483972 55411276 55313564 55191340 55045424 54876580 54684356 
3345.702 54467608 54224504 53953060 53652616 53323528 52967784 52588424 
3349.077 52188548 51770752 51337168 50888968 50427384 49953432 49468296 
3352.452 48973096 48468236 47954744 47432548 46902268 46365228 45823284 
3355.827 45279004 44735552 44195052 43658996 43128440 42603492 42084404 
3359.203 41571948 41066656 40569692 40081732 39603032 39132940 38670856 
3362.578 38216068 37768260 37327664 36895164 36471200 36057228 35653324 
3365.953 35259496 34875508 34501364 34136396 33780796 33434324 33096888 
3369.328 32768290 32448474 32137386 31835220 31541850 31256690 30978904 
3372.704 30706950 30439148 30174174 29911170 29650384 29392734 29139382 
3376.079 28891524 28649720 28413816 28183058 27956664 27733816 27514540 
3379.454 27299186 27087712 26880536 26676522 26474930 26273714 26071816 
3382.829 25868008 25662290 25455230 25248200 25042390 24838888 24638356 
3386.205 24440688 24245876 24053288 23863272 23675962 23491950 23311830 
3389.580 23135450 22962358 22791114 22619870 22447086 22271792 22094160 
3392.955 21915628 21738422 21564630 21395818 21232150 21072682 20915466 
3396.330 20758408 20600086 20440608 20280702 20122730 19968076 19818470 
3399.706 19674116 19534110 19396952 19260670 19123150 18983112 18839832 
3403.081 18693070 18543696 18392886 18242442 18094534 17950580 17811816 
3406.456 17678068 17548430 17420868 17293170 17163474 17030924 16895522 
3409.831 16758403 16621467 16486431 16354913 16227802 16105682 15988167 
3413.207 15874464 15763780 15654704 15545931 15436635 15326544 15216068 
3416.582 15106410 14999008 14895371 14795940 14700132 14606400 14512586 
3419.957 14416669 14317246 14214148 14107891 13999436 13890187 13780555 
3423.332 13670506 13559801 13448202 13335845 13223791 13113849 13007383 
3426.708 12905960 12810499 12720314 12634582 12551356 12469170 12386555 
3430.083 12302184 12215785 12127664 12038472 11948481 11858474 11768213 
3433.458 11677495 11585980 11493224 11399264 11304643 11210282 11117606 
3436.833 11027941 10942611 10862324 10787692 10719015 10656122 10598603 
3440.208 10545368 10494822 10444486 10392390 10336398 10275901 10211105 
3443.584 10143571 10075030 10006703 9938930 9870388 9799178 9723271 9641448 
3447.441 9554153 9463423 9372101 9282864 9197638 9116895 9039991 8966111 
3451.299 8894204 8824068 8756073 8690895 8629173 8570874 8515217 8460954 
3455.156 8407171 8352988 8297900 8241807 8185011 8127446 8069518 8010923 
3459.013 7951525 7891427 7830190 7768018 7704100 7638237 7570494 7501414 
3462.871 7432615 7366118 7304012 7247777 7197647 7152710 7111044 7069854 
3466.728 7026951 6980752 6930518 6876351 6818488 6757840 6694912 6630581 
3470.586 6565855 6502652 6442351 6386160 6334179 6285667 6238236 6189869 
3474.443 6138012 6081659 6021416 5959435 5898369 5841778 5792415 5751484 
3478.301 5718749 5692227 5668727 5643988 5613812 5575012 5525645 5465815 
3482.158 5397538 5324778 5251828 5182915 5120718 5066341 5019042 4976877 
3486.015 4937297 4897552 4855432 4809598 4759380 4704679 4646201 4585286 
3489.873 4523878 4464152 4408283 4358279 4315007 4278665 4248115 4221917 
3493.730 4197795 4173741 4148015 4119014 4086067 4048808 4008242 3965907 
3497.588 3924580 3887469 3857548 3837290 3827095 3825691 3829167 3832544 
3501.445 3829903 3815329 3785246 3738020 3675328 3601586 3523313 3447860 
3505.302 3382472 3332485 3300199 3284708 3281336 3282671 3280768 3267615 
3509.160 3238471 3192306 3131829 3063017 2992549 2926895 2870190 2824131 
3513.017 2787981 2759736 2737129 2718390 2702086 2687850 2675247 2663779 
3516.875 2652744 2641043 2628309 2614875 2602375 2592842 2589075 2592709 
3520.732 2603842 2620442 2638677 2653278 2659312 2653178 2633876 2602975 
3524.590 2564144 2521350 2478693 2438607 2401256 2365574 2329695 2291621 
3528.447 2250120 2205092 2156806 2105895 2053525 2000994 1949769 1902310 
3532.304 1861111 1828469 1805810 1792867 1787111 1784383 1779559 1768247 
3536.162 1747255 1716250 1677531 1634459 1591989 1554113 1524253 1504536 
3540.019 1496124 1499615 1515375 1542840 1581514 1629404 1683386 1738938 
3543.877 1789939 1829800 1851628 1850031 1821614 1766750 1689639 1597809 
3547.734 1501044 1409886 1332439 1274148 1236232 1215897 1206793 1201776 
3551.592 1193403 1176359 1147721 1108388 1061153 1010769 962250 920543 
3555.449 889366 870972 865793 872533 888038 907992 927882 943223 951225 
3559.789 951591 945613 936980 931302 935021 954546 996356 1064973 1161973 
3564.128 1284350 1423116 1563224 1683485 1759897 1772572 1709232 1571438 
3567.986 1374086 1142305 903211 679613 487410 333191 216717 133086 75220 
3572.325 35918 8581 -11696 -28229 -43436 -58610 -74346 -90579 -106678 
3576.665 -121849 -135099 -146527 -156099 -164976 -173852 -183788 -194916 
3580.522 -206574 -216808 -222206 -218695 -200315 -160835 -95183 530 125430 
3584.862 273375 430292 576848 689569 745326 730225 642314 495271 312931 
3589.201 124104 -44927 -177429 -265090 -308600 -314493 -293667 -258368 
3593.059 -220086 -189915 -175641 -181801 -208992 -254494 -312242 -374319 
3596.916 -432813 -481535 -517113 -540047 -554243 -565958 -581411 -605400 
3600.774 -639413 -681463 -725790 -765119 -791579 -798061 -779441 -733597 
3604.631 -661249 -566520 -456744 -343265 -239426 -158484 -112376 -106678 
3608.489 -139306 -199785 -273104 -342967 -397062 -430826 -446781 -453897 
3612.346 -462702 -482296 -515756 -559042 -601132 -627899 -627635 -592893 
3616.203 -524791 -432084 -331512 -244592 -192300 -191571 -249328 -359885 
3620.061 -507283 -670148 -827032 -960850 -1061740 -1125627 -1152362 -1143440 
3623.918 -1099749 -1021083 -905668 -752484 -562979 -344920 -115887 94243 
3627.776 247316 302884 235613 50002 -216907 -511884 -786684 -1009248 
3631.633 -1170009 -1275607 -1342634 -1389503 -1432339 -1479496 -1531237 
3635.008 -1581652 -1622653 -1649886 -1662924 -1666555 -1666819 -1669591 
3638.384 -1676457 -1685566 -1692993 -1695270 -1691771 -1684543 -1677051 
3641.759 -1670449 -1661967 -1642921 -1601262 -1523808 -1401889 -1232591 
3645.134 -1021711 -781160 -528927 -286879 -75108 86786 183071 203424 142466 
3649.474 1954 -207965 -467302 -748812 -1023397 -1263681 -1450865 -1575577 
3653.331 -1637672 -1645595 -1614004 -1564154 -1518096 -1496336 -1510766 
3656.706 -1561183 -1635197 -1713620 -1779259 -1820209 -1833473 -1823409 
3660.082 -1798761 -1769063 -1740253 -1713785 -1686557 -1654177 -1611924 
3663.457 -1558344 -1493332 -1416454 -1324070 -1208636 -1058931 -864136 
3666.832 -617212 -317341 31180 422996 858555 1350155 1925240 2622209 3477152 
3671.172 4520061 5770858 7242622 8944192 10871158 12989664 15187519 17249934 
3675.029 18876928 19737602 19624716 18540862 16677620 14310603 11705747 
3678.404 9090098 6626409 4437171 2608275 1172571 116978 -614764 -1097304 
3682.262 -1408824 -1611198 -1741375 -1818295 -1847792 -1832417 -1777972 
3685.637 -1693917 -1592546 -1487487 -1391518 -1315712 -1269859 -1261302 
3689.012 -1293777 -1366086 -1472264 -1602285 -1744577 -1888108 -2023809 
3692.387 -2145290 -2248872 -2333051 -2396620 -2439092 -2460376 -2461596 
3695.763 -2445320 -2415995 -2378760 -2336676 -2291722 -2243169 -2189766 
3699.138 -2132003 -2074298 -2024469 -1993565 -1990498 -2019390 -2075650 
3702.513 -2148192 -2222007 -2282790 -2321450 -2334106 -2320989 -2284899 
3705.888 -2228336 -2152939 -2059756 -1950587 -1829381 -1702597 -1580166 
3709.264 -1473684 -1394623 -1353732 -1358192 -1411037 -1509313 -1644571 
3712.639 -1803645 -1969323 -2125969 -2259915 -2362118 -2429010 -2460871 
3716.014 -2462386 -2439257 -2398267 -2345509 -2284471 -2217424 -2145026 
3719.389 -2068066 -1988156 -1908298 -1832384 -1763849 -1705369 -1657015 
3722.765 -1617041 -1582874 -1553160 -1529124 -1515191 -1518360 -1545963 
3726.140 -1601394 -1681903 -1776389 -1868874 -1940263 -1974534 -1962429 
3729.515 -1902030 -1798761 -1662264 -1505087 -1337481 -1166242 -994736 
3732.890 -824982 -662837 -522110 -423710 -391798 -445987 -590411 -808909 
3736.748 -1067194 -1326646 -1554580 -1731310 -1851157 -1916248 -1930663 
3740.123 -1896751 -1814599 -1684378 -1509577 -1302631 -1087818 -899287 
3743.498 -779242 -760522 -847966 -1009579 -1190099 -1339298 -1426559 
3746.874 -1446308 -1409386 -1335169 -1245080 -1159599 -1097006 -1069805 
3750.249 -1086331 -1149785 -1258758 -1406380 -1578879 -1757612 -1921229 
3753.624 -2051940 -2140081 -2184128 -2190788 -2170380 -2135465 -2097183 
3756.999 -2063845 -2042145 -2037100 -2052665 -2092600 -2158116 -2245938 
3760.375 -2346563 -2446011 -2528044 -2579331 -2593165 -2571097 -2521719 
3763.750 -2458037 -2394478 -2342806 -2308531 -2289480 -2277714 -2263870 
3767.125 -2241093 -2208293 -2171172 -2140773 -2130321 -2150236 -2204634 
3770.500 -2288854 -2391743 -2497934 -2594548 -2672700 -2728843 -2763876 
3773.875 -2781325 -2784881 -2776123 -2754525 -2718307 -2666180 -2599851 
3777.251 -2525837 -2454018 -2397345 -2366962 -2368247 -2399519 -2450229 
3780.626 -2506961 -2556142 -2589674 -2605450 -2607525 -2602881 -2598666 
3784.001 -2600773 -2611576 -2630217 -2653896 -2679517 -2704148 -2726176 
3787.376 -2744483 -2758378 -2767234 -2770559 -2768913 -2763415 -2755283 
3790.752 -2745998 -2735330 -2721435 -2700855 -2669736 -2625442 -2567902 
3794.127 -2500570 -2429669 -2363996 -2310442 -2272539 -2247652 -2227808 
3797.502 -2202029 -2159632 -2095469 -2010617 -1914895 -1824234 -1759262 
3800.877 -1738471 -1770086 -1846208 -1945177 -2040233 -2108724 -2139520 
3804.253 -2133388 -2101602 -2061932 -2034824 -2039507 -2086137 -2173051 
3807.628 -2286119 -2406208 -2515559 -2602947 -2665060 -2702139 -2715870 
3811.003 -2706354 -2671416 -2607789 -2513648 -2390820 -2247685 -2098370 
3814.378 -1963055 -1862639 -1811564 -1811201 -1845021 -1886294 -1904867 
3817.754 -1881873 -1812785 -1708274 -1590533 -1489468 -1436764 -1454795 
3821.129 -1547812 -1697283 -1870359 -2031493 -2155247 -2233083 -2268814 
3824.504 -2274747 -2265221 -2254805 -2253223 -2263672 -2282888 -2303686 
3827.879 -2317034 -2316309 -2298380 -2264793 -2220754 -2173018 -2127848 
3831.255 -2089434 -2057876 -2029580 -1998282 -1958108 -1904966 -1838059 
3834.630 -1759823 -1675730 -1592414 -1515653 -1451130 -1402087 -1370413 
3838.005 -1357135 -1362056 -1384648 -1423719 -1477449 -1543256 -1618692 
3841.380 -1701475 -1789951 -1883918 -1983308 -2088049 -2196458 -2304708 
3844.756 -2406208 -2492861 -2556834 -2591782 -2593626 -2560886 -2493157 
3848.131 -2390128 -2250322 -2071528 -1852675 -1595319 -1308577 -1011133 
3851.506 -732406 -515392 -405139 -434964 -606029 -880273 -1194428 -1487586 
3855.364 -1725402 -1899852 -2021434 -2106086 -2168567 -2217227 -2252894 
3858.739 -2271748 -2267825 -2237203 -2179711 -2099953 -2006230 -1909023 
3862.114 -1818559 -1743389 -1690847 -1665663 -1669294 -1698009 -1742002 
3865.489 -1785463 -1809749 -1799883 -1748735 -1659986 -1547647 -1436104 
3868.865 -1353534 -1322451 -1351420 -1428508 -1528860 -1623841 -1695270 
3872.240 -1740748 -1771076 -1803975 -1856337 -1937030 -2041750 -2154522 
3875.615 -2252531 -2315617 -2331239 -2296171 -2216435 -2105262 -1981395 
3878.990 -1864816 -1774673 -1724676 -1718571 -1748537 -1796715 -1842414 
3882.365 -1866004 -1856403 -1813511 -1749362 -1685269 -1645397 -1650810 
3885.741 -1708274 -1806713 -1920173 -2019522 -2082443 -2098568 -2071199 
3889.116 -2013189 -1945211 -1887184 -1857129 -1864948 -1910772 -1986408 
3892.491 -2078519 -2173941 -2260079 -2326757 -2366501 -2372366 -2339939 
3895.866 -2267463 -2157258 -2015828 -1853599 -1684015 -1521431 -1377448 
3899.242 -1259947 -1171562 -1109400 -1067524 -1040453 -1025281 -1023760 
3902.617 -1041742 -1087554 -1168257 -1286245 -1436731 -1608524 -1787410 
3905.992 -1958834 -2111593 -2240170 -2342938 -2421432 -2478596 -2517140 
3909.367 -2539112 -2546689 -2541682 -2526825 -2504523 -2476323 -2441827 
3912.743 -2398696 -2342675 -2270264 -2180963 -2078948 -1972786 -1875011 
3916.118 -1798563 -1752101 -1738471 -1753751 -1789489 -1835881 -1885205 
3919.493 -1932676 -1975919 -2013090 -2041980 -2059063 -2061767 -2050126 
3922.868 -2028294 -2004845 -1990498 -1995511 -2025095 -2077134 -2142719 
3926.244 -2208985 -2262387 -2292315 -2293699 -2266507 -2215249 -2146741 
3929.619 -2070341 -1995973 -1933368 -1892397 -1880850 -1902986 -1957943 
3932.994 -2038946 -2135036 -2232390 -2318913 -2386009 -2430723 -2454150 
3936.369 -2461299 -2458367 -2450130 -2438994 -2424727 -2405187 -2377408 
3939.745 -2340203 -2294523 -2244982 -2198502 -2163028 -2145851 -2150697 
3943.120 -2176117 -2215710 -2259486 -2296567 -2317990 -2319045 -2300028 
3946.495 -2266144 -2225764 -2187557 -2159929 -2147269 -2151324 -2170578 
3949.870 -2202029 -2241950 -2286119 -2331074 -2373092 -2408845 -2435863 
3953.246 -2452897 -2460475 -2460871 -2457214 -2452239 -2448318 -2445484 
3956.621 -2442815 -2438994 -2432404 -2422717 -2410690 -2397608 -2385086 
3959.996 -2374574 -2367028 -2363107 -2363832 -2369895 -2381956 -2399882 
3963.371 -2422420 -2446934 -2470195 -2488842 -2500372 -2503667 -2499318 
3966.747 -2488776 -2474412 -2458499 -2443013 -2429471 -2418664 -2411415 
3970.122 -2407494 -2406505 -2407494 -2408878 -2409174 -2407526 -2403474 
3973.497 -2397707 -2390919 -2384164 -2377936 -2372465 -2368247 -2365051 
3976.872 -2363304 -2363568 -2365578 -2368972 -2372070 -2373520 -2371872 
3980.248 -2366666 -2359086 -2351572 -2346563 -2346333 -2351506 -2361393 
3983.623 -2374080 -2387162 -2398597 -2407230 -2412436 -2414183 -2412370 
3986.998 -2407131 -2398992 -2389173 -2379583 -2373092 -2371971 -2377277 
3990.373 -2388382 -2402650 -2416489 -2427000 -2431745 -2430723 -2425451 
3993.749 -2418730 -2412700 -2409042 -2408317 -2410327 -2414743 -2421695 
3997.124 -2431580 -2444924 -2461398 -2480638 -2500932 -2520039 -2536510 
4000.499 -2548995 
##END=
