
##TITLE=Z408_2_c
##JCAMP-DX=5.01  $$ Nicolet v. 1
##DATATYPE=INFRARED SPECTRUM
##ORIGIN=UniL
##OWNER=Nicolet
##LONGDATE=2011/09/16
##TIME=10:27:25
##SPECTROMETER/DATA SYSTEM=Nicolet iS5
##DATA PROCESSING=
Ratio against background
%Transmittance->Absorbance
Truncated
ElementMultiply or ElementDivide
##COMMENTS=
Number of sample scans: 32
Collection length: 51.15 sec
Sample gain: 2.0
Background collected on: Ven Sep 16 10:15:44 2011 (GMT+02:00);
Number of background scans: 32
Background gain: 2.0
Sample spacing:  1.000
Number of scan points: 12415
Resolution points: 8192
Number of FFT points: 65536
Apodization: N-B fort;
Phase correction: Mertz;
Laser frequency: 15798.0 cm-1
Number of rejected sample scans: 0
Number of rejected background scans: 0
Bench serial number: ASB1000141;
##RESOLUTION=4.000
##XUNITS=1/CM
##YUNITS=ABSORBANCE
##FIRSTX=649.893372
##LASTX=4000.122314
##FIRSTY=0.095741
##MAXX=4000.122314
##MINX=649.893372
##MAXY=0.366021
##MINY=0.002031
##XFACTOR=1.000000
##YFACTOR=1.000000E-009
##NPOINTS=6950
##DELTAX=0.482117
##ZPD=6100
##XYDATA=(X++(Y..Y))
649.893 95741168 96120904 96648048 97351872 98217712 99196056 100222512 
653.268 101255472 102293688 103374080 104547112 105851784 107293784 
656.161 108847808 110479368 112171816 113941736 115838720 117921400 
659.054 120226320 122758872 125495928 128412800 131511792 134832272 
661.946 138432928 142358864 146603200 151096720 155721056 160361888 
664.839 164944656 169429264 173794272 177967968 181750720 184811456 
667.732 186761792 187337408 186544144 184614256 181845584 178457264 
670.624 174565056 170220624 165469840 160411168 155200880 150010016 
673.517 145002352 140277840 135868736 131765056 127944200 124396248 
676.410 121130232 118159296 115485328 113087512 110926320 108955824 
679.302 107137408 105449432 103882544 102429240 101074744 99792736 98552256 
682.677 97330648 96122800 94946424 93831080 92808152 91895128 91088824 
686.052 90370296 89715328 89105672 88534416 88004600 87518800 87069304 
689.427 86633328 86173944 85648216 85022040 84275168 83404704 82420752 
692.802 81338640 80173720 78939200 77649648 76325048 74990248 73674704 
696.177 72405360 71200072 70067416 69007448 68018312 67099660 66255188 
699.551 65490416 64808248 64204208 63666456 63176536 62716836 62275324 
702.926 61847712 61437280 61051448 60695488 60369744 60068748 59783320 
706.301 59504504 59226704 58948548 58672200 58401224 58139048 57888092 
709.676 57652412 57438792 57258204 57126932 57062424 57078596 57181244 
713.051 57360812 57590092 57821840 57998760 58058788 57947644 57634664 
716.425 57116348 56422756 55609324 54754824 53949492 53277904 52821972 
719.800 52648416 52800792 53295588 54107396 55162936 56328852 57429904 
723.175 58274376 58675920 58510588 57741752 56435168 54739900 52858084 
726.550 51000144 49322692 47919856 46813172 45969600 45326596 44818456 
729.925 44396452 44028612 43698972 43399056 43121628 42860180 42610656 
733.300 42374316 42158004 41968512 41810368 41680072 41567352 41458384 
736.674 41343716 41221140 41097140 40982460 40885936 40809532 40747512 
740.049 40688996 40624044 40549140 40467848 40388496 40318900 40261860 
743.424 40213624 40167028 40114692 40053788 39987700 39922932 39865068 
746.799 39815424 39769596 39720436 39662456 39594756 39522132 39452928 
750.174 39394876 39350944 39318916 39293488 39270236 39248984 39233968 
753.548 39231900 39247532 39281264 39328236 39381164 39434096 39485804 
756.923 39540132 39603976 39683004 39780344 39895108 40025268 40170044 
760.298 40332136 40516328 40727240 40965924 41228936 41510840 41808980 
763.673 42129120 42489548 42917856 43451748 44131852 44994860 46073520 
767.048 47388572 48940904 50700768 52598636 54528200 56348468 57925952 
770.423 59173504 60090592 60784088 61455524 62356064 63682644 65510176 
773.797 67719864 70013992 71942720 73019472 72885552 71382920 68628072 
777.172 64951256 60833940 56764544 53117944 50140564 47909864 46376544 
780.547 45412736 44871504 44626220 44578928 44671428 44869600 45152296 
783.922 45507476 45928828 46417284 46980568 47629100 48371924 49213020 
787.297 50151272 51185344 52318936 53565608 54949524 56500560 58252176 
790.671 60234864 62475648 65002240 67844384 71035600 74609584 78589048 
794.046 82973552 87722928 92754000 97934816 103081336 107987608 112425296 
797.421 116168728 119040560 120926904 121814288 121795072 121067696 
800.314 119902384 118574072 117344056 116390672 115778680 115453080 
803.206 115247376 114930208 114237632 112958392 110982824 108331168 
806.099 105152752 101687824 98215472 94959408 92053152 89510096 87238744 
809.474 85077616 82852400 80438536 77781248 74907912 71903456 68884424 
812.849 65962508 63217424 60700248 58429388 56403324 54610400 53036064 
816.224 51665272 50481908 49469704 48612816 47897580 47314856 46859824 
819.598 46530092 46322388 46229836 46242552 46350072 46545324 46828820 
822.973 47209492 47703976 48331704 49108712 50044812 51139156 52379000 
826.348 53736600 55169108 56619564 58012508 59267340 60308256 61076196 
829.723 61549852 61752060 61755268 61664712 61609112 61722952 62115692 
833.098 62865160 63996904 65475040 67192288 68971872 70598424 71820728 
836.473 72408688 72205376 71147256 69292320 66798328 63902736 60857760 
839.847 57886500 55167076 52800792 50825788 49231872 47980648 47022400 
843.222 46306060 45787828 45427452 45188764 45042752 44965756 44942900 
846.597 44967668 45039260 45158360 45324496 45533892 45781200 46061472 
849.972 46372744 46716308 47094812 47510276 47962480 48448600 48965940 
853.347 49514080 50096684 50720988 51395196 52125560 52915940 53767652 
856.721 54683676 55671992 56747324 57931552 59251768 60733860 62405448 
860.096 64292876 66422148 68820632 71510600 74498216 77757624 81217024 
863.471 84751192 88170880 91256280 93776512 95514824 96322032 96127472 
866.846 94956728 92921856 90211416 87062288 83705568 80362304 77208568 
870.221 74356832 71873352 69777712 68058256 66686280 65626556 64845292 
873.596 64308704 63986348 63849492 63869260 64021668 64289264 64663448 
876.970 65144928 65740952 66460760 67308952 68281008 69359448 70516136 
880.345 71711520 72899144 74034784 75075824 75989968 76760944 77388824 
883.720 77890720 78295272 78637560 78949336 79253880 79565976 79893616 
887.095 80244184 80630504 81071120 81589488 82208168 82940424 83786888 
890.470 84733104 85754528 86819952 87897616 88960960 89985008 90946920 
893.844 91824672 92594280 93233248 93723304 94051528 94212432 94207288 
897.219 94044656 93739176 93313216 92799944 92239256 91676016 91155072 
900.594 90711552 90366672 90127328 89986760 89931160 89945136 90018840 
903.969 90147720 90333464 90580336 90894144 91281224 91748864 92307728 
907.344 92970688 93751224 94661200 95707424 96890792 98207952 99654920 
910.719 101230320 102938024 104785208 106780640 108931128 111240704 
913.611 113713328 116357272 119189728 122239472 125545744 129148048 
916.504 133081896 137368096 142006752 146972352 152209648 157634064 
919.397 163113568 168472192 173498720 177941200 181560432 184171520 
922.289 185683776 186145280 185751056 184843872 183838272 183191488 
925.182 183344944 184627328 187241648 191213888 196392112 202433504 
928.075 208833520 215020464 220353504 224240176 226228864 226011280 
930.967 223480688 218717280 211971056 203621344 194128864 184027408 
933.860 173830560 164001264 154937456 146907280 140072592 134500848 
936.753 130180240 127057136 125058264 124110952 124139088 125051808 
939.646 126734648 129016432 131667224 134424752 136987392 139073936 
942.538 140470400 141042336 140769344 139734624 138114176 136129584 
945.431 134008896 131965488 130151528 128658296 127521096 126728344 
948.324 126243176 126018208 126012728 126192304 126530144 127004352 
951.216 127592472 128271120 129020888 129826192 130679456 131579560 
954.109 132527592 133522464 134557936 135622864 136705552 137798096 
957.002 138899296 140013680 141148256 142307408 143489776 144688352 
959.894 145894384 147102192 148312800 149532864 150771024 152032816 
962.787 153317408 154618032 155925440 157233552 158542032 159856720 
965.680 161184864 162530848 163892768 165263824 166636832 168009072 
968.573 169386192 170779936 172203616 173665840 175166688 176698704 
971.465 178252576 179822816 181412432 183031568 184693168 186405376 
974.358 188168720 189975328 191814160 193678496 195568256 197490208 
977.251 199451920 201455424 203492784 205548288 207601632 209636800 
980.143 211646400 213629296 215586640 217514480 219401248 221230720 
983.036 222988096 224668816 226281072 227845280 229384992 230917920 
985.929 232451968 233986592 235518880 237052768 238601888 240186096 
988.821 241825760 243531008 245298128 247112144 248955120 250816224 
991.714 252696272 254606272 256558544 258559104 260601456 262669264 
994.607 264744256 266816496 268888544 270974592 273089984 275244192 
997.500 277434528 279649856 281877920 284115328 286371712 288666144 
1000.392 291017536 293434560 295911872 298433824 300986016 303564512 
1003.285 306181376 308858560 311618784 314470848 317405728 320399232 
1006.178 323425216 326467072 329522944 332602048 335712192 338846304 
1009.070 341978208 345063712 348053824 350910944 353609600 356134784 
1011.963 358469120 360579296 362413952 363914848 365028896 365729536 
1014.856 366021120 365934048 365506304 364769216 363741824 362432800 
1017.748 360854496 359034592 357015904 354851136 352589376 350261600 
1020.641 347883840 345464608 343019232 340583264 338212832 335970592 
1023.534 333915040 332082112 330479968 329094944 327903296 326882432 
1026.427 326011680 325268864 324618432 323999392 323331392 322520064 
1029.320 321470688 320110720 318388960 316272960 313743520 310783744 
1032.213 307380608 303535232 299272832 294651232 289751264 284670784 
1035.106 279500768 274308224 269138688 264015056 258949936 253956912 
1037.999 249054576 244265312 239613888 235120912 230804672 226684032 
1040.892 222778224 219104576 215670336 212459328 209421472 206468368 
1043.785 203491616 200371648 197008368 193347712 189386048 185172512 
1046.678 180789952 176344576 171941696 167669840 163603776 159793488 
1049.571 156265808 153028288 150069376 147363600 144876016 142571664 
1052.464 140420352 138399936 136498704 134709984 133027656 131442456 
1055.357 129940272 128503800 127117424 125769032 124451544 123161136 
1058.250 121894168 120643872 119401136 118155984 116901688 115638376 
1061.144 114373512 113119496 111889768 110696672 109548088 108448792 
1064.037 107402984 106414760 105488128 104624424 103819160 103058280 
1066.930 102318976 101575320 100800888 99976936 99096768 98164616 97195304 
1070.305 96207720 95224240 94266352 93352728 92501160 91725488 91034800 
1073.680 90432400 89914904 89473296 89094280 88764784 88472584 88206392 
1077.055 87955752 87707072 87442616 87143528 86791024 86372664 85887192 
1080.431 85345480 84769352 84185704 83624336 83111912 82670192 82319216 
1083.806 82076264 81957480 81978968 82154360 82493824 83004272 83689736 
1087.181 84551920 85590832 86802144 88172624 89672832 91256528 92855904 
1090.556 94388104 95772808 96937352 97833776 98447328 98794904 98921592 
1093.932 98887344 98764712 98623768 98524656 98520032 98647800 98932032 
1097.307 99386160 100010760 100794408 101709512 102713232 103741480 
1100.200 104705592 105505112 106027536 106164808 105839272 105008840 
1103.093 103682544 101914136 99797864 97449064 94980888 92502800 90103432 
1106.468 87844640 85769184 83896768 82228672 80751480 79441704 78269560 
1109.844 77202320 76210864 75270408 74361464 73470792 72588480 71707304 
1113.219 70822904 69933656 69042488 68156440 67286008 66443228 65638384 
1116.594 64878964 64168944 63509532 62901048 62344588 61842440 61397092 
1119.969 61010680 60682604 60409420 60185196 60002396 59850820 59718724 
1123.344 59589332 59439264 59240528 58960728 58568028 58040196 57367392 
1126.720 56556720 55629584 54620320 53568944 52512400 51484460 50508852 
1130.095 49599056 48760144 47989236 47278388 46615848 45989124 45387396 
1133.470 44802476 44230856 43673948 43136452 42624800 42145008 41701260 
1136.845 41295504 40927988 40598580 40307592 40056080 39845240 39675596 
1140.221 39546704 39456704 39403552 39385660 39402748 39455652 39545396 
1143.596 39671928 39833616 40026648 40246664 40488832 40749148 41024296 
1146.971 41310300 41601848 41892240 42173596 42438248 42681384 42901724 
1150.346 43101360 43284716 43457132 43623204 43786004 43948244 44112228 
1153.722 44280788 44456832 44642488 44838000 45041356 45248596 45455192 
1157.097 45656336 45848544 46028392 46191432 46332452 46443648 46516152 
1160.472 46542300 46515856 46433508 46294484 46099052 45847332 45538860 
1163.847 45173068 44750940 44275764 43754412 43196544 42612372 42012308 
1167.223 41404616 40795952 40192032 39598528 39022116 38470428 37951044 
1170.598 37470600 37034100 36644140 36302400 36010100 35769124 35582288 
1173.973 35452952 35384252 35378356 35436484 35559744 35749512 36008412 
1177.348 36340188 36749600 37241520 37820708 38493200 39266032 40149036 
1180.724 41154616 42295528 43583752 45028640 46634956 48404000 50334212 
1184.099 52421920 54659968 57034048 59520924 62081136 64658912 67187328 
1187.474 69585816 71771472 73668104 75204168 76323584 76989032 77182688 
1190.849 76911192 76204624 75117064 73715336 72075808 70278256 68392384 
1194.225 66478944 64585700 62743096 60968472 59266424 57632696 56058088 
1197.600 54532708 53050292 51610264 50219076 48888096 47632688 46467504 
1200.975 45403688 44448352 43602692 42863620 42224752 41678212 41215384 
1204.350 40825800 40498400 40219692 39974224 39747736 39526776 39301684 
1207.726 39067428 38822680 38569240 38309424 38046808 37785032 37528508 
1211.101 37284012 37060116 36866596 36714300 36612668 36569484 36590824 
1214.476 36681780 36846720 37090392 37416644 37828084 38324660 38904068 
1217.851 39562052 40294216 41097356 41970736 42915404 43933360 45026800 
1221.227 46197696 47448628 48784204 50211376 51739580 53378792 55136868 
1224.602 57016704 59015460 61123760 63326708 65602384 67923608 70254728 
1227.977 72549056 74753880 76810064 78656704 80243312 81529520 82491304 
1231.352 83123184 83438624 83472400 83277128 82930472 82527968 82171784 
1234.728 81974888 82042248 82462656 83312848 84648344 86507176 88914392 
1238.103 91880264 95400816 99451528 103987480 108935808 114193448 119642504 
1241.478 125143688 130544720 135698016 140447920 144642768 148151840 
1244.371 150861984 152697472 153626192 153657440 152837408 151236976 
1247.264 148952128 146090224 142765664 139100400 135201600 131152096 
1250.157 127000360 122750912 118370640 113801896 108989504 103898576 
1253.050 98534000 92945000 87224800 81497984 75892336 70536632 65537000 
1256.426 60962180 56849396 53200336 49989712 47173036 44697320 42510340 
1259.801 40560744 38806920 37216644 35764876 34435184 33216550 32099784 
1263.176 31077446 30140858 29280466 28487966 27755996 27079814 26457112 
1266.551 25886400 25366070 24893552 24464524 24074968 23721872 23404136 
1269.927 23122730 22879260 22675162 22510140 22382924 22291602 22235800 
1273.302 22217070 22239496 22307752 22426256 22596972 22818492 23086144 
1276.677 23390498 23719318 24055250 24376408 24659678 24880780 25020592 
1280.052 25068996 25026806 24905132 24721372 24495408 24243108 23974044 
1283.427 23691952 23397002 23089078 22771524 22450856 22136626 21838828 
1286.803 21565468 21322172 21112196 20937716 20800672 20702594 20643588 
1290.178 20621038 20629030 20660650 20708362 20767550 20837660 20921306 
1293.553 21022496 21144304 21287824 21451340 21633234 21833356 22054802 
1296.928 22303042 22585628 22908458 23275680 23689748 24152094 24664448 
1300.304 25228570 25844410 26506204 27199696 27901896 28580778 29200722 
1303.679 29730212 30143130 30424824 30572440 30594022 30505932 30331226 
1307.054 30098632 29837948 29578306 29345972 29159084 29026932 28949392 
1310.429 28919324 28925664 28956618 29003304 29058530 29117094 29173612 
1313.805 29222020 29255124 29267420 29254980 29216988 29154760 29070398 
1317.180 28965368 28840072 28694742 28531062 28353364 28169412 27987798 
1320.555 27816436 27660146 27520260 27395486 27285250 27191124 27119030 
1323.930 27078050 27077732 27127002 27232892 27399298 27630168 27928362 
1327.306 28296070 28731274 29225138 29760194 30309552 30841964 31328336 
1330.681 31744986 32080482 32334306 32515890 32639320 32720592 32775008 
1334.056 32815422 32853838 32901156 32966748 33057950 33179640 33334062 
1337.431 33523046 33749816 34020816 34345844 34736296 35201036 35744260 
1340.807 36364004 37052756 37799236 38590604 39411352 40240992 41055364 
1344.182 41826092 42523420 43124084 43614044 43991216 44262228 44437780 
1347.557 44524888 44522100 44417888 44193144 43828668 43310012 42634192 
1350.932 41811752 40866680 39832672 38747324 37652468 36586604 35584016 
1354.308 34675168 33881732 33216908 32684118 32278304 31988166 31800386 
1357.683 31704068 31691202 31756110 31894018 32097604 32357190 32663398 
1361.058 33008684 33392564 33820980 34305680 34857808 35483188 36179796 
1364.433 36938272 37744116 38579556 39424268 40253716 41033512 41723476 
1367.809 42277304 42648160 42800608 42712752 42380200 41813032 41033148 
1371.184 40069884 38955604 37730924 36444064 35149404 33910172 32786798 
1374.559 31824668 31048724 30458766 30037592 29761508 29613102 29588202 
1377.934 29698456 29968146 30431470 31130696 32110236 33416356 35088440 
1381.310 37142000 39549096 42214712 44982480 47626772 49887600 51523144 
1384.685 52314712 52114876 50872836 48660104 45681216 42237604 38691216 
1388.060 35355208 32436014 30026338 28114934 26633366 25489980 24600870 
1391.435 23897124 23326688 22855790 22461776 22131256 21858514 21642288 
1394.811 21483508 21382906 21338842 21346918 21401178 21493846 21615786 
1398.186 21756990 21906148 22053582 22193288 22324216 22449354 22573482 
1401.561 22700020 22829388 22959004 23084186 23201156 23308648 23408226 
1404.936 23502828 23594932 23684220 23768662 23846434 23918830 23991552 
1408.312 24074618 24178892 24312276 24477774 24672830 24891694 25129520 
1411.687 25385424 25663380 25969936 26310324 26685930 27093390 27527780 
1415.062 27985608 28468224 28983608 29544008 30162808 30848970 31603030 
1418.437 32413308 33256970 34104248 34925276 35694980 36394664 37011980 
1421.813 37542740 37992376 38382208 38749932 39149112 39634068 40246628 
1425.188 41008712 41920412 42971188 44150668 45456224 46888612 48443376 
1428.563 50103004 51829844 53572128 55280184 56917536 58471920 59953092 
1431.938 61385716 62799380 64222076 65682664 67215800 68869160 70707160 
1435.313 72802280 75213744 77963000 81008784 84263104 87628736 91029568 
1438.689 94415984 97741560 100944752 103917944 106506800 108546848 109869536 
1442.064 110345896 109909440 108552120 106324216 103317584 99667552 95531840 
1445.439 91071128 86456312 81845088 77384072 73218464 69469120 66217868 
1448.814 63488780 61246284 59412596 57897100 56631988 55585108 54763016 
1452.190 54193912 53907252 53912544 54195488 54721376 55448280 56342812 
1455.565 57374424 58516728 59738532 61004124 62279572 63545196 64804248 
1458.940 66070668 67359712 68681584 70037360 71418384 72803416 74164232 
1462.315 75455760 76613176 77562008 78222232 78536000 78493080 78141104 
1465.691 77570408 76875232 76136040 75401832 74694656 74022800 73385176 
1469.066 72772272 72163080 71520560 70793616 69926568 68886360 67688576 
1472.441 66413732 65182656 64115292 63288680 62721812 62396112 62279956 
1475.816 62350672 62601396 63038096 63667528 64488792 65487528 66641160 
1479.192 67923216 69313968 70807072 72409080 74138064 76016264 78066856 
1482.567 80309480 82764952 85462088 88441104 91750624 95434120 99510104 
1485.942 103942016 108609176 113314088 117763976 121598928 124452336 
1488.835 125970512 125898080 124150160 120848248 116309896 110950232 
1491.728 105195688 99371128 93664968 88170760 82902448 77848664 73023200 
1495.104 68476368 64305516 60636164 57577572 55187956 53458420 52334036 
1498.479 51735624 51585376 51821672 52393056 53253632 54360308 55663068 
1501.854 57107244 58638372 60188544 61679300 63016220 64059608 64625384 
1505.229 64489716 63430876 61341140 58327660 54710776 50871196 47091636 
1508.604 43498552 40103064 36875684 33795192 30861920 28107298 25575792 
1511.980 23301724 21304146 19578058 18100440 16839580 15761375 14833036 
1515.355 14020926 13293856 12628851 12014593 11456107 10968198 10565127 
1518.730 10248964 10004839 9801042 9600695 9374776 9118892 8858458 8634783 
1522.588 8480618 8401495 8378457 8379470 8375754 8349576 8300366 8241030 
1526.445 8189299 8155671 8138756 8127953 8112727 8089604 8065231 8051594 
1530.302 8059088 8089334 8132713 8170088 8181060 8155198 8099123 8036135 
1534.160 7992360 7984395 8010281 8055746 8101587 8132983 8144057 8136595 
1538.017 8118264 8095983 8070903 8036642 7986015 7920345 7853975 7806069 
1541.875 7789034 7800436 7823342 7833699 7812648 7753412 7666126 7571472 
1545.732 7492987 7444716 7426818 7428705 7435278 7435345 7424593 7407235 
1549.590 7391058 7382598 7381621 7381992 7374712 7353615 7318704 7276247 
1553.447 7235345 7203913 7184677 7174403 7166689 7155405 7137148 7110067 
1557.304 7071067 7012976 6926174 6807246 6669609 6542174 6453650 6416928 
1561.162 6429101 6474703 6534673 6589436 6625433 6637680 6631119 6618234 
1565.019 6612952 6624458 6652618 6689091 6722270 6743403 6749461 6744278 
1568.877 6735495 6731658 6737548 6753836 6779379 6814617 6862078 6924761 
1572.734 7003581 7095046 7190404 7278573 7350448 7404505 7450850 7508224 
1576.592 7596659 7724607 7888357 8076607 8279258 8492072 8717735 8963168 
1580.449 9236153 9541215 9877912 10242078 10627667 11030117 11444472 
1583.824 11863684 12275700 12660644 12994512 13255935 13430157 13516115 
1587.199 13526745 13488189 13433028 13396154 13412318 13510031 13713421 
1590.575 14040672 14500219 15087198 15776597 16525220 17268240 17929206 
1593.950 18437654 18733682 18782740 18581944 18157928 17561748 16854702 
1597.325 16103722 15367495 14691290 14111006 13648383 13314457 13110843 
1600.700 13031658 13067783 13209342 13450047 13785685 14212538 14723474 
1604.076 15304749 15934817 16587833 17232972 17837882 18371596 18801562 
1607.451 19097528 19235664 19200164 18987820 18608538 18085932 17453600 
1610.826 16751928 16025845 15314771 14648620 14045703 13509791 13034765 
1614.201 12608418 12217182 11848872 11497239 11165029 10863514 10609230 
1617.577 10416281 10291271 10230950 10224233 10255070 10306370 10363273 
1620.952 10414551 10456433 10492683 10533928 10591744 10674629 10783990 
1624.327 10915292 11061997 11219258 11385862 11562908 11750613 11946369 
1627.702 12143338 12332658 12507328 12665079 12808930 12944430 13076696 
1631.078 13206746 13331130 13442289 13531257 13589988 13612757 13596961 
1634.453 13543564 13457771 13349136 13230520 13115522 13013357 12927908 
1637.828 12856265 12790912 12721850 12638812 12534679 12408170 12264554 
1641.203 12113763 11966805 11831473 11708640 11592786 11473865 11340830 
1644.579 11183898 10998443 10786096 10555791 10321808 10101075 9909911 
1647.954 9759495 9654627 9594124 9571598 9575527 9588941 9590296 9551918 
1651.811 9446660 9261573 9016378 8764863 8563980 8440616 8384740 8369269 
1655.669 8368087 8364776 8352346 8330695 8303135 8273517 8243697 8213138 
1659.526 8179170 8138790 8089604 8030768 7962594 7886602 7805968 7725923 
1663.384 7652703 7593422 7553839 7535734 7537116 7551749 7570899 7583779 
1667.241 7580947 7556401 7509067 7443300 7367567 7292219 7225541 7173022 
1671.098 7136811 7116568 7109495 7109697 7108990 7096124 7059886 6994254 
1674.956 6902609 6799842 6706017 6638083 6602556 6594953 6603801 6616686 
1678.813 6625568 6627990 6627990 6632465 6646192 6667725 6687274 6687544 
1682.671 6649052 6558152 6417197 6250303 6095671 5985066 5928430 5916103 
1686.528 5929908 5952985 5972435 5980464 5973678 5951474 5915734 5870862 
1690.385 5823779 5782912 5756285 5749302 5762027 5789057 5819245 5839025 
1694.243 5835868 5803529 5747522 5685580 5639591 5623949 5638348 5670037 
1698.100 5700049 5708174 5678597 5606964 5506450 5405053 5330682 5297676 
1701.958 5302472 5331285 5367748 5398108 5411931 5403375 5372076 5324040 
1705.815 5270039 5221613 5187308 5171078 5171380 5183686 5202498 5223491 
1709.673 5244886 5267557 5293953 5326690 5366775 5413407 5463667 5514470 
1713.530 5563232 5608810 5651003 5689205 5720864 5741512 5745474 5729828 
1717.387 5697061 5657045 5623311 5607132 5613308 5640363 5681753 5730164 
1721.245 5779185 5825223 5866899 5905087 5940960 5975895 6010766 6046648 
1725.102 6085187 6128435 6178442 6235681 6297870 6360236 6416423 6460780 
1728.960 6490847 6508404 6518393 6526331 6534538 6539348 6530771 6493033 
1732.817 6411514 6279280 6106054 5918623 5751316 5628245 5554439 5520578 
1736.675 5510511 5508933 5503665 5487625 5459708 5424143 5389151 5363354 
1740.532 5353793 5363186 5390728 5432195 5482491 5535679 5587095 5634354 
1744.389 5677690 5719320 5762732 5811152 5865690 5925811 5988728 6050714 
1748.247 6108172 6157773 6196221 6220219 6226774 6214304 6184659 6144364 
1752.104 6102829 6069529 6051453 6050008 6061667 6078467 6091336 6092042 
1755.962 6076921 6047992 6012480 5979322 5954161 5938373 5927927 5916070 
1759.819 5895481 5860854 5810951 5748261 5679033 5610220 5549036 5500275 
1763.677 5466754 5448904 5445683 5453937 5469204 5485679 5498162 5502389 
1767.534 5497927 5486954 5473230 5459137 5444374 5425183 5396800 5355571 
1771.391 5303009 5246328 5197602 5167591 5161522 5176846 5205751 5239789 
1775.249 5272890 5302741 5331017 5360838 5394150 5431054 5468667 5503296 
1779.106 5531484 5552526 5568333 5582899 5600050 5621364 5646304 5671346 
1782.964 5693066 5708576 5716298 5717037 5712404 5705017 5697632 5693133 
1786.821 5694644 5705152 5726974 5760348 5802891 5848529 5889536 5916641 
1790.678 5922317 5903911 5863809 5810749 5755513 5708308 5674971 5656072 
1794.536 5648855 5648788 5651641 5654125 5653857 5649526 5640900 5628950 
1798.393 5615020 5601426 5589746 5580751 5573837 5566722 5557023 5543364 
1802.251 5526014 5507524 5491484 5481686 5480411 5488330 5504168 5525477 
1806.108 5549740 5574576 5598607 5620827 5640430 5656475 5668493 5676784 
1809.966 5682659 5687762 5694207 5703104 5714418 5727008 5739195 5750141 
1813.823 5760079 5770757 5784322 5802791 5827103 5857126 5891887 5930043 
1817.680 5970822 6013622 6058139 6103669 6148766 6191650 6231581 6268186 
1821.538 6302812 6336801 6370525 6402771 6430379 6449547 6458089 6456644 
1825.395 6449951 6444369 6445781 6456879 6475880 6497540 6514491 6521387 
1829.253 6516274 6502013 6485230 6473560 6472383 6483078 6504199 6532621 
1833.110 6566090 6603364 6644442 6689730 6738860 6790688 6843262 6895202 
1836.968 6946510 6999069 7056114 7121115 7196906 7284873 7384856 7495414 
1840.825 7614497 7739852 7868450 7996883 8121944 8241199 8354778 8465076 
1844.682 8576990 8694004 8817203 8943617 9067090 9180142 9276060 9350671 
1848.540 9403217 9435757 9451029 9451232 9436807 9405926 9356799 9288652 
1852.397 9202985 9103868 8996182 8884193 8770442 8655503 8538804 8420007 
1856.255 8300467 8182175 8067662 7958274 7853537 7751254 7649432 7547568 
1860.112 7447210 7351762 7264691 7188012 7120913 7060559 7003682 6948766 
1863.969 6897121 6852249 6818556 6798496 6790688 6790889 6791899 6786985 
1867.827 6772783 6749931 6722135 6695383 6673748 6658741 6648950 6641549 
1871.684 6634080 6624861 6613322 6598923 6581329 6560069 6534707 6505713 
1875.542 6475040 6444604 6416423 6391069 6367263 6342584 6313805 6278943 
1879.399 6237496 6190406 6139323 6086363 6031899 5976701 5920638 5865019 
1883.257 5811555 5763135 5721871 5688836 5663256 5643619 5627976 5614785 
1887.114 5603809 5594546 5586155 5577059 5564944 5548130 5527826 5507692 
1890.971 5492994 5488900 5498162 5519269 5547526 5576992 5602333 5622035 
1894.829 5638147 5655031 5676885 5705387 5738121 5770858 5799063 5821025 
1898.686 5838353 5855615 5877210 5906296 5942135 5981875 6020946 6056358 
1902.544 6086632 6112271 6134416 6153001 6166578 6173501 6172964 6166410 
1906.401 6157773 6151959 6152900 6161772 6175921 6190608 6201330 6205901 
1910.259 6205229 6202574 6201565 6203750 6208657 6214102 6218572 6221799 
1914.116 6225832 6232858 6243849 6256018 6264018 6260926 6242236 6207851 
1917.973 6164360 6121814 6089253 6071982 6068824 6073864 6079206 6078635 
1921.831 6069126 6051587 6029144 6004383 5978986 5952717 5925542 5898873 
1925.688 5876169 5861089 5856891 5862936 5875430 5887286 5892995 5889972 
1929.546 5880266 5869284 5863071 5865455 5875934 5890275 5902836 5909319 
1933.403 5908613 5902198 5893230 5883826 5873818 5861928 5846950 5830025 
1937.260 5815283 5808667 5815316 5836775 5870191 5908714 5944487 5971427 
1941.118 5986645 5991684 5989870 5984730 5978012 5970050 5960577 5951003 
1944.975 5944050 5943781 5953993 5976366 6009490 6049974 6093722 6137810 
1948.833 6180526 6220925 6257665 6287919 6308998 6318882 6318781 6313537 
1952.690 6309670 6313032 6325741 6343896 6359328 6363665 6350956 6321672 
1956.548 6281566 6240017 6204725 6179416 6162444 6148497 6133845 6118185 
1960.405 6105483 6102593 6114220 6140264 6175215 6210371 6238707 6257463 
1964.262 6269396 6279549 6293399 6312259 6331792 6346652 6352066 6347561 
1968.120 6337709 6329002 6325673 6327959 6330515 6326749 6311150 6285095 
1971.977 6253261 6225732 6210170 6210640 6226438 6254841 6294811 6348704 
1975.835 6422745 6520210 6639025 6767600 6886652 6975499 7021125 7020519 
1979.692 6981594 6918869 6846459 6773489 6702349 6631085 6556705 6480488 
1983.550 6407277 6345442 6300896 6276086 6267279 6266842 6267178 6263682 
1987.407 6257261 6251883 6251950 6259749 6274305 6292558 6311418 6330313 
1991.264 6351192 6376880 6408219 6443124 6475342 6499760 6512608 6515332 
1995.122 6514189 6515871 6525927 6544865 6567974 6587216 6596232 6592397 
1998.979 6577729 6558017 6539046 6523540 6511397 6498885 6482472 6460982 
2002.837 6436634 6414002 6398333 6392650 6397694 6412926 6437307 6469524 
2006.694 6509614 6554485 6598048 6630749 6641683 6622910 6574264 6502988 
2010.552 6421804 6346518 6288995 6254606 6242135 6246169 6261161 6284457 
2014.409 6317033 6360236 6414809 6477360 6542443 6603700 6659313 6710526 
2018.266 6764436 6826129 6898401 6977149 7054531 7120542 7169215 7200409 
2022.124 7218938 7231707 7244340 7257042 7266510 7267993 7258390 7238579 
2025.981 7214559 7191482 7173460 7159985 7146680 7128323 7103230 7074704 
2029.839 7050153 7038131 7044698 7070427 7110842 7159278 7210785 7263848 
2033.696 7320490 7382531 7449873 7518304 7581250 7632740 7670644 7697659 
2037.553 7720998 7748285 7783130 7824658 7867943 7906476 7935901 7956317 
2041.411 7971200 7985104 8000595 8016255 8027123 8027630 8014466 7988917 
2045.268 7956891 7926048 7904418 7896016 7901078 7916464 7936846 7956587 
2049.126 7970086 7973292 7962594 7935664 7893789 7841897 7787752 7741438 
2052.983 7711925 7704438 7717389 7743361 7771526 7792103 7799255 7793217 
2056.841 7779116 7764847 7755672 7754491 7759990 7768322 7776147 7781646 
2060.698 7783872 7783872 7781545 7776552 7767849 7756313 7743192 7732668 
2064.555 7728216 7732230 7742686 7754660 7761440 7757257 7740224 7712161 
2068.413 7678266 7644576 7614598 7589444 7567325 7546118 7524271 7503370 
2072.270 7485975 7474682 7470266 7470704 7471985 7470704 7465008 7456109 
2076.128 7447412 7443132 7445356 7453311 7463727 7472559 7477008 7476132 
2079.985 7470974 7463929 7456412 7448794 7440367 7430660 7419740 7409830 
2083.843 7403831 7403865 7410269 7421223 7433019 7442120 7446671 7446637 
2087.700 7443671 7439660 7434604 7426616 7412628 7389642 7356716 7316244 
2091.557 7272373 7231100 7197883 7175818 7166217 7168440 7181409 7203340 
2095.415 7232751 7267116 7302799 7335789 7361906 7378386 7385362 7384924 
2099.272 7380947 7376835 7374813 7375083 7377307 7381014 7386643 7396450 
2103.130 7412931 7437368 7469491 7507213 7547062 7586780 7625557 7664001 
2106.987 7704573 7748420 7795511 7843685 7890955 7934551 7974777 8012914 
2110.844 8051358 8091426 8132983 8173902 8210808 8241367 8264601 8281892 
2114.702 8295907 8308911 8322724 8337890 8354407 8372883 8395212 8424096 
2118.559 8461022 8506196 8556241 8605210 8647527 8678623 8697993 8708945 
2122.417 8717938 8731190 8753166 8784947 8823967 8866777 8909423 8948961 
2126.274 8984748 9016614 9044355 9067767 9085970 9098522 9106000 9110129 
2130.132 9113580 9118892 9128502 9143695 9165996 9196893 9237913 9290006 
2133.989 9352600 9421907 9491395 9554797 9606522 9644938 9674006 9699146 
2137.846 9726998 9760579 9798433 9834459 9862218 9876285 9876014 9865676 
2141.704 9851948 9840052 9832358 9825749 9813480 9790130 9751802 9699925 
2145.561 9640262 9580337 9526448 9482353 9448117 9421636 9400677 9383680 
2149.419 9369393 9357577 9346743 9333946 9315598 9288279 9248643 9195134 
2153.276 9126370 9041242 8939356 8823797 8700055 8582059 8488761 8441156 
2157.134 8458521 8550969 8713340 8926232 9161089 9388353 9584638 9738248 
2160.991 9846288 9912962 9944422 9947066 9925980 9887403 9836866 9781319 
2164.848 9725778 9672786 9620546 9565602 9502199 9426885 9339227 9243160 
2168.706 9143221 9044998 8952141 8865594 8785319 8710872 8641509 8578951 
2172.563 8524679 8479537 8443758 8416291 8395415 8380146 8370147 8364506 
2176.421 8360891 8355150 8341571 8315226 8274665 8222761 8167927 8121235 
2180.278 8091393 8083021 8093519 8114280 8133422 8141660 8132916 8107596 
2184.135 8071408 8031038 7993947 7964754 7945991 7938061 7940254 7950209 
2187.993 7964113 7977916 7986758 7986488 7976835 7960165 7942043 7928544 
2191.850 7923719 7928072 7938432 7948656 7953516 7950277 7939343 7922943 
2195.708 7903540 7882149 7857079 7826075 7788494 7745553 7702785 7666766 
2199.565 7642586 7631695 7630986 7634055 7635235 7631087 7622792 7614598 
2203.423 7611597 7615340 7623905 7632436 7634595 7626502 7609270 7587016 
2207.280 7566212 7552557 7547163 7547972 7551209 7552692 7551310 7549152 
2211.137 7549995 7557244 7572922 7595917 7623534 7652804 7682448 7711689 
2214.995 7740831 7769097 7794026 7812816 7822397 7821453 7812041 7798681 
2218.852 7786335 7778947 7777935 7781241 7786065 7788764 7788123 7784277 
2222.710 7779588 7775001 7771391 7767917 7763262 7756650 7749263 7743125 
2226.567 7740561 7742753 7749095 7756212 7760867 7759282 7749871 7733005 
2230.425 7710273 7683628 7654659 7623264 7589713 7554985 7520664 7489683 
2234.282 7465783 7451693 7448693 7457289 7475862 7503235 7537453 7576631 
2238.139 7618004 7658302 7693207 7718873 7733005 7736007 7730273 7720796 
2241.997 7712769 7710037 7714354 7725754 7742349 7762621 7784682 7807655 
2245.854 7830697 7852862 7872398 7887918 7898479 7904317 7906679 7907455 
2249.712 7907523 7907623 7906949 7904486 7900065 7895274 7892237 7894329 
2253.569 7903540 7919433 7938634 7956688 7968061 7968939 7958612 7938803 
2257.427 7912989 7885590 7859913 7838322 7821554 7809746 7802258 7798378 
2261.284 7796590 7795342 7793149 7789067 7782894 7776282 7771560 7771121 
2265.141 7776755 7788224 7802898 7817944 7829820 7836634 7837916 7835116 
2268.999 7829887 7824185 7818788 7813929 7809308 7805125 7801650 7799829 
2272.856 7799997 7801954 7804619 7806677 7806542 7804079 7799997 7795679 
2276.714 7792677 7792272 7794465 7798783 7804281 7809713 7814840 7819766 
2280.571 7824624 7829887 7836027 7843449 7852694 7864570 7879989 7898817 
2284.428 7920817 7943933 7965530 7983214 7994487 7998334 7994959 7985677 
2288.286 7972549 7957700 7943494 7931446 7923247 7919906 7921728 7928376 
2292.143 7939006 7951963 7966104 7981021 7997254 8016458 8040624 8070666 
2296.001 8106415 8146251 8187070 8225260 8258556 8285337 8305939 8321779 
2299.858 8334208 8344509 8353393 8361162 8368188 8375586 8384436 8396698 
2303.716 8413623 8435987 8463488 8495654 8531099 8569150 8609165 8650940 
2307.573 8694376 8739405 8785725 8832555 8879865 8927010 8973890 9020606 
2311.430 9066786 9112057 9156520 9199872 9242787 9285978 9330730 9377823 
2315.288 9428104 9481676 9538167 9596833 9656795 9717138 9776947 9835815 
2319.145 9893403 9949812 10005788 10061465 10116336 10168603 10214226 
2322.521 10247471 10262534 10254731 10222537 10168942 10100736 10028065 
2325.896 9961204 9909030 9876929 9865913 9873235 9893301 9919946 9947541 
2329.753 9971747 9990666 10003347 10010433 10012976 10013077 10013213 
2333.128 10016299 10024809 10040408 10063060 10091783 10124341 10158733 
2336.504 10193636 10228677 10264739 10302671 10342438 10383736 10424596 
2339.879 10463119 10497469 10526867 10550665 10569234 10581865 10586957 
2343.254 10581525 10561834 10524253 10466785 10390421 10299516 10202862 
2346.629 10111724 10038272 9994599 9989377 10027760 10110537 10234037 
2350.005 10390421 10568726 10757632 10946247 11126003 11292809 11445255 
2353.380 11584754 11712691 11830349 11937378 12033635 12119146 12194894 
2356.755 12263123 12326181 12385498 12442471 12497234 12550026 12601392 
2360.130 12653003 12705541 12759416 12813434 12864729 12909852 12945932 
2363.506 12971604 12987444 12995468 12997925 12996799 12992498 12984406 
2366.881 12971365 12952180 12925827 12891761 12849371 12798112 12737339 
2370.256 12667501 12590272 12508487 12425900 12346225 12271746 12203652 
2373.631 12141055 12082418 12026652 11973412 11924062 11880335 11844207 
2377.007 11816729 11798037 11787415 11784283 11788368 11800114 11820611 
2380.382 11850812 11891301 11941499 12000525 12067053 12139862 12217897 
2383.757 12299832 12383418 12466032 12543512 12612307 12669514 12713832 
2387.132 12745563 12766820 12780060 12787124 12789035 12785793 12776512 
2390.508 12760713 12738192 12709430 12675177 12636390 12593479 12547093 
2393.883 12498257 12447994 12398590 12352225 12310808 12275904 12247991 
2397.258 12227133 12213331 12206890 12208968 12220998 12243867 12278086 
2400.633 12322875 12376770 12438140 12505930 12580108 12661224 12750135 
2404.009 12847425 12952794 13065325 13183998 13308034 13437266 13572518 
2407.384 13714960 13865658 14025375 14194736 14373410 14561273 14757547 
2410.759 14960801 15168612 15377519 15583434 15781956 15969466 16143611 
2414.134 16303446 16449161 16580706 16698005 16800178 16885806 16953502 
2417.510 17002874 17034404 17050152 17052806 17044846 17028822 17006320 
2420.885 16978204 16945268 16908370 16868722 16827834 16787332 16749449 
2424.260 16715908 16689017 16670700 16662711 16666258 16682131 16709952 
2427.635 16749380 16799834 16861694 16936070 17025274 17131350 17256484 
2431.010 17401554 17565958 17747820 17944364 18152884 18370972 18597194 
2434.386 18830766 19071768 19320874 19578612 19846180 20124812 20415778 
2437.761 20720108 21038632 21371872 21719994 22083284 22461392 22854498 
2441.136 23262466 23684640 24120604 24569560 25030736 25503614 25988226 
2444.511 26484510 26992432 27511680 28041446 28579998 29125812 29676780 
2447.887 30230898 30786330 31340762 31891662 32437016 32974612 33503074 
2451.262 34021820 34530172 35027124 35510876 35977816 36423596 36843544 
2454.637 37233144 37588624 37907764 38187848 38426372 38620264 38765944 
2458.012 38859640 38899068 38882832 38810652 38683064 38500044 38261476 
2461.388 37967028 37617452 37214732 36763988 36272536 35748364 35200676 
2464.763 34637416 34065720 33491944 32921818 32362256 31820316 31303552 
2468.138 30818840 30371592 29965590 29602248 29281670 29003798 28767772 
2471.513 28573276 28419758 28305724 28228246 28183482 28166512 28172168 
2474.889 28195682 28233124 28280474 28334654 28391528 28447422 28498722 
2478.264 28541996 28575330 28597446 28608170 28607144 28594262 28569526 
2481.639 28532512 28483826 28424426 28355982 28280580 28200100 28115536 
2485.014 28027840 27937548 27845050 27751158 27656828 27562870 27469674 
2488.390 27376712 27283310 27188058 27090604 26990458 26888044 26784032 
2491.765 26678636 26571120 26460668 26345706 26224612 26096938 25962054 
2495.140 25820006 25670832 25513804 25347664 25171158 24983424 24783914 
2498.515 24573590 24354048 24127574 23896250 23662702 23428370 23195040 
2501.891 22964034 22736364 22512548 22293102 22077706 21866110 21658484 
2505.266 21455168 21257760 21067848 20887094 20716250 20555166 20402546 
2508.641 20255740 20112596 19971162 19830018 19689232 19548908 19410050 
2512.016 19273554 19140256 19011566 18888382 18772224 18663636 18562612 
2515.392 18468390 18379336 18294106 18211860 18133362 18060060 17994230 
2518.767 17937872 17892052 17856834 17831116 17813818 17803878 17800944 
2522.142 17805224 17816892 17835396 17859078 17885596 17912148 17936768 
2525.517 17958522 17977516 17994784 18011774 18028872 18045830 18061684 
2528.893 18074672 18083550 18087488 18086382 18080924 18071806 18059716 
2532.268 18045106 18028250 18008564 17986150 17960802 17932866 17903206 
2535.643 17873372 17845132 17820758 17802220 17790656 17786478 17789172 
2539.018 17796834 17807814 17820104 17832288 17842922 17851898 17858698 
2542.394 17863464 17866674 17869194 17871958 17876308 17883214 17892776 
2545.769 17904828 17918122 17931140 17942706 17951962 17958832 17964012 
2549.144 17968192 17971438 17973856 17975064 17974372 17972060 17968676 
2552.519 17965290 17963358 17964012 17967950 17974858 17984320 17995302 
2555.895 18006562 18017302 18026074 18031324 18031464 18025348 18012122 
2559.270 17992056 17965602 17934006 17897920 17857352 17811748 17760418 
2562.645 17702606 17638934 17570582 17499926 17429008 17359928 17293584 
2566.020 17230110 17169610 17112048 17058252 17009940 16968662 16935896 
2569.396 16912470 16898104 16891836 16892626 16899208 16911092 16927284 
2572.771 16947438 16970590 16995812 17022240 17049464 17077378 17106362 
2576.146 17136694 17168612 17201978 17236350 17271688 17308238 17346754 
2579.521 17388760 17434906 17485818 17540806 17599046 17658984 17719758 
2582.896 17781300 17844164 17909074 17976758 18047280 18120132 18194790 
2586.272 18270466 18347052 18424588 18503484 18583466 18664048 18743992 
2589.647 18821872 18896828 18968540 19037288 19103864 19169032 19233378 
2593.022 19296868 19359466 19420790 19480946 19540106 19598230 19655430 
2596.397 19711700 19766832 19821488 19876358 19933280 19994026 20060298 
2599.773 20132620 20210822 20293930 20380770 20470444 20562982 20659050 
2603.148 20760040 20866652 20979306 21097552 21220530 21347334 21477622 
2606.523 21611294 21748804 21890224 22035524 22183768 22333948 22484840 
2609.898 22635298 22784586 22931932 23076428 23216850 23351162 23477576 
2613.274 23594058 23699722 23793932 23876960 23949254 24011722 24064636 
2616.649 24108590 24144212 24171992 24193150 24208986 24220546 24229058 
2620.024 24235436 24239990 24243074 24245176 24246226 24246716 24246928 
2623.399 24246824 24246332 24245386 24244124 24243144 24243320 24245948 
2626.775 24252358 24263466 24279862 24301238 24327028 24356640 24389236 
2630.150 24424424 24462738 24504452 24550694 24602098 24658802 24720564 
2633.525 24786088 24853834 24921906 24989110 25053798 25115828 25175618 
2636.900 25233836 25291360 25349420 25408434 25469004 25531408 25595438 
2640.276 25661236 25728940 25798100 25868428 25939580 26010918 26082548 
2643.651 26154260 26226652 26300362 26376090 26454436 26535862 26620508 
2647.026 26708550 26800104 26895024 26993350 27094906 27199238 27306066 
2650.401 27415108 27526156 27639418 27755326 27874232 27996420 28121686 
2653.777 28250276 28382120 28517262 28656338 28799954 28948968 29103666 
2657.152 29263700 29428366 29596926 29768604 29943118 30120508 30301274 
2660.527 30486098 30674768 30866510 31060220 31254302 31447440 31638776 
2663.902 31827838 32015276 32201686 32387924 32575138 32764144 32955740 
2667.278 33150528 33348874 33551034 33756728 33965560 34177008 34390888 
2670.653 34606920 34825496 35046624 35270244 35496276 35724080 35952832 
2674.028 36181596 36409940 36637256 36863204 37087472 37309500 37528868 
2677.403 37745236 37958568 38169032 38377796 38586148 38795724 39008228 
2680.779 39225848 39450608 39684636 39930304 40189416 40463116 40751916 
2684.154 41055584 41373056 41703376 42045744 42400288 42767340 43147428 
2687.529 43541116 43948132 44367092 44797116 45236788 45684820 46141168 
2690.904 46605852 47079596 47562956 48055960 48558820 49071060 49592668 
2694.280 50123084 50662232 51209236 51763992 52325624 52893972 53468836 
2697.655 54050388 54638996 55234616 55837040 56445468 57059140 57676704 
2701.030 58297528 58921224 59547336 60175104 60803220 61429340 62050628 
2704.405 62663584 63264608 63850612 64418108 64963608 65483636 65974392 
2707.781 66432224 66854328 67238544 67584040 67890600 68158536 68388160 
2711.156 68579992 68734176 68851264 68932112 68977576 68988688 68966088 
2714.531 68909776 68819040 68692920 68530600 68331728 68096632 67826488 
2717.906 67522872 67187760 66823876 66434152 66022568 65593720 65153012 
2721.281 64706212 64259456 63818024 63387892 62974236 62581948 62215632 
2724.657 61878508 61573144 61300312 61059684 60850328 60670796 60520664 
2728.032 60400128 60310196 60252220 60226984 60234636 60273884 60342556 
2731.407 60437940 60557612 60698952 60860128 61039320 61234956 61445104 
2734.782 61668152 61902428 62146312 62398676 62657768 62921992 63188680 
2738.158 63455036 63717788 63974292 64222576 64461536 64690792 64910584 
2741.533 65121368 65324008 65519892 65710224 65897488 66084096 66272752 
2744.908 66465744 66664764 66870792 67084344 67305240 67533088 67766992 
2748.283 68005672 68246848 68486952 68722616 68950016 69166024 69369088 
2751.659 69558784 69736320 69903448 70062888 70217064 70368168 70518320 
2755.034 70669024 70820872 70973752 71126488 71277256 71423184 71561736 
2758.409 71690176 71806304 71907568 71991672 72055344 72095248 72107648 
2761.784 72089416 72038688 71954880 71838320 71690144 71511816 71304824 
2765.160 71070568 70811280 70529816 70230424 69918240 69598496 69276544 
2768.535 68956768 68642888 68337896 68044736 67766064 67504800 67263536 
2771.910 67044056 66847028 66672028 66517948 66382804 66264532 66161028 
2775.285 66070096 65989240 65915616 65845356 65774256 65697312 65609632 
2778.661 65506020 65381548 65231936 65053700 64844756 64604544 64334452 
2782.036 64037724 63718668 63382676 63034804 62680200 62322904 61966740 
2785.411 61614880 61269596 60932288 60603516 60282368 59966676 59653792 
2788.786 59340988 59025936 58707660 58386288 58062840 57739332 57417840 
2792.162 57100324 56788260 56483052 56185720 55897444 55619076 55351500 
2795.537 55095676 54852296 54622012 54405112 54201980 54012564 53836472 
2798.912 53672596 53519804 53376656 53241308 53112408 52988632 52868860 
2802.287 52751928 52636824 52522608 52408460 52293520 52177600 52060296 
2805.663 51941752 51822416 51702592 51582876 51464012 51346528 51231348 
2809.038 51118584 51008528 50899920 50791152 50679876 50563868 50441264 
2812.413 50310960 50172620 50026852 49874704 49717484 49556308 49392740 
2815.788 49228828 49067092 48910716 48763928 48630640 48515212 48421668 
2819.164 48353372 48313408 48304228 48327556 48384556 48474980 48598064 
2822.539 48751468 48932448 49137768 49363672 49606152 49861104 50123456 
2825.914 50387456 50646928 50894592 51123988 51329264 51505088 51648292 
2829.289 51756492 51828652 51864492 51864492 51829992 51762540 51664224 
2832.665 51537356 51384232 51207376 51009500 50793424 50562864 50321488 
2836.040 50072512 49819296 49563624 49306284 49046800 48784392 48517804 
2839.415 48246496 47970436 47690036 47405756 47117968 46826860 46532636 
2842.790 46235916 45937632 45639804 45344360 45053556 44769344 44492988 
2846.166 44225684 43968848 43723964 43493716 43280728 43088076 42918256 
2849.541 42772748 42652140 42556092 42483700 42433792 42404712 42395068 
2852.916 42402668 42425460 42460680 42505844 42559088 42618844 42684164 
2856.291 42754356 42828216 42903956 42978944 43049880 43112812 43164228 
2859.667 43200680 43219416 43218060 43194348 43146512 43072892 42972468 
2863.042 42844708 42690048 42509972 42306596 42083600 41845428 41597692 
2866.417 41346556 41099068 40862128 40642240 40445296 40275784 40136788 
2869.792 40030100 39956132 39913740 39900664 39913380 39947344 39997328 
2873.167 40058260 40125852 40196500 40268004 40339300 40409728 40479012 
2876.543 40546376 40611128 40672440 40729788 40783108 40832900 40880220 
2879.918 40925984 40970952 41015816 41060824 41106644 41153448 41201976 
2883.293 41252656 41305596 41360480 41416644 41472964 41528852 41583652 
2886.668 41637660 41691088 41744120 41796724 41848164 41897460 41943368 
2890.044 41985048 42022204 42055308 42085608 42114556 42143980 42175164 
2893.419 42209048 42245788 42285156 42326352 42368252 42409828 42450596 
2896.794 42490680 42531020 42573044 42618368 42668480 42724012 42784812 
2900.169 42849684 42916724 42983916 43048560 43107944 43159688 43200716 
2903.545 43228528 43240940 43236508 43214880 43176776 43124084 43058768 
2906.920 42982892 42898072 42805180 42704636 42597020 42482496 42361784 
2910.295 42235524 42104080 41967636 41825872 41678032 41523748 41362960 
2913.670 41196580 41026156 40854048 40682336 40512800 40346824 40184688 
2917.046 40026648 39872732 39723264 39579328 39442808 39316048 39201944 
2920.421 39103208 39022296 38961292 38921680 38903920 38908200 38933928 
2923.796 38979596 39042888 39120868 39209164 39303028 39397092 39485804 
2927.171 39564448 39629708 39679156 39712956 39732232 39740296 39740948 
2930.547 39738988 39740112 39749844 39773772 39817532 39885884 39982908 
2933.922 40111928 40275272 40474644 40710976 40984132 41293428 41636420 
2937.297 42010008 42409532 42829500 43264512 43709272 44159616 44612672 
2940.672 45065836 45517076 45963708 46402024 46826680 47230844 47605768 
2944.048 47941796 48228316 48454268 48610180 48688752 48686268 48604140 
2947.423 48449008 48233016 47970768 47680092 47377892 47078416 46793060 
2950.798 46528764 46288656 46072892 45879588 45706064 45549792 45408656 
2954.173 45281688 45168212 45068040 44980936 44906080 44842592 44788960 
2957.549 44743780 44705728 44674256 44649208 44630664 44618992 44614176 
2960.924 44615868 44623324 44635988 44653248 44675100 44701688 44733608 
2964.299 44771036 44813900 44862432 44916332 44975900 45041612 45113988 
2967.674 45193656 45280328 45372680 45468620 45564912 45658176 45745708 
2971.050 45825528 45896860 45959948 46016084 46067144 46115264 46162760 
2974.425 46212364 46266100 46325448 46390076 46457772 46523044 46577928 
2977.800 46612160 46613784 46571808 46476876 46323236 46109772 45840516 
2981.175 45524476 45173360 44801632 44424128 44053256 43699412 43369176 
2984.551 43065392 42788140 42535404 42304624 42093272 41899796 41723588 
2987.926 41564220 41419852 41286140 41154616 41012828 40845092 40633652 
2991.301 40363444 40023996 39612216 39134068 38603604 38041416 37468652 
2994.676 36906128 36369228 35866240 35398952 34963484 34553240 34160340 
2998.052 33778468 33403262 33032530 32665614 32302574 31943728 31589202 
3001.427 31238956 30892904 30551714 30216122 29887992 29568444 29259200 
3004.802 28960834 28673504 28396658 28129356 27870768 27620280 27377558 
3008.177 27142874 26916844 26700058 26492822 26294976 26105770 25924278 
3011.552 25748946 25578744 25412616 25250026 25091008 24935732 24784650 
3014.928 24638110 24496564 24360146 24228814 24102532 23981188 23864252 
3018.303 23751094 23640868 23532560 23425012 23317492 23209124 23099842 
3021.678 22989642 22878944 22768382 22658824 22551110 22446564 22346506 
3025.053 22252540 22166474 22089908 22024300 21970310 21927824 21895172 
3028.429 21869594 21846946 21822278 21789842 21744658 21682480 21600742 
3031.804 21499242 21379356 21244084 21097066 20942098 20782286 20620342 
3035.179 20458286 20297748 20140362 19987434 19840286 19699842 19566274 
3038.554 19439536 19318900 19203696 19093270 18987440 18886236 18789764 
3041.930 18698086 18611132 18528378 18449582 18374014 18301086 18230174 
3045.305 18160588 18091772 18023208 17954898 17886874 17819964 17755138 
3048.680 17693116 17634552 17579136 17525972 17473606 17420454 17365378 
3052.055 17307754 17247590 17185260 17121252 17055666 16988506 16919394 
3055.431 16848088 16774623 16699759 16624495 16550347 16479032 16411962 
3058.806 16350165 16294328 16244348 16199840 16159706 16122669 16087560 
3062.181 16053453 16020104 15988098 15958501 15932893 15912510 15898177 
3065.556 15889620 15885908 15885634 15886905 15887970 15887145 15882952 
3068.932 15874119 15859652 15838895 15811644 15778555 15740657 15699567 
3072.307 15656903 15613899 15571345 15529585 15488344 15447553 15407042 
3075.682 15366980 15327401 15288412 15249802 15211436 15173004 15134302 
3079.057 15095637 15057182 15019004 14981517 14944237 14906618 14868248 
3082.433 14828613 14787850 14746714 14705719 14665790 14627475 14591084 
3085.808 14556819 14524989 14495903 14470278 14448457 14430439 14415710 
3089.183 14403208 14391529 14379370 14365979 14351116 14335396 14320020 
3092.558 14305603 14292865 14282010 14272594 14264137 14256227 14248591 
3095.934 14241332 14235239 14231198 14229965 14232602 14239210 14249585 
3099.309 14262903 14277867 14293207 14307692 14320773 14332416 14343136 
3102.684 14353307 14363342 14373206 14382213 14389748 14395536 14399543 
3106.059 14402661 14405811 14410093 14416155 14423829 14432563 14441366 
3109.435 14449279 14455684 14460652 14464455 14467777 14471477 14476067 
3112.810 14482507 14491449 14503542 14518891 14537597 14558806 14580975 
3116.185 14602392 14621444 14636660 14647798 14654857 14658388 14659245 
3119.560 14658079 14655269 14651464 14647249 14643617 14641458 14641698 
3122.936 14644439 14649305 14655063 14660444 14664043 14665585 14665208 
3126.311 14664282 14663597 14664557 14667401 14671925 14677580 14683852 
3129.686 14690158 14696430 14703217 14710929 14720286 14732009 14746337 
3133.061 14763374 14782845 14804169 14826796 14849561 14871745 14892354 
3136.437 14910974 14927434 14941905 14954628 14965946 14976063 14985357 
3139.812 14994172 15003433 15014065 15027065 15043324 15063220 15086478 
3143.187 15112173 15139312 15166828 15194176 15221250 15248189 15275610 
3146.562 15303684 15332791 15362792 15393344 15424104 15454661 15484945 
3149.938 15514304 15542703 15570005 15596107 15621661 15647456 15674628 
3153.313 15704412 15737565 15774190 15813878 15855322 15897216 15938014 
3156.688 15976788 16012987 16046885 16079137 16111184 16144058 16179206 
3160.063 16217450 16259482 16305270 16354535 16406903 16462065 16519817 
3163.438 16579881 16642295 16706441 16771043 16834758 16895418 16951676 
3166.814 17002668 17048810 17091404 17132488 17174334 17218250 17264898 
3170.189 17313478 17362928 17411728 17458636 17502790 17544084 17582106 
3173.564 17616884 17648114 17675410 17698740 17718240 17734496 17748750 
3176.939 17762316 17776400 17791864 17809504 17829354 17851380 17875480 
3180.315 17901272 17928376 17956486 17985112 18013848 18042688 18071736 
3183.690 18101546 18132810 18166286 18202082 18240230 18280108 18321200 
3187.065 18362710 18404710 18447542 18491900 18538924 18589274 18643298 
3190.440 18700300 18759144 18817894 18875130 18929740 18982074 19033134 
3193.816 19084544 19138420 19196010 19258038 19323646 19391512 19459910 
3197.191 19527350 19593206 19657718 19721616 19786044 19851730 19918674 
3200.566 19987088 20056274 20126234 20196902 20268760 20342472 20418346 
3203.941 20496388 20575940 20655922 20735400 20813326 20889146 20962684 
3207.317 21033972 21103222 21170952 21237614 21304006 21371002 21439434 
3210.692 21510070 21583016 21657892 21733964 21810362 21886286 21961456 
3214.067 22036500 22112046 22189174 22268478 22349924 22432710 22515828 
3217.442 22597530 22676942 22753262 22826558 22897456 22967178 23036982 
3220.818 23108158 23181756 23258342 23338260 23421202 23506538 23593672 
3224.193 23681456 23768696 23854452 23937770 24018376 24096190 24171746 
3227.568 24245806 24319284 24393056 24467364 24542282 24617492 24692576 
3230.943 24767148 24841134 24914852 24988724 25062642 25136400 25209116 
3234.319 25279772 25347734 25413212 25476874 25540614 25606158 25674628 
3237.694 25746592 25821062 25896916 25972714 26047752 26122238 26197336 
3241.069 26274276 26353522 26434646 26516206 26595670 26671310 26742238 
3244.444 26809196 26874332 26940182 27009534 27084010 27164036 27249122 
3247.820 27337612 27428380 27520190 27612724 27705950 27800256 27895890 
3251.195 27993064 28091640 28191650 28292674 28395030 28498722 28603746 
3254.570 28709962 28817482 28925842 29034336 29142180 29248566 29352354 
3257.945 29453294 29551384 29647724 29743696 29840964 29941096 30044728 
3261.321 30151548 30260668 30370170 30478562 30584636 30688460 30790384 
3264.696 30891766 30993850 31097520 31203390 31311456 31421650 31533334 
3268.071 31646114 31759388 31872514 31985030 32096178 32205504 32312390 
3271.446 32416948 32519568 32620818 32722234 32824822 32929894 33038534 
3274.822 33151388 33268560 33389520 33513344 33638956 33765000 33890864 
3278.197 34016192 34140768 34265200 34389776 34514820 34640540 34766984 
3281.572 34894252 35022636 35152388 35284188 35418404 35555100 35694292 
3284.947 35835364 35977816 36121280 36265476 36410736 36557300 36705500 
3288.323 36855848 37008332 37162972 37319540 37477648 37637180 37797936 
3291.698 37959904 38124064 38291044 38462136 38638624 38821340 39010080 
3295.073 39204232 39402060 39602084 39802568 40002816 40202756 40403512 
3298.448 40605968 40810952 41019020 41229880 41442852 41657860 41874876 
3301.823 42094732 42318648 42547868 42783316 43025696 43275128 43531628 
3305.199 43794800 44064772 44341188 44623764 44911812 45204432 45500372 
3308.574 45799132 46100084 46403424 46709184 47018120 47330816 47647844 
3311.949 47970324 48299264 48636160 48982260 49338056 49703736 50078016 
3315.324 50459316 50845756 51235860 51628852 52024700 52423524 52826088 
3318.700 53232432 53642228 54055340 54471140 54889744 55311156 55734824 
3322.075 56160452 56586764 57012472 57436368 57857992 58277184 58694464 
3325.450 59109944 59523240 59933084 60337304 60734084 61121656 61498968 
3328.825 61866016 62223012 62570012 62906832 63232528 63546040 63846768 
3332.201 64134188 64408348 64668448 64913200 65140268 65347268 65531680 
3335.576 65692416 65829740 65945500 66042008 66121368 66184492 66231264 
3338.951 66260480 66270092 66258780 66225164 66168904 66089460 65987044 
3342.326 65861628 65713540 65543160 65351544 65139152 64906276 64652072 
3345.702 64374952 64072936 63744724 63389852 63009368 62605792 62181832 
3349.077 61740140 61282836 60811032 60325464 59826556 59315192 58792672 
3352.452 58260888 57721580 57176592 56627568 56075956 55523616 54971936 
3355.827 54422460 53876456 53334472 52796452 52262276 51732264 51206964 
3359.203 50687844 50176932 49676248 49186820 48709064 48242312 47785084 
3362.578 47335988 46894408 46460096 46034064 45617832 45212152 44818200 
3365.953 44436092 44065504 43705644 43355560 43014060 42680252 42353348 
3369.328 42032892 41718552 41410376 41108684 40813280 40523860 40239904 
3372.704 39960128 39683692 39409644 39137508 38867540 38600272 38336536 
3376.079 38077624 37823672 37575652 37333732 37098112 36868688 36645004 
3379.454 36426120 36210768 35997540 35784844 35571752 35358192 35144480 
3382.829 34931344 34719496 34508968 34299368 34090264 33880832 33670964 
3386.205 33461306 33253108 33047438 32845512 32647610 32453258 32261532 
3389.580 32071386 31881928 31692554 31503656 31315730 31129734 30946382 
3392.955 30766342 30589898 30416722 30246210 30076936 29907728 29737308 
3396.330 29565216 29391670 29218440 29047726 28882246 28723910 28573488 
3399.706 28430230 28292038 28155800 28018794 27878612 27733780 27584230 
3403.081 27430426 27273358 27114374 26954568 26795486 26638156 26483876 
3406.456 26333030 26186390 26043282 25902614 25763008 25623134 25481970 
3409.831 25339656 25196192 25052254 24908746 24766200 24624960 24485242 
3413.207 24346968 24210316 24075528 23942672 23811818 23683310 23556696 
3416.582 23431728 23307948 23184902 23062174 22939266 22815804 22691536 
3419.957 22566536 22441118 22316402 22193812 22074814 21960584 21851546 
3423.332 21747340 21646294 21546664 21445804 21342114 21234516 21122946 
3426.708 21008760 20893526 20779158 20667042 20557910 20451758 20347816 
3430.083 20245500 20144246 20044060 19945178 19848296 19753586 19660906 
3433.458 19569184 19477100 19383232 19286440 19186866 19085306 18983460 
3436.833 18883642 18787550 18696150 18609678 18527272 18447300 18368102 
3440.208 18288090 18206194 18122344 18036644 17950028 17863188 17776952 
3443.584 17691286 17605878 17520004 17432146 17341788 17248728 17153754 
3446.959 17058802 16965906 16877228 16794048 16716253 16642742 16572068 
3450.334 16502365 16432367 16361382 16289409 16216418 16142648 16067997 
3453.709 15991811 15914056 15834702 15754469 15674697 15596725 15521343 
3457.085 15448515 15377656 15307048 15235285 15161442 15085208 15007274 
3460.460 14928908 14851447 14776194 14703629 14634158 14567440 14502994 
3463.835 14440407 14378959 14318205 14257665 14196687 14134795 14071132 
3467.210 14005220 13936169 13863709 13787361 13707710 13625783 13543632 
3470.586 13463411 13387031 13315926 13250162 13188541 13128944 13068739 
3473.961 13006324 12940676 12872102 12802071 12732460 12665147 12601051 
3477.336 12541022 12484378 12430298 12377214 12323727 12267929 12208560 
3480.711 12144701 12077070 12006486 11935199 11866000 11800931 11740639 
3484.087 11685052 11632092 11579786 11526057 11470021 11411611 11351781 
3487.462 11291653 11232009 11172679 11113255 11052753 10991341 10929733 
3490.837 10869493 10812692 10760553 10713344 10670316 10629128 10587535 
3494.212 10543806 10496994 10447268 10395953 10344236 10293442 10244180 
3497.588 10196960 10151610 10108332 10066823 10026743 9986971 9946388 
3500.963 9903030 9855440 9802635 9744178 9681561 9617260 9554052 9495290 
3504.820 9443545 9400203 9365398 9337772 9314887 9293729 9270509 9242686 
3508.678 9208265 9167044 9120584 9071692 9023787 8979370 8940032 8905364 
3512.535 8873642 8842159 8808581 8770949 8728655 8682444 8633804 8584763 
3516.393 8537317 8492714 8452306 8416663 8386023 8360689 8340423 8324717 
3520.250 8312322 8302021 8291821 8279798 8264297 8243799 8217932 8186294 
3524.107 8149627 8108946 8065366 8020508 7975418 7931176 7888390 7847194 
3527.965 7807351 7768895 7731083 7693949 7657796 7623129 7590792 7561290 
3531.822 7535228 7512168 7491369 7471075 7449839 7425571 7397158 7364096 
3535.680 7326858 7286996 7246598 7207854 7172011 7140280 7112897 7089253 
3539.537 7069147 7052342 7038838 7028803 7022607 7019542 7018532 7017657 
3543.395 7014121 7005265 6989002 6964152 6930484 6889479 6843262 6794255 
3547.252 6745422 6699220 6657362 6620488 6588562 6560002 6532958 6504401 
3551.109 6472046 6434280 6391305 6344400 6296828 6252152 6213060 6181433 
3554.967 6157336 6139323 6125578 6113548 6101753 6088312 6072486 6053771 
3558.824 6031596 6006197 5977743 5947812 5919127 5894608 5878117 5872273 
3562.682 5878184 5895077 5919731 5947006 5970386 5983353 5979859 5955102 
3566.539 5907370 5838555 5753566 5659731 5564843 5475646 5396431 5328870 
3570.396 5272186 5224698 5183552 5146601 5112336 5080219 5050384 5023333 
3574.254 4998931 4976575 4955093 4933174 4909650 4884551 4858414 4831978 
3578.111 4806516 4782361 4759581 4737707 4715800 4694095 4672726 4653569 
3581.969 4638130 4628686 4626710 4633006 4646770 4665994 4687028 4704445 
3585.826 4712517 4705818 4679994 4635183 4574772 4506502 4438911 4380034 
3589.684 4334852 4305001 4289072 4283450 4284254 4287165 4288403 4285625 
3593.541 4276524 4259826 4234999 4203114 4165678 4126439 4088441 4054761 
3597.398 4026401 4002958 3981891 3960457 3935714 3907027 3875600 3844611 
3601.256 3817735 3798649 3789123 3789123 3797111 3810849 3828131 3846383 
3605.113 3863465 3876938 3883591 3880582 3865371 3837524 3798382 3752124 
3608.971 3704267 3660191 3623203 3594336 3572587 3555215 3539481 3523681 
3612.828 3507213 3491013 3477285 3467766 3464493 3467633 3476250 3487606 
3616.686 3497727 3501434 3493518 3470471 3431863 3381136 3325206 3272689 
3620.543 3230760 3203655 3191872 3193074 3203789 3220879 3242344 3267982 
3624.400 3298429 3333787 3373255 3413228 3448562 3471607 3474546 3451200 
3628.258 3400338 3327577 3245081 3167874 3107600 3069391 3051806 3049603 
3632.115 3055743 3062784 3065753 3061415 3049804 3032720 3013368 2994183 
3635.973 2976368 2959454 2942006 2922959 2902277 2881297 2862385 2847343 
3639.830 2837071 2830434 2825698 2821329 2817527 2816694 2822597 2838872 
3643.688 2867955 2908715 2957619 3008029 3053641 3088512 3108668 3112205 
3647.545 3098556 3067622 3020341 2958319 2886333 2812125 2746365 2699252 
3651.402 2676448 2678548 2700986 2735828 2773875 2807389 2830367 2839439 
3655.260 2834203 2816927 2793483 2770474 2754934 2752167 2764838 2791849 
3659.117 2829133 2870824 2910116 2942373 2966559 2985442 3005127 3031819 
3662.975 3069457 3118813 3177754 3243712 3316793 3400504 3502704 3630954 
3666.832 3792098 3990986 4232022 4525351 4893263 5370700 6001830 6828182 
3670.689 7869259 9123291 10571849 12195746 13980103 15908213 17944364 
3674.065 19984590 21834020 23222582 23856972 23563446 22362274 20446304 
3677.440 18080684 15516810 12969965 10594902 8507480 6786480 5456822 4496458 
3681.297 3841703 3413495 3133464 2941072 2802054 2699219 2625342 2576143 
3685.155 2542913 2514884 2482026 2438107 2382932 2322367 2264541 2215449 
3689.012 2177318 2148182 2124341 2104696 2089813 2081523 2081024 2087050 
3692.870 2096406 2105728 2112620 2116949 2120478 2125706 2133930 2144652 
3696.727 2156040 2165497 2171258 2173755 2173522 2172057 2169060 2163066 
3700.584 2151411 2133564 2110689 2087549 2070170 2063745 2070137 2087549 
3704.442 2111588 2136993 2160502 2180848 2199464 2218580 2239895 2263176 
3708.299 2285759 2303513 2311874 2308243 2292021 2264875 2230170 2192304 
3712.157 2155907 2125406 2104862 2096872 2102399 2120079 2146317 2176020 
3716.014 2204293 2227405 2244391 2256581 2267373 2279963 2296185 2315305 
3719.872 2334492 2350483 2360943 2365874 2367440 2368206 2370271 2373736 
3723.729 2376568 2375569 2368506 2354314 2335059 2314605 2297683 2288423 
3727.586 2289023 2299616 2317803 2340755 2364874 2386963 2405387 2420181 
3731.444 2432976 2447237 2466730 2492490 2522250 2549045 2563177 2555345 
3735.301 2520750 2461599 2388562 2316737 2259379 2224308 2212685 2219912 
3739.159 2240494 2268505 2300848 2335592 2370738 2402289 2422980 2422980 
3743.016 2392693 2327663 2236631 2139724 2064677 2030621 2040475 2082988 
3746.874 2140356 2194935 2232801 2246489 2235265 2204792 2164365 2123441 
3750.731 2088881 2063778 2049097 2045368 2053658 2073932 2104430 2140989 
3754.588 2177452 2207157 2226073 2231935 2225674 2210521 2190539 2168760 
3758.446 2146616 2124274 2102532 2083021 2069405 2065410 2073167 2092244 
3762.303 2118813 2147615 2172923 2190639 2199431 2200963 2198731 2196900 
3766.161 2197666 2201462 2206224 2209821 2209088 2202927 2191671 2177085 
3770.018 2162566 2151711 2147249 2150779 2162200 2179217 2198398 2216016 
3773.875 2228604 2234533 2234366 2230703 2226673 2225507 2227638 2230903 
3777.733 2231702 2226073 2212285 2192204 2170991 2155707 2151578 2160802 
3781.590 2181248 2208322 2235931 2259012 2274933 2283061 2284626 2282128 
3785.448 2277365 2271936 2266540 2262143 2259512 2259779 2263676 2270836 
3789.305 2279996 2289023 2295785 2299249 2299282 2297051 2293986 2291055 
3793.163 2287857 2283194 2275733 2264608 2250719 2236531 2226073 2223009 
3797.020 2229337 2244158 2263576 2282561 2294586 2294352 2278897 2248754 
3800.877 2209488 2171291 2145984 2142221 2162367 2201795 2250819 2298683 
3804.735 2334526 2350449 2343454 2316637 2279064 2243059 2220245 2215782 
3808.592 2228771 2253217 2282295 2310741 2336358 2359311 2382132 2406287 
3812.450 2431376 2454268 2469996 2472762 2458466 2427411 2385064 2342188 
3816.307 2310908 2299948 2311307 2340222 2377834 2412651 2435341 2438440 
3820.165 2419548 2382365 2336724 2295785 2270037 2264242 2276166 2299316 
3824.022 2325331 2346818 2359811 2363009 2358911 2352182 2348284 2350783 
3827.879 2361510 2378700 2399557 2420781 2439340 2453535 2463198 2468996 
3831.737 2472662 2475761 2479793 2485491 2493489 2502954 2512518 2519850 
3835.594 2522683 2518184 2505920 2486658 2463431 2441106 2424679 2416949 
3839.452 2419315 2430010 2445837 2462831 2477294 2486291 2487824 2481792 
3843.309 2468696 2451135 2432709 2417049 2407720 2407286 2416349 2434542 
3847.167 2460232 2491323 2526049 2563144 2601775 2640343 2676715 2706020 
3851.024 2721424 2714589 2677715 2607908 2511352 2405587 2312906 2252418 
3854.881 2231568 2246256 2285925 2338756 2395026 2448170 2494256 2532448 
3858.739 2563144 2587942 2608242 2625442 2640243 2652744 2662112 2667113 
3862.596 2666246 2658212 2642377 2620642 2596775 2576676 2566043 2568377 
3866.454 2583976 2608375 2634143 2653178 2657578 2643544 2613075 2574710 
3870.311 2540446 2520583 2519484 2534014 2556644 2577276 2587709 2583742 
3874.168 2566710 2542480 2519617 2506086 2505920 2519450 2543313 2572110 
3878.026 2600675 2623909 2638776 2644377 2641977 2634609 2626409 2621475 
3881.883 2621909 2628509 2639443 2650911 2657845 2655811 2641843 2618075 
3885.741 2590342 2567543 2557678 2565044 2588175 2620909 2655045 2681649 
3889.598 2693618 2688150 2666446 2634943 2601775 2574843 2558811 2555111 
3893.456 2562244 2577943 2600408 2628842 2662712 2701786 2744531 2788414 
3897.313 2830267 2866287 2893405 2910183 2916654 2914719 2906814 2895573 
3901.170 2882664 2868489 2852779 2834736 2813859 2789681 2763104 2735595 
3905.028 2709588 2686916 2669513 2658412 2653445 2653778 2658645 2666513 
3908.885 2676515 2687716 2699952 2712589 2725859 2739430 2753334 2767406 
3912.743 2781811 2796484 2811324 2825498 2837705 2846142 2849311 2846276 
3916.600 2837438 2824464 2809757 2795851 2784312 2775909 2770540 2768206 
3920.458 2768773 2772675 2780177 2790882 2803721 2816193 2825265 2828533 
3924.315 2824898 2815059 2801920 2789181 2779577 2774608 2774642 2778210 
3928.172 2784446 2792516 2802487 2815026 2830367 2847043 2862785 2874426 
3932.030 2878929 2874959 2863286 2846576 2828500 2812358 2799752 2790849 
3935.887 2784779 2780011 2775375 2771041 2767773 2766439 2768239 2772841 
3939.745 2779344 2786313 2792049 2794784 2794050 2789881 2783212 2775342 
3943.602 2768206 2763404 2761670 2763671 2768906 2776476 2785046 2793050 
3947.459 2799552 2804088 2806189 2806055 2803688 2798752 2791049 2780478 
3951.317 2767373 2753334 2740597 2731027 2726626 2727859 2734328 2744264 
3955.174 2755368 2765538 2772975 2777276 2778443 2777143 2774575 2771241 
3959.032 2767973 2765472 2763938 2763204 2763104 2763338 2763237 2763004 
3962.889 2763204 2764771 2768706 2775709 2785680 2797651 2810124 2821463 
3966.747 2830601 2837304 2842073 2846142 2850178 2854080 2857249 2858349 
3970.604 2856148 2850645 2842540 2833369 2825331 2820262 2819161 2822430 
3974.461 2829900 2840606 2853847 2868655 2883765 2897974 2910049 2918922 
3978.319 2924126 2925894 2925193 2923159 2921291 2919956 2919189 2918622 
3982.176 2917588 2916020 2914052 2912451 2911617 2911517 2911717 2911183 
3986.034 2909649 2907414 2904979 2903712 2904612 2907681 2911951 2915453 
3989.891 2915787 2911650 2902678 2890503 2877661 2867055 2860884 2860117 
3993.749 2864220 2871591 2880229 2888034 2893972 2897274 2898408 2897641 
3997.606 2895773 2893138 2889969 2886100 2881664 2876460 2870857 
##END=
