
##TITLE=Z408_3_a
##JCAMP-DX=5.01  $$ Nicolet v. 1
##DATATYPE=INFRARED SPECTRUM
##ORIGIN=UniL
##OWNER=Nicolet
##LONGDATE=2011/09/16
##TIME=10:52:37
##SPECTROMETER/DATA SYSTEM=Nicolet iS5
##DATA PROCESSING=
Ratio against background
%Transmittance->Absorbance
Truncated
ElementMultiply or ElementDivide
##COMMENTS=
Number of sample scans: 32
Collection length: 51.14 sec
Sample gain: 2.0
Background collected on: Ven Sep 16 10:46:28 2011 (GMT+02:00);
Number of background scans: 32
Background gain: 2.0
Sample spacing:  1.000
Number of scan points: 12415
Resolution points: 8192
Number of FFT points: 65536
Apodization: N-B fort;
Phase correction: Mertz;
Laser frequency: 15798.0 cm-1
Number of rejected sample scans: 0
Number of rejected background scans: 0
Bench serial number: ASB1000141;
##RESOLUTION=4.000
##XUNITS=1/CM
##YUNITS=ABSORBANCE
##FIRSTX=649.893372
##LASTX=4000.122314
##FIRSTY=0.095220
##MAXX=4000.122314
##MINX=649.893372
##MAXY=0.331073
##MINY=-0.002309
##XFACTOR=1.000000
##YFACTOR=1.000000E-009
##NPOINTS=6950
##DELTAX=0.482117
##ZPD=6100
##XYDATA=(X++(Y..Y))
649.893 95219704 95708624 96291464 97006984 97859344 98821616 99853696 
653.268 100932376 102065456 103290304 104649896 106169128 107838368 
656.161 109618656 111465632 113356752 115306616 117360424 119570280 
659.054 121962960 124530368 127236304 130047544 132961048 136015728 
661.946 139271600 142777456 146528160 150456048 154441600 158364128 
664.839 162140064 165716208 169063696 172122400 174745968 176704224 
667.732 177747824 177740704 176744784 174963136 172607872 169804736 
670.624 166593888 162974992 158962768 154632608 150123344 145592672 
673.517 141193152 137017552 133092168 129402664 125925392 122652600 
676.410 119600168 116792280 114243712 111945584 109867024 107966528 
679.302 106206992 104567512 103040800 101624640 100311584 99083152 97913936 
682.677 96781968 95678016 94609528 93595704 92657928 91807680 91042328 
686.052 90346928 89704248 89102336 88536936 88008784 87514184 87036952 
689.427 86547504 86007344 85379120 84641776 83793720 82852472 81844576 
692.802 80795176 79720360 78626088 77513376 76385952 75255072 74139240 
696.177 73059152 72030360 71061048 70150856 69296168 68493936 67746080 
699.551 67057548 66433036 65872728 65369300 64909316 64477340 64061372 
702.926 63655480 63260660 62882088 62525316 62191888 61879920 61583684 
706.301 61297756 61018728 60746508 60483452 60232808 59997108 59777732 
709.676 59576368 59396600 59245652 59135912 59082308 59098860 59194656 
713.051 59366820 59596056 59842604 60052576 60161560 60105620 59839336 
716.425 59342468 58629608 57748416 56778592 55820684 54975132 54342736 
719.800 54004948 54012680 54381788 55079652 56023632 57073156 58052196 
723.175 58775716 59069704 58825224 58016712 56714968 55064984 53256440 
726.550 51482444 49882880 48537588 47460860 46619464 45957224 45418548 
729.925 44965608 44575480 44236432 43940140 43674568 43425788 43182088 
733.300 42938048 42696520 42465504 42253784 42065092 41897204 41744304 
736.674 41601116 41466584 41344372 41239316 41153816 41084100 41021640 
740.049 40955728 40879348 40792824 40703512 40622080 40556196 40507492 
743.424 40470064 40435112 40394856 40347368 40297416 40252952 40220420 
746.799 40200356 40187268 40171968 40147288 40110912 40067232 40024288 
750.174 39989736 39966556 39952388 39941748 39929796 39915848 39903204 
753.548 39897504 39902736 39918352 39939968 39961580 39979744 39996532 
756.923 40018800 40055352 40112512 40191816 40290216 40403184 40528880 
760.298 40670144 40834212 41029108 41259104 41523456 41817264 42136864 
763.673 42485232 42875904 43330880 43880572 44556280 45385516 46390368 
767.048 47583288 48961860 50501596 52149652 53827096 55430924 56867604 
770.423 58083292 59096964 60012056 61002636 62270240 63954332 66071176 
773.797 68455416 70785344 72613072 73479584 73070480 71279984 68270888 
777.172 64402544 60168488 56053528 52420984 49502460 47363296 45945108 
780.547 45113400 44715680 44618696 44717556 44946504 45265840 45651072 
783.922 46090136 46578888 47122732 47733048 48423892 49207268 50089168 
787.297 51070988 52153056 53340464 54646324 56092360 57704060 59508800 
790.671 61530804 63790888 66311388 69117224 72235744 75693064 79501824 
794.046 83650200 88086376 92718640 97410336 101979544 106228024 109941240 
797.421 112911208 114978384 116045784 116111448 115271872 113722376 
800.314 111724352 109544248 107438712 105593200 104094000 102925304 
803.206 101973096 101061776 99981944 98559240 96695480 94393128 91759136 
806.581 88975072 86256704 83778008 81640192 79844312 78303008 76867248 
809.956 75373456 73699904 71783128 69632840 67312168 64915932 62539400 
813.331 60253972 58108896 56127952 54319040 52683616 51221616 49932876 
816.706 48815608 47865620 47075312 46434356 45932400 45558952 45304160 
820.081 45158728 45113436 45160236 45295148 45520204 45845196 46284860 
823.455 46857868 47580516 48462236 49503536 50694248 52013084 53425140 
826.830 54882072 56322440 57666484 58830120 59735112 60321276 60568088 
830.205 60501656 60198592 59768644 59343684 59059872 59026504 59320588 
833.580 59969036 60941896 62146808 63432908 64618960 65496312 65876856 
836.955 65634800 64720676 63184008 61153928 58822912 56393664 54044760 
840.329 51917592 50091140 48592764 47410524 46509548 45845820 45373304 
843.704 45052784 44849168 44732284 44680168 44677780 44718512 44802368 
847.079 44932944 45112552 45340572 45611948 45920356 46260868 46631968 
850.454 47035952 47476568 47956672 48475976 49031404 49618928 50236816 
853.829 50886880 51575004 52308432 53093272 53933888 54832444 55792952 
857.204 56823264 57936968 59153380 60495636 61985584 63646308 65499388 
860.578 67566072 69867920 72420592 75224304 78249048 81423760 84630992 
863.953 87698560 90430648 92624712 94093656 94710440 94417384 93240600 
867.328 91282416 88712960 85746784 82594760 79459568 76504328 73834240 
870.703 71511928 69556648 67958560 66691764 65724068 65024292 64561256 
874.078 64306400 64232788 64313628 64526692 64855412 65290504 65830432 
877.452 66477864 67236144 68104344 69074448 70129208 71245200 72392408 
880.827 73537552 74649912 75700128 76666136 77536656 78311816 79003816 
884.202 79632072 80219192 80783640 81335880 81879776 82416384 82949848 
887.577 83493808 84070848 84709464 85437560 86272104 87215088 88251544 
890.952 89355392 90493072 91630312 92738120 93789384 94758744 95621976 
894.327 96353592 96930016 97334248 97555440 97591696 97448360 97137832 
897.701 96679088 96098080 95431400 94721896 94016392 93361928 92793912 
901.076 92334496 91990408 91755528 91616440 91559448 91575528 91660832 
904.451 91815952 92042992 92344040 92720808 93175960 93715824 94350264 
907.826 95090296 95946592 96925008 98025616 99244728 100577536 102022464 
911.201 103582600 105264544 107075840 109021920 111104304 113323160 
914.093 115681752 118190568 120870520 123751640 126865176 130239800 
916.986 133893208 137827696 142027152 146453184 151044592 155701456 
919.879 160285680 164626464 168514576 171747088 174162304 175673632 
922.771 176309760 176222608 175689824 175053664 174697008 174994416 
925.664 176228928 178579712 182076720 186596640 191851936 197413424 
928.557 202790688 207428864 210809104 212528720 212302880 210019968 
931.450 205734112 199654272 192113104 183525504 174380704 165154672 
934.342 156278640 148124592 140942352 134881856 130004224 126297368 
937.235 123710184 122174456 121622432 121980904 123159728 125043048 
940.128 127458128 130175008 132935760 135449152 137450032 138744528 
943.020 139220048 138875856 137809024 136202944 134278656 132257920 
945.913 130343304 128675016 127332880 126342000 125684368 125318976 
948.806 125197736 125280632 125536352 125941200 126476704 127123160 
951.698 127860008 128669304 129536808 130455000 131422280 132438168 
954.591 133499760 134599168 135724688 136864592 138012176 139167872 
957.484 140337952 141530048 142748368 143989728 145245328 146504384 
960.377 147760640 149014656 150274256 151548896 152844672 154160768 
963.269 155489600 156821056 158148464 159472240 160799552 162140096 
966.162 163500416 164880144 166272976 167670336 169067856 170468416 
969.055 171881584 173319456 174790672 176296640 177832608 179392304 
971.947 180973616 182582640 184231392 185933744 187698784 189526544 
974.840 191408672 193334000 195294800 197290368 199326272 201408576 
977.733 203537216 205702400 207885760 210064976 212221552 214345056 
980.625 216430624 218474272 220466416 222388480 224217840 225934512 
983.518 227530080 229012256 230402656 231729184 233014512 234273280 
986.411 235512064 236734592 237950160 239176624 240435936 241749344 
989.304 243126784 244564944 246049024 247562128 249094336 250646112 
992.196 252226688 253845536 255504432 257194016 258896144 260592816 
995.089 262276560 263952320 265635632 267341584 269076704 270833376 
997.982 272594752 274342688 276069024 277779584 279491328 281222592 
1000.874 282982784 284768448 286566912 288366144 290164096 291972544 
1003.767 293812320 295703264 297652096 299649120 301671776 303697952 
1006.660 305715360 307727296 309747392 311787744 313846752 315904160 
1009.552 317924288 319867776 321706240 323424608 325018496 326482752 
1012.445 327800000 328937856 329857440 330524416 330925952 331073440 
1015.338 330998560 330737248 330316544 329750304 329041088 328192064 
1018.231 327217120 326141888 324999104 323817344 322610080 321377760 
1021.123 320115904 318828896 317541216 316298816 315155040 314160544 
1024.016 313345056 312711584 312242272 311909376 311687232 311553152 
1026.909 311485376 311452192 311399680 311256704 310940064 310366208 
1029.802 309471904 308213600 306565024 304510464 302035360 299127456 
1032.695 295786336 292033408 287919648 283516864 278911456 274182080 
1035.588 269384320 264552384 259700976 254837936 249975360 245134144 
1038.481 240342128 235631552 231032064 226571856 222281728 218193440 
1041.374 214340096 210747344 207419168 204327952 201408160 198570592 
1044.267 195710048 192732416 189579600 186233536 182720848 179097984 
1047.160 175442672 171834832 168343968 165031824 161942528 159103264 
1050.053 156524624 154199328 152104352 150204768 148462800 146844416 
1052.947 145323072 143883664 142517600 141218000 139975616 138776400 
1055.840 137602976 136439728 135274160 134099216 132910344 131702320 
1058.733 130466640 129192488 127868904 126491336 125064176 123602272 
1061.626 122126912 120660368 119222464 117826120 116479224 115187336 
1064.519 113955224 112788200 111689640 110657424 109681568 108743096 
1067.412 107819168 106886400 105927432 104935720 103914488 102875920 
1070.305 101835792 100812664 99824216 98886640 98015984 97225608 96524832 
1073.680 95918040 95402512 94969760 94606280 94297848 94030128 93788520 
1077.055 93558424 93322080 93057344 92741976 92355720 91887016 91337280 
1080.431 90722200 90069592 89411240 88782016 88212328 87726664 87347304 
1083.806 87093272 86982296 87031728 87255592 87663608 88261080 89049008 
1087.181 90025400 91184832 92517360 94002768 95604184 97268168 98920056 
1090.556 100470696 101836720 102944072 103746872 104235048 104433104 
1093.449 104395944 104195072 103915752 103640600 103440424 103375256 
1096.343 103485120 103790888 104296296 104988416 105839864 106807040 
1099.236 107834888 108852112 109769528 110493168 110922856 110967768 
1102.129 110567576 109697304 108378368 106670368 104666296 102474040 
1105.022 100194592 97922864 95733192 93675744 91783944 90071512 88536648 
1108.397 87164296 85930000 84803832 83752776 82748352 81766736 80789352 
1111.772 79804816 78804344 77782040 76735088 75664312 74575592 73479936 
1115.147 72392872 71331408 70310200 69340984 68430744 67582648 66798060 
1118.523 66077808 65423116 64834676 64311972 63852332 63450472 63099324 
1121.898 62790416 62512764 62252992 61992152 61703668 61356864 60917648 
1125.273 60354856 59649044 58795328 57807080 56711644 55548504 54360196 
1128.648 53184080 52052264 50985724 49994920 49081704 48241016 47463448 
1132.024 46736708 46048576 45388316 44748076 44124844 43519576 42937096 
1135.399 42383484 41864840 41386028 40950084 40558816 40213876 39917300 
1138.774 39671348 39478584 39339920 39255548 39223996 39243580 39312568 
1142.149 39430072 39595736 39808632 40066436 40365040 40698276 41059808 
1145.525 41443472 41843932 42256668 42676668 43097444 43511372 43909820 
1148.900 44285376 44634228 44956276 45255432 45537020 45807156 46070464 
1152.275 46329944 46587812 46846756 47109992 47381180 47663452 47957928 
1155.650 48262456 48572532 48881976 49183628 49471044 49737660 49975956 
1159.026 50178200 50334620 50435388 50471744 50436948 50326696 50138852 
1162.401 49872328 49526336 49100628 48595732 48014804 47363888 46652256 
1165.776 45890932 45091416 44265052 43421832 42570928 41722196 40885536 
1169.151 40071812 39291708 38553956 37864848 37227948 36644532 36114980 
1172.527 35640156 35221836 34863160 34567304 34336912 34172884 34075464 
1175.902 34044396 34080700 34186652 34366180 34624108 34965096 35392984 
1179.277 35911728 36525580 37240688 38065216 39008160 40078024 41281768 
1182.652 42623192 44103648 45723032 47480560 49372952 51392588 53524336 
1186.028 55740248 57997704 60244152 62413020 64433208 66236012 67752472 
1189.403 68924144 69706552 70071072 70012432 69548752 68723424 67595496 
1192.778 66235976 64721176 63118324 61486176 59869644 58295748 56778440 
1196.153 55318420 53908604 52537192 51193504 49871248 48571380 47302664 
1199.529 46079560 44920448 43843180 42861204 41982964 41210428 40540484 
1202.904 39965868 39478040 39067100 38721824 38430064 38177428 37947536 
1206.279 37725032 37495816 37249460 36981024 36689816 36379168 36054416 
1209.654 35722428 35390936 35068540 34765152 34491932 34259680 34079156 
1213.030 33959004 33905408 33922892 34015044 34185252 34437476 34775308 
1216.405 35201356 35716132 36318072 37003680 37769344 38612908 39533492 
1219.780 40532080 41609540 42766164 44001332 45314200 46705608 48178744 
1223.155 49739292 51393820 53147680 55001872 56951348 58985284 61086720 
1226.531 63231720 65391064 67527904 69595776 71544080 73318288 74865008 
1229.906 76142032 77118736 77780768 78130912 78189696 77996824 77607336 
1233.281 77097840 76559808 76089008 75788920 75753688 76061336 76777120 
1236.656 77945952 79595816 81741168 84382200 87504664 91074072 95036896 
1240.031 99314320 103801448 108383344 112930464 117307632 121390568 
1242.925 125055208 128187480 130695120 132504520 133573424 133893696 
1245.818 133488360 132407336 130716832 128501344 125853272 122869136 
1248.711 119650448 116284464 112835712 109336936 105781696 102130592 
1251.604 98322496 94300696 90027232 85501664 80764208 75895328 71004264 
1254.979 66203788 61607584 57309848 53371748 49827172 46678192 43903848 
1258.354 41465636 39318116 37415848 35714944 34179948 32783550 31504762 
1261.729 30329876 29248886 28253280 27335494 26487398 25700888 24969072 
1265.105 24287466 23653674 23067448 22528950 22037512 21591166 21186468 
1268.480 20820208 20490416 20197144 19942334 19728032 19555874 19425260 
1271.855 19334246 19280102 19261260 19277920 19332304 19427478 19565926 
1275.230 19748420 19973418 20236440 20530362 20845238 21166916 21476890 
1278.606 21755282 21980382 22134812 22208806 22202320 22124318 21989340 
1281.981 21813568 21609412 21383288 21136650 20867834 20576462 20266190 
1285.356 19944796 19624056 19316958 19034554 18785302 18574682 18405642 
1288.731 18279520 18196416 18154436 18149392 18174338 18221986 18285016 
1292.107 18358978 18443392 18540550 18654228 18787758 18942546 19118856 
1295.482 19316680 19537366 19784310 20062902 20378862 20736580 21138390 
1298.857 21585488 22078230 22617844 23205488 23840868 24518056 25223618 
1302.232 25937154 26630618 27273642 27839750 28307422 28664372 28908062 
1305.608 29044430 29086696 29053570 28969688 28861248 28754036 28671486 
1308.983 28629298 28634642 28686284 28776376 28893968 29027674 29168828 
1312.358 29310702 29447550 29573978 29683412 29768994 29825172 29848204 
1315.733 29837096 29792700 29716446 29609626 29473152 29308964 29121276 
1319.109 28917022 28705858 28497590 28300314 28118716 27953980 27805556 
1322.484 27673954 27562624 27478854 27432720 27434556 27493608 27616748 
1325.859 27808768 28073610 28414522 28832742 29323994 29875640 30465980 
1329.234 31063246 31632714 32142986 32570030 32903016 33143376 33302828 
1332.610 33397824 33446562 33466712 33472866 33478376 33495198 33532746 
1335.985 33598608 33697248 33831116 34002360 34215076 34476720 34798428 
1339.360 35191980 35665768 36221860 36854728 37552096 38296288 39067428 
1342.735 39843716 40598944 41305196 41933516 42456188 42854292 43119328 
1346.111 43254300 43270444 43181976 43000488 42730188 42368436 41907056 
1349.486 41338724 40660648 39878688 39007616 38071004 37097572 36116492 
1352.861 35158492 34250896 33417538 32679186 32050588 31539246 31145184 
1356.236 30861564 30676724 30578094 30555448 30601452 30710684 30878070 
1359.612 31096702 31357788 31653528 31980250 32341588 32748390 33216622 
1362.987 33760736 34387480 35094620 35871604 36703160 37570884 38455948 
1366.362 39335312 40177640 40944700 41590652 42066004 42329460 42350208 
1369.737 42113208 41618804 40880876 39924964 38783696 37502928 36139932 
1373.113 34759552 33436540 32240652 31222936 30409828 29798840 29368342 
1376.488 29088822 28938238 28908736 29009892 29265224 29708392 30380510 
1379.863 31322212 32572210 34158404 36083292 38305340 40720584 43171912 
1383.238 45443308 47294868 48510732 48903408 48356888 46846016 44461788 
1386.614 41415296 38000768 34559736 31377982 28635704 26403800 24658382 
1389.989 23324974 22310610 21531972 20921062 20426508 20015538 19667424 
1393.364 19372942 19132084 18950438 18834572 18787274 18805196 18879212 
1396.739 18998134 19149778 19323194 19509538 19700848 19891168 20076540 
1400.115 20255012 20426090 20589524 20743810 20886572 21015054 21127814 
1403.490 21227140 21318934 21412248 21514840 21631108 21759602 21894892 
1406.865 22031028 22165044 22299658 22442794 22604092 22791604 23008786 
1410.240 23253972 23522030 23808318 24111706 24434764 24782688 25160028 
1413.615 25567184 26000680 26455386 26926856 27414614 27923978 28463978 
1416.991 29046238 29681322 30376638 31133580 31944084 32791768 33652456 
1420.366 34497632 35299136 36033500 36687652 37261120 37772780 38260032 
1423.741 38777644 39380332 40109132 40982492 41995192 43129900 44368084 
1427.116 45699692 47118780 48616516 50174408 51757240 53318436 54813952 
1430.492 56212948 57508120 58713164 59857932 60976100 62097876 63250004 
1433.867 64459576 65760760 67201560 68841168 70736328 72922784 75387136 
1437.242 78071336 80894640 83778776 86656824 89460384 92113112 94504984 
1440.617 96497440 97954000 98746528 98787256 98042600 96527232 94299000 
1443.993 91444216 88079560 84334512 80337312 76222784 72116800 68141280 
1447.368 64424568 61080736 58193296 55794308 53857740 52314788 51080900 
1450.743 50089804 49307136 48734160 48392220 48303672 48472088 48878828 
1454.118 49485304 50246488 51126372 52095296 53134688 54229424 55364300 
1457.494 56520112 57677608 58826968 59963632 61086952 62197316 63293584 
1460.869 64371036 65416836 66411340 67320480 68093728 68674056 69005008 
1464.244 69054488 68831768 68391264 67813280 67171864 66521808 65889508 
1467.619 65281228 64694828 64122936 63552984 62961564 62310972 61551724 
1470.995 60634180 59535324 58283548 56970728 55721864 54651848 53826008 
1474.370 53251424 52901008 52740852 52751404 52932784 53298508 53860776 
1477.745 54620924 55564696 56668528 57906148 59259364 60723760 62307068 
1481.120 64025356 65894948 67927640 70128504 72500968 75053416 77804000 
1484.496 80778496 83997792 87463768 91133168 94895832 98581896 101949000 
1487.871 104706944 106568464 107268032 106630848 104627336 101397512 
1490.764 97231824 92483208 87497488 82524232 77695848 73066128 68627720 
1494.139 64358696 60264212 56386760 52813740 49659976 47026572 44969248 
1497.514 43483500 42522692 42018408 41903300 42124160 42636532 43401032 
1500.890 44379976 45529552 46801176 48145388 49499564 50789812 51925952 
1504.265 52776024 53170488 52909320 51806924 49793132 46996188 43726676 
1507.640 40327628 37035684 33939084 31025770 28253208 25592766 23041104 
1511.015 20626110 18389604 16365305 14572854 13009841 11656768 10486336 
1514.391 9470399 8583344 7800908 7102321 6473156 5906363 5405120 4976911 
1518.248 4626408 4347904 4123261 3923008 3717835 3489410 3243812 3010765 
1522.105 2828366 2719957 2682149 2689417 2708388 2712555 2689384 2644377 
1525.963 2595675 2564144 2560677 2581642 2612575 2638310 2651011 2652878 
1529.820 2652878 2659912 2675681 2693018 2697485 2675581 2624642 2557844 
1533.678 2501387 2479360 2501987 2559244 2630509 2691851 2725125 2722491 
1537.535 2684616 2619842 2538014 2448470 2356113 2264908 2183246 2124640 
1541.393 2101966 2119013 2166563 2224908 2270836 2288557 2274734 2241393 
1545.250 2207890 2192670 2203460 2234899 2272502 2301148 2312407 2307410 
1549.107 2296884 2293853 2307110 2334226 2363975 2380400 2372004 2335592 
1552.965 2278164 2213051 2154342 2110889 2081956 2059351 2031120 1987081 
1556.822 1918983 1822413 1697988 1555376 1417133 1312831 1267335 1287274 
1560.680 1361621 1470290 1591025 1704574 1794664 1852693 1879114 1883740 
1564.537 1882076 1889198 1913292 1951566 1993139 2024396 2036413 2027658 
1568.395 2006187 1985816 1981189 2001594 2047699 2115018 2197166 2290222 
1572.252 2391494 2498155 2604908 2703020 2783112 2839472 2875993 2909015 
1576.109 2962723 3059981 3208495 3401640 3623871 3861928 4109581 4368386 
1579.967 4645598 4949965 5287178 5658522 6060592 6487584 6934053 7393181 
1583.824 7855426 8306479 8724801 9085496 9366989 9554966 9649307 9664147 
1587.682 9627152 9573258 9540199 9565602 9679833 9907437 10264570 10755696 
1591.539 11370012 12076457 12826710 13552828 14178338 14634707 14865779 
1594.914 14842465 14566138 14068360 13403296 12634241 11828884 11044935 
1598.290 10326795 9707989 9208468 8837357 8594902 8474131 8465144 8558099 
1602.147 8746403 9026865 9396580 9850084 10375524 10953281 11559233 12164567 
1606.004 12738500 13252041 13674164 13976065 14134111 14130585 13959162 
1609.380 13625475 13147864 12556267 11887895 11186958 10493430 9838730 
1612.755 9242415 8709216 8232858 7800436 7398135 7014491 6646225 6300492 
1616.612 5993868 5745675 5569810 5469036 5434544 5450648 5497390 5555278 
1620.470 5609079 5648587 5672655 5689105 5713209 5761389 5844230 5962794 
1624.327 6108911 6270741 6438147 6606122 6773927 6942773 7112661 7281133 
1628.185 7443367 7594974 7734119 7862613 7983991 8101418 8214927 8320597 
1632.042 8410379 8474368 8503290 8489335 8429129 8325865 8191291 8044641 
1635.899 7908433 7800807 7729093 7689767 7671589 7660764 7643126 7606944 
1639.757 7545714 7459007 7353110 7238107 7124315 7017859 6917725 6816873 
1643.614 6703796 6566460 6395743 6189365 5953993 5706528 5470009 5268363 
1647.472 5119008 5028428 4992496 4999434 5033490 5075459 5101742 5086120 
1651.329 4998596 4816299 4540485 4217768 3930932 3750286 3695077 3735915 
1655.187 3827763 3931635 4023357 4091920 4133965 4151762 4149119 4130152 
1659.044 4096971 4050547 3991087 3918562 3833713 3738956 3638372 3538145 
1662.901 3446391 3370684 3317227 3288247 3281269 3289549 3303070 3310783 
1666.759 3301367 3266647 3203154 3114274 3009798 2903545 2809857 2738729 
1670.616 2694118 2674047 2672614 2681315 2689050 2684616 2656778 2597709 
1674.474 2507953 2399324 2293120 2210087 2162566 2148648 2155940 2167628 
1678.331 2169027 2153343 2121910 2082888 2046067 2017272 1993205 1961451 
1682.188 1903607 1802449 1652619 1470623 1292691 1161508 1100283 1103903 
1686.046 1148651 1207291 1260124 1295283 1308710 1301664 1278335 1244274 
1689.903 1205597 1169415 1142106 1128386 1129515 1141608 1155362 1156724 
1693.761 1131210 1068394 969257 849758 739319 666638 643674 661660 696007 
1698.100 719339 706495 644338 538032 416097 319297 277420 295755 356867 
1702.440 435997 510464 565435 593936 596059 578872 553558 532757 524729 
1706.780 532094 551866 578209 604852 627913 646395 662357 679514 700853 
1711.119 727669 758536 790369 819016 841856 858290 869611 877579 882593 
1715.459 882061 871603 847234 810219 769125 738788 734373 763548 824461 
1719.798 906797 997883 1085501 1161408 1222875 1271423 1311535 1348326 
1723.656 1385686 1425244 1466766 1509091 1550987 1591856 1630734 1665324 
1727.513 1692733 1709464 1713556 1705839 1689972 1670846 1651654 1630900 
1731.371 1601534 1550621 1464007 1333171 1162471 975301 806568 689104 634715 
1735.710 633753 663784 701218 728200 733411 713829 673441 623068 575322 
1740.050 541548 527814 534515 558103 593040 634582 679082 724184 769125 
1744.389 814004 859485 906000 952985 998880 1041358 1077662 1105863 1125330 
1748.729 1136425 1141076 1141076 1138884 1137023 1138784 1147920 1167322 
1752.586 1197722 1236731 1278867 1315755 1338356 1339585 1316154 1271855 
1756.444 1215465 1159714 1114965 1085003 1066700 1051455 1029866 994396 
1760.301 942326 877347 807431 742903 692091 659603 645002 644869 653497 
1764.641 665244 674370 675465 665012 641418 606876 567526 531132 504195 
1768.980 488338 479614 469199 448137 410326 357597 300099 254676 235547 
1773.320 249372 292208 353617 422067 488637 549710 605383 657678 707789 
1777.660 754786 795182 825656 844114 852447 854970 858257 867353 883456 
1781.999 903908 924063 938773 945381 944285 938773 933294 932132 937312 
1786.339 949499 967696 990743 1016747 1043317 1066933 1082511 1084571 
1790.196 1068627 1033519 983005 925723 873529 836179 818817 819780 833225 
1794.536 851517 868549 880700 886676 886245 879936 867719 849857 826585 
1798.875 799132 770154 742405 718907 701317 690631 686483 688441 695974 
1803.215 708951 726872 748546 772145 795514 816825 835383 852181 868482 
1807.555 885747 904141 922602 938873 951690 960357 966368 972777 982939 
1811.894 998714 1020400 1046406 1074340 1102110 1129183 1155661 1183037 
1815.752 1212574 1245171 1280329 1317351 1354941 1391836 1427006 1459419 
1819.609 1488510 1513912 1535824 1554911 1572302 1588564 1603330 1615036 
1823.467 1621588 1621388 1614670 1604660 1596013 1593319 1598507 1609815 
1827.324 1621987 1628206 1623317 1605924 1581248 1559067 1549923 1561761 
1831.181 1595681 1646698 1705839 1764754 1818154 1864206 1904606 1942846 
1835.039 1982354 2024729 2070437 2119213 2171391 2228571 2293486 2368572 
1838.896 2455301 2552845 2658745 2768640 2878295 2983841 3081971 3170945 
1842.754 3250856 3324973 3399903 3483431 3583912 3705603 3846918 4001052 
1846.611 4157616 4305201 4433756 4537304 4613750 4664420 4692420 4700526 
1850.469 4689540 4658760 4606751 4533219 4440384 4333145 4217568 4098978 
1854.326 3980888 3864401 3749016 3633661 3518503 3404645 3293722 3186432 
1858.183 3082472 2980038 2877694 2775042 2673814 2576543 2486391 2404621 
1862.041 2330595 2262043 2197066 2135062 2078127 2029589 1992074 1965578 
1865.898 1946407 1927935 1903341 1868066 1823511 1776199 1735844 1711227 
1869.756 1706969 1721473 1748918 1781588 1813595 1841080 1862176 1876219 
1873.613 1882908 1881643 1871893 1854423 1831064 1804246 1776232 1747621 
1877.470 1717149 1681756 1638616 1586037 1525150 1458920 1391204 1324961 
1881.328 1261719 1200613 1140977 1082544 1027375 978688 940201 913637 897998 
1885.667 889565 882991 873728 859319 839632 816792 793456 772411 755947 
1890.007 745924 744463 753823 775365 808892 851683 898530 943389 981478 
1894.347 1010736 1032822 1052185 1073377 1099253 1129217 1160345 1188552 
1898.204 1211445 1228822 1243310 1257532 1273815 1292758 1313063 1333038 
1902.062 1352415 1372225 1394927 1422053 1453501 1486648 1517104 1541576 
1905.919 1558136 1567713 1573333 1577956 1583443 1588763 1591889 1590726 
1909.776 1585471 1578055 1572336 1572003 1578521 1591424 1607786 1624648 
1913.634 1640246 1653716 1664992 1672176 1672276 1660368 1632596 1589029 
1917.491 1534527 1479068 1434053 1406163 1395526 1394961 1393431 1380368 
1921.349 1350520 1305852 1255040 1209418 1178219 1165196 1167687 1178817 
1925.206 1191542 1201178 1206760 1209750 1212043 1213970 1214967 1213837 
1929.063 1210880 1208554 1211145 1221678 1240685 1265175 1287806 1301564 
1932.921 1301398 1286610 1260855 1229852 1199616 1174133 1153933 1139116 
1936.778 1128951 1124200 1126260 1135429 1150146 1165694 1176492 1177555 
1940.636 1166956 1147189 1124134 1104368 1092775 1090350 1095167 1104269 
1944.493 1116327 1132572 1155262 1186559 1225367 1267236 1304655 1331376 
1948.351 1344504 1346066 1341945 1339286 1343839 1357699 1378839 1403371 
1952.208 1427870 1450576 1470756 1488975 1503605 1512216 1511485 1499515 
1956.065 1476607 1445622 1411415 1377543 1345800 1315423 1284948 1254110 
1959.923 1225965 1206461 1200480 1210979 1235136 1265009 1290996 1305021 
1963.780 1304057 1291395 1272553 1254342 1240718 1230849 1222044 1212441 
1967.638 1203271 1198520 1203071 1219054 1243543 1269628 1289102 1297078 
1971.495 1294253 1287640 1286975 1299537 1327288 1366541 1411315 1458455 
1975.353 1510853 1577257 1667021 1784649 1924275 2067873 2192137 2277098 
1979.210 2310941 2295452 2241227 2165064 2082755 2003624 1932295 1869198 
1983.067 1813063 1763623 1722138 1689972 1667320 1652519 1642375 1634160 
1986.925 1626942 1621555 1619792 1622419 1628339 1634625 1638716 1639581 
1990.782 1639548 1642707 1653982 1675270 1704841 1736376 1763822 1782653 
1994.640 1792268 1795994 1798889 1804545 1813063 1821714 1825441 1821315 
1998.497 1809569 1793665 1778893 1769312 1765719 1764687 1761660 1751047 
2002.354 1730821 1702046 1668019 1632530 1598541 1568345 1542674 1523754 
2006.212 1514544 1516705 1530969 1552450 1573699 1585006 1580017 1558602 
2010.069 1527910 1498351 1481993 1486548 1511385 1550388 1593419 1632364 
2013.927 1662497 1684151 1700317 1714321 1727893 1741433 1755405 1771873 
2017.784 1795495 1830964 1879913 1939617 2001893 2056754 2096605 2119646 
2021.642 2131466 2141056 2157772 2185744 2220545 2252917 2272602 2273535 
2025.499 2257514 2232035 2208589 2196633 2198831 2212885 2233367 2254949 
2029.356 2276066 2299515 2328663 2366773 2413717 2465464 2518017 2569243 
2033.214 2620342 2674514 2734995 2801920 2871491 2937970 2996085 3043964 
2037.071 3083239 3118679 3153289 3188234 3219477 3242010 3252325 3250789 
2040.929 3242811 3236669 3239973 3255830 3281503 3310015 3332452 3343804 
2044.786 3342569 3332752 3320231 3311150 3309247 3316559 3332953 3357762 
2048.644 3389618 3425351 3459884 3485802 3495155 3483531 3451401 3405814 
2052.501 3357762 3320031 3301034 3302436 3318028 3336893 3348112 3344405 
2056.358 3325340 3296360 3266079 3240608 3223383 3213669 3208962 3206659 
2060.216 3206225 3209563 3218409 3233531 3252659 3271487 3285476 3291685 
2064.073 3290116 3282872 3272756 3261839 3250155 3236535 3220412 3202887 
2067.931 3186999 3176786 3175350 3182059 3193675 3204723 3210264 3208262 
2071.788 3199983 3189769 3181992 3178388 3177486 3175484 3167941 3152988 
2075.646 3131795 3108267 3087377 3072694 3064085 3059147 3054041 3046333 
2079.503 3036023 3025412 3018573 3018739 3027214 3042730 3062951 3084641 
2083.360 3105564 3124320 3139671 3150218 3154123 3149217 3134832 3111872 
2087.218 3083039 3052473 3023477 2997520 2973532 2948979 2921391 2889068 
2091.075 2853580 2817894 2786647 2763304 2750866 2749833 2760403 2781778 
2094.933 2812758 2851846 2895773 2940338 2980371 3011699 3032319 3043397 
2098.790 3048736 3053274 3060448 3071993 3086643 3101927 3115943 3127957 
2102.647 3140239 3155558 3176085 3202020 3231361 3261038 3288447 3312886 
2106.505 3335657 3359431 3386746 3417770 3450967 3483698 3513793 3540851 
2110.362 3566874 3595104 3628782 3669380 3715796 3765225 3814593 3861326 
2114.220 3904519 3944875 3982526 4017839 4049978 4078173 4102556 4124064 
2118.077 4145439 4169492 4198130 4231453 4268225 4306005 4342817 4377524 
2121.935 4410191 4440652 4468202 4490934 4506334 4512863 4511390 4505832 
2125.792 4501781 4505196 4519692 4545138 4577551 4610703 4638766 4658224 
2129.649 4668874 4672994 4673865 4674535 4676511 4680999 4689339 4704076 
2133.507 4728428 4764874 4813451 4870645 4929891 4984285 5027657 5058831 
2137.364 5079046 5092657 5103217 5113141 5121188 5125177 5123836 5117198 
2141.222 5106872 5095573 5084510 5072207 5056150 5033490 5003624 4970107 
2145.079 4938637 4915346 4903149 4899697 4898424 4890750 4870041 4835195 
2148.937 4790837 4743837 4701229 4665693 4634915 4602967 4562717 4510552 
2152.794 4446644 4374444 4298141 4220613 4142930 4065898 3993561 3936048 
2156.651 3908130 3928291 4009412 4153334 4347603 4568510 4786850 4978352 
2160.509 5129334 5236167 5304787 5343897 5362415 5367614 5364327 5356880 
2164.366 5348627 5340912 5333398 5322866 5303781 5270442 5218359 5147641 
2168.224 5061815 4967292 4869807 4774656 4683611 4596203 4510854 4426995 
2172.081 4345963 4270768 4205222 4152966 4115869 4094061 4085899 4087639 
2175.938 4094428 4099813 4095900 4076267 4037303 3980721 3913647 3848756 
2179.796 3800153 3778929 3789691 3828332 3884727 3944039 3994030 4027270 
2183.653 4041751 4040079 4027471 4007339 3982961 3955642 3927923 3902714 
2187.511 3884594 3877707 3883490 3900808 3925115 3951128 3974534 3992959 
2191.368 4007372 4019712 4032053 4045229 4058239 4069443 4078039 4084628 
2195.226 4090414 4096703 4104028 4111253 4115936 4116404 4112190 4104898 
2199.083 4097138 4090984 4086367 4080380 4069109 4048574 4017304 3976975 
2202.940 3932136 3888538 3850461 3819774 3796243 3777859 3763554 3753327 
2206.798 3748213 3749751 3757906 3771108 3786917 3802526 3817367 3832911 
2210.655 3851999 3877439 3910404 3949623 3991622 4032588 4069845 4103058 
2214.513 4133029 4160493 4184647 4202947 4211579 4207497 4189699 4161330 
2218.370 4128011 4095933 4070548 4054493 4047169 4046233 4048808 4053590 
2222.228 4060012 4067972 4077203 4085732 4091318 4091786 4086669 4077538 
2226.085 4067437 4059945 4056801 4057938 4060681 4062253 4059912 4052988 
2229.942 4041985 4029411 4016669 4005165 3995267 3987408 3982593 3982426 
2233.800 3988946 4002089 4020615 4040246 4056166 4064427 4063490 4055062 
2237.657 4043925 4035631 4034828 4043290 4059778 4081384 4104831 4127175 
2241.515 4147848 4167050 4185550 4203449 4220411 4235568 4248216 4258588 
2245.372 4267656 4276959 4287801 4300784 4315709 4331672 4347502 4362161 
2249.229 4374712 4384552 4390945 4393924 4393890 4392920 4394158 4400585 
2253.087 4414743 4436802 4464051 4491603 4513666 4525518 4524681 4511758 
2256.944 4489628 4462545 4434024 4406576 4381473 4359216 4340273 4325749 
2260.802 4316379 4313400 4316512 4325180 4337696 4353024 4370729 4391246 
2264.659 4415011 4441857 4470345 4497060 4518655 4531746 4534726 4528498 
2268.517 4515675 4499772 4483903 4470111 4458762 4449087 4439882 4430375 
2272.374 4419965 4408919 4398777 4390644 4386862 4388803 4398308 4415480 
2276.231 4439614 4468002 4496960 4522806 4542694 4555987 4564124 4570352 
2280.089 4577886 4589271 4605411 4624533 4644627 4663315 4679491 4692655 
2283.946 4703071 4710909 4715699 4715699 4710072 4698348 4681702 4662444 
2287.804 4644225 4630327 4622859 4622021 4626978 4635819 4647038 4659363 
2291.661 4672626 4686258 4700090 4713187 4724308 4732883 4738745 4742698 
2295.519 4746315 4751240 4758509 4768023 4779078 4790334 4800385 4808191 
2299.376 4813484 4816399 4817270 4816533 4814657 4812177 4809363 4806817 
2303.233 4804807 4803266 4802563 4802563 4803601 4806281 4811507 4819950 
2307.091 4832112 4847123 4863843 4880563 4895877 4909214 4921445 4934180 
2310.948 4949194 4967828 4990016 5014618 5039758 5063424 5084041 5101574 
2314.806 5116460 5129904 5143182 5156627 5170240 5183921 5196596 5208232 
2318.663 5218762 5228956 5239722 5252566 5268497 5287681 5308745 5328870 
2322.521 5343160 5346045 5332795 5300091 5248072 5180199 5103150 5024573 
2326.378 4952210 4892258 4847592 4818577 4802998 4797738 4799078 4804305 
2330.235 4811374 4819180 4826953 4834559 4842365 4851009 4862201 4877112 
2334.093 4896614 4920507 4947384 4974900 5000741 5023467 5042942 5060374 
2337.950 5077940 5097451 5119981 5145462 5172554 5200084 5226039 5249816 
2341.808 5270408 5287178 5299051 5304820 5303814 5296267 5284059 5271247 
2345.665 5262728 5264304 5280705 5315118 5368285 5439073 5524403 5620088 
2349.522 5721132 5822335 5918623 6006264 6082969 6148430 6203952 6252051 
2353.380 6295248 6335120 6372441 6407142 6439593 6470466 6501509 6534437 
2357.237 6570800 6610899 6654199 6699253 6745220 6791764 6839593 6889816 
2361.095 6942571 6996948 7050759 7101277 7145939 7184239 7216984 7246564 
2364.952 7275506 7305091 7335216 7364399 7390282 7410842 7425470 7434604 
2368.810 7439390 7440941 7439795 7435918 7428975 7418931 7406662 7393888 
2372.667 7383306 7377408 7378453 7388058 7407134 7436289 7475424 7524709 
2376.524 7584083 7653311 7732061 7820002 7916599 8021217 8133186 8251397 
2380.382 8374201 8499573 8625422 8749920 8871715 8990025 9104680 9215034 
2384.239 9320608 9419707 9510429 9590669 9659133 9715375 9759800 9793553 
2388.097 9818021 9833883 9841476 9840763 9831273 9812972 9786199 9751294 
2391.954 9709006 9660047 9605539 9547109 9486654 9427258 9371559 9322199 
2395.812 9280664 9247323 9221396 9201902 9188061 9180074 9179092 9186876 
2399.669 9204880 9234055 9274096 9324501 9384121 9452485 9529903 9617057 
2403.526 9714868 9823749 9943337 10072690 10210291 10354790 10505243 
2406.902 10661114 10821865 10987161 11156803 11330490 11508364 11690872 
2410.277 11878428 12071108 12267997 12467056 12664977 12857425 13040228 
2413.652 13210059 13363931 13500768 13619560 13720568 13804086 13870481 
2417.027 13921183 13957314 13980547 13992489 13994508 13987835 13973156 
2420.403 13951326 13923270 13890221 13853548 13814724 13774706 13734657 
2423.778 13695297 13657273 13621851 13591287 13568040 13555151 13555357 
2427.153 13570843 13603081 13652760 13720123 13804702 13906198 14023664 
2430.528 14156361 14303172 14463016 14635118 14819047 15014785 15222108 
2433.904 15440824 15670197 15909452 16157744 16414680 16680408 16955708 
2437.279 17241452 17538150 17845856 18163974 18491830 18828726 19175196 
2440.654 19532098 19900742 20282404 20677260 21084716 21503490 21932356 
2444.029 22370052 22816258 23271066 23734890 24207514 24688366 25176392 
2447.405 25669814 26166366 26664014 27160190 27651884 28136462 28611284 
2450.780 29074260 29524430 29961188 30384490 30793978 31188080 31564940 
2454.155 31920976 32252286 32555278 32825750 33059630 33252858 33401080 
2457.530 33500816 33549208 33544988 33488434 33380792 33223812 33018656 
2460.906 32766004 32465864 32119118 31727344 31294610 30826204 30328740 
2464.281 29809804 29275468 28731946 28185038 27640266 27103934 26583026 
2467.656 26084342 25614628 25179058 24781704 24424774 24109570 23836422 
2471.031 23605216 23414732 23263094 23146564 23060706 23000296 22960052 
2474.406 22935634 22924352 22924142 22933432 22950272 22971720 22994322 
2477.782 23014376 23029050 23036842 23037400 23031496 23019024 22999806 
2481.157 22972872 22936264 22888794 22830400 22762062 22686230 22605696 
2484.532 22523052 22440108 22357946 22276988 22197508 22119438 22043124 
2487.907 21968078 21893604 21819246 21743404 21665520 21585768 21504362 
2491.283 21422412 21340374 21258002 21173978 21086178 20991894 20889146 
2494.658 20776446 20652866 20518830 20374626 20220854 20058182 19887908 
2498.033 19710694 19528252 19342212 19154002 18965010 18776030 18587684 
2501.408 18400492 18215246 18032464 17852830 17677240 17505584 17337892 
2504.784 17173746 17013180 16855906 16702790 16554512 16412409 16277369 
2508.159 16149731 16029490 15916292 15809411 15707744 15610120 15515334 
2511.534 15421666 15328226 15234324 15140100 15046240 14954286 14865025 
2514.909 14779382 14696842 14616681 14537700 14459727 14383412 14310842 
2518.285 14244620 14187137 14140169 14103989 14077532 14059084 14046901 
2521.660 14039954 14037969 14041528 14051693 14068873 14093276 14124321 
2525.035 14160845 14201036 14242531 14283448 14321595 14355259 14383172 
2528.410 14405161 14421465 14433214 14441675 14448217 14453629 14457774 
2531.786 14460344 14460857 14458391 14452876 14443867 14431878 14417629 
2535.161 14401975 14386323 14372281 14361287 14354506 14352040 14353068 
2538.536 14356355 14360157 14363685 14366938 14371527 14379987 14394509 
2541.911 14416396 14445169 14478499 14513066 14545238 14572717 14594990 
2545.287 14612911 14628709 14645090 14663631 14684983 14708221 14731769 
2548.662 14753262 14771053 14783805 14791415 14794227 14793609 14791484 
2552.037 14789565 14789530 14792821 14799609 14809689 14821756 14834373 
2555.412 14845962 14855527 14862317 14866740 14869276 14870579 14871162 
2558.788 14870785 14868899 14863756 14853231 14834990 14807323 14768756 
2562.163 14719361 14660581 14595161 14526051 14456472 14388892 14324951 
2565.538 14264924 14208636 14155608 14105871 14059871 14018188 13982053 
2568.913 13952387 13929907 13915127 13908422 13910030 13919712 13937058 
2572.289 13961078 13990163 14022467 14056313 14090675 14125416 14161085 
2575.664 14198366 14237874 14279339 14321904 14364472 14406257 14447361 
2579.039 14488880 14532150 14578782 14629566 14684195 14741812 14801323 
2582.414 14861802 14923490 14987038 15053752 15124353 15199151 15277188 
2585.790 15357334 15438111 15518184 15596794 15673392 15747700 15819479 
2589.165 15888589 15955167 16019760 16083607 16147807 16213529 16281325 
2592.540 16350647 16420392 16489426 16556852 16622361 16686641 16750585 
2595.915 16814988 16880364 16946060 17011388 17075758 17138484 17200496 
2599.291 17263172 17328444 17398278 17474262 17557194 17647286 17743506 
2602.666 17845200 17950614 18058748 18168428 18279278 18391504 18505868 
2606.041 18623478 18745686 18873122 19005752 19142644 19282492 19423008 
2609.416 19562772 19699982 19833556 19962768 20086950 20205440 20317402 
2612.792 20421958 20518030 20605056 20682368 20749580 20806964 20854762 
2616.167 20893874 20925062 20949610 20968282 20982052 20991510 20996866 
2619.542 20998500 20996866 20992380 20985738 20977984 20969672 20961432 
2622.917 20953502 20946200 20940012 20935630 20934310 20936986 20944880 
2626.292 20958512 20977740 21001630 21029312 21059500 21091640 21125276 
2629.668 21160828 21198646 21239840 21284728 21333934 21387778 21445838 
2633.043 21507738 21572396 21638492 21704600 21769670 21832800 21893812 
2636.418 21953126 22011368 22069304 22127736 22187256 22248146 22310854 
2639.793 22375738 22442934 22512722 22584650 22658266 22732174 22805328 
2643.169 22876570 22945380 23012034 23077338 23143034 23210488 23281238 
2646.544 23356686 23437602 23524690 23617496 23715608 23817732 23922540 
2649.919 24028284 24133634 24237924 24341046 24444298 24548662 24655752 
2653.294 24766550 24881834 25001536 25125692 25254274 25387392 25525152 
2656.670 25668054 25815892 25968388 26124946 26284626 26447180 26611982 
2660.045 26778888 26947622 27117832 27288390 27458768 27627944 27795382 
2663.420 27961260 28126104 28291014 28456654 28623706 28792344 28962534 
2666.795 29133678 29305952 29479356 29654678 29832800 30014548 30200990 
2670.171 30392450 30588936 30789674 30993208 31198334 31403306 31607058 
2673.546 31808980 32009282 32208466 32407202 32606102 32804772 33002424 
2676.921 33197918 33389952 33578132 33762492 33944460 34125716 34308656 
2680.296 34495480 34688272 34888544 35097852 35317324 35548020 35791036 
2683.672 36046892 36315944 36598104 36892852 37199972 37518716 37848652 
2687.047 38188932 38538460 38896164 39260916 39631780 40008300 40390676 
2690.422 40779284 41174800 41577380 41987308 42404164 42827268 43256608 
2693.797 43692048 44133904 44582492 45037716 45499564 45967500 46440772 
2697.173 46918992 47401988 47889884 48383076 48881460 49384720 49892208 
2700.548 50403084 50916048 51429848 51942720 52453024 52958124 53455192 
2703.923 53941844 54415476 54874512 55317628 55744204 56152988 56542644 
2707.298 56911040 57255404 57572616 57860112 58115564 58337588 58525488 
2710.674 58679444 58799728 58887980 58945736 58975344 58978644 58957012 
2714.049 58911168 58840400 58743432 58618956 58465892 58283812 58073484 
2717.424 57836416 57574204 57288936 56982668 56657656 56316444 55962192 
2720.799 55598328 55228820 54858048 54489996 54129388 53780140 53446988 
2724.175 53133860 52844312 52580572 52343904 52134784 51952508 51796656 
2727.550 51667324 51564856 51489868 51443052 51424068 51431972 51464948 
2730.925 51520720 51597432 51693452 51808120 51940780 52090364 52255476 
2734.300 52433992 52623136 52820176 53022848 53229772 53439680 53651488 
2737.676 53864268 54076656 54286976 54493980 54696492 54893688 55084916 
2741.051 55269456 55446360 55614896 55774872 55927216 56073696 56217584 
2744.426 56362128 56510564 56665128 56826740 56995284 57170092 57350076 
2747.801 57534180 57721052 57909064 58096016 58278852 58454444 58620016 
2751.177 58773856 58915760 59047004 59169896 59287240 59402260 59517388 
2754.552 59634636 59755224 59879608 60007604 60138040 60269008 60397920 
2757.927 60521920 60637992 60743348 60835160 60911172 60968396 61004388 
2761.302 61016364 61002256 60960504 60890356 60791708 60665192 60511632 
2764.677 60332316 60128832 59903648 59660140 59402300 59135080 58863168 
2768.053 58590740 58321748 58058560 57803860 57559756 57328524 57112420 
2771.428 56913572 56733428 56572424 56429924 56304296 56193676 56095600 
2774.803 56008100 55929060 55856784 55789188 55724012 55658284 55588496 
2778.178 55510288 55418840 55309160 55175920 55015336 54824476 54602776 
2781.554 54351896 54075872 53780328 53471496 53155428 52837724 52522272 
2784.929 52212052 51908740 51612764 51324192 51042368 50765940 50493668 
2788.304 50223876 49955400 49687096 49418768 49150344 48882420 48615220 
2791.679 48349924 48087236 47828404 47574972 47328672 47091156 46863696 
2795.055 46647312 46442324 46248520 46065524 45892884 45729952 45576724 
2798.430 45432604 45297096 45169172 45047936 44932060 44819964 44710720 
2801.805 44603052 44495852 44388528 44280168 44170440 44059312 43946920 
2805.180 43833872 43720956 43608732 43497856 43388544 43281132 43175904 
2808.556 43072964 42972908 42875212 42779400 42684420 42588908 42491336 
2811.931 42390644 42285996 42177648 42065892 41951252 41834372 41715892 
2815.306 41596668 41477848 41361428 41249920 41146824 41055256 40979104 
2818.681 40921288 40885028 40872540 40886300 40928424 40999864 41101108 
2822.057 41231884 41389892 41572676 41776548 41997676 42231544 42473944 
2825.432 42720316 42965736 43204960 43432892 43644196 43834748 44000344 
2828.807 44137864 44244984 44319684 44361004 44369004 44344600 44289560 
2832.182 44206792 44099616 43971304 43825296 43664496 43491668 43309392 
2835.558 43120460 42926780 42730044 42530912 42328512 42121568 41908700 
2838.933 41688932 41462576 41231156 40997316 40763704 40532444 40304360 
2842.308 40079224 39856136 39634068 39412548 39192116 38974124 38760768 
2845.683 38553996 38355900 38168128 37992232 37829600 37681736 37550180 
2849.059 37436292 37340988 37264732 37207332 37167916 37145896 37139800 
2852.434 37148644 37170912 37205020 37249784 37303328 37364496 37431884 
2855.809 37504412 37580600 37658824 37736960 37812216 37881624 37942076 
2859.184 37990352 38024240 38041236 38039896 38018884 37977152 37914164 
2862.560 37829924 37724636 37599424 37455756 37295888 37122548 36939352 
2865.935 36750396 36560292 36374236 36197444 36034872 35890892 35769264 
2869.310 35672496 35602720 35560424 35545036 35554600 35585852 35634548 
2872.685 35695408 35763656 35835004 35906544 35977060 36046568 36116276 
2876.061 36187108 36260184 36335396 36412356 36490044 36567428 36643816 
2879.436 36718916 36792984 36866556 36940076 37014144 37089092 37164992 
2882.811 37241700 37318744 37395876 37472372 37548376 37623416 37697820 
2886.186 37771872 37845544 37918792 37991004 38061380 38129056 38193312 
2889.562 38253660 38310332 38363244 38412908 38459424 38503268 38544396 
2892.937 38583468 38621168 38658324 38696068 38735080 38775436 38817136 
2896.312 38859640 38902616 38946144 38990760 39037124 39086460 39139032 
2899.687 39194728 39252464 39309736 39364224 39412836 39452276 39480508 
2903.063 39495568 39496840 39484212 39458628 39421400 39373836 39316992 
2906.438 39251160 39176164 39091356 38996596 38891780 38777864 38656912 
2909.813 38530564 38400812 38269044 38135460 37999684 37860692 37717404 
2913.188 37569112 37415632 37257512 37095732 36931776 36767272 36603872 
2916.563 36442948 36285796 36132908 35985120 35843100 35707496 35579844 
2919.939 35462444 35357652 35268304 35196792 35144412 35111500 35096952 
2923.314 35099216 35115672 35143800 35180660 35223456 35268520 35312220 
2926.689 35350280 35378896 35395288 35397984 35387200 35364984 35334360 
2930.064 35299424 35264244 35233336 35211348 35202972 35213288 35247568 
2933.440 35310604 35406576 35538384 35707460 35913636 36155236 36429288 
2936.815 36731572 37057804 37402844 37761936 38130760 38505656 38883884 
2940.190 39263344 39642016 40017820 40387768 40747620 41092440 41415624 
2943.565 41709324 41965448 42175092 42329132 42420240 42442668 42394152 
2946.941 42276536 42096560 41865172 41595504 41302720 41001428 40703224 
2950.316 40417364 40149472 39901752 39674180 39465596 39273972 39097484 
2953.691 38935232 38786196 38650576 38528104 38418588 38321368 38235208 
2957.066 38158576 38089812 38027712 37971656 37921504 37877828 37841348 
2960.442 37812468 37791032 37776320 37767428 37762948 37762112 37764176 
2963.817 37769052 37776860 37787776 37802488 37821684 37846084 37876708 
2967.192 37914416 37959612 38011616 38068616 38128012 38186288 38239840 
2970.567 38285868 38322456 38348840 38365272 38372836 38373596 38369324 
2973.943 38362808 38356728 38353944 38356804 38366392 38381956 38399768 
2977.318 38413628 38414388 38391296 38333672 38232280 38080840 37877500 
2980.693 37625296 37331708 37007288 36664580 36316700 35974572 35646816 
2984.068 35338996 35053920 34791932 34552412 34334764 34138724 33964632 
2987.444 33813132 33684212 33575660 33482026 33393458 33296392 33173990 
2990.819 33008180 32783474 32489144 32122046 31687528 31199472 30678252 
2994.194 30145050 29621012 29122446 28657754 28229588 27834450 27465616 
2997.569 27115644 26778676 26450810 26130612 25818354 25514366 25218842 
3000.945 24931134 24649718 24373076 24100080 23830402 23564426 23303438 
3004.320 23048616 22801380 22562454 22332550 22111732 21900294 21698258 
3007.695 21505580 21322136 21147296 20979828 20818540 20662074 20508790 
3011.070 20357958 20209050 20062034 19917426 19775848 19638130 19505136 
3014.446 19377620 19256202 19141468 19033582 18932508 18837654 18748180 
3017.821 18663080 18580940 18500750 18421752 18343424 18265768 18188574 
3021.196 18111496 18033880 17954654 17872682 17787066 17697842 17606118 
3024.571 17514310 17425558 17343582 17271550 17211630 17164648 17129800 
3027.947 17104812 17086338 17070658 17053460 17030512 16998396 16953778 
3031.322 16894488 16819396 16728478 16622843 16504638 16376486 16241252 
3034.697 16102105 15961800 15823053 15688060 15558741 15436739 15322974 
3038.072 15218024 15121539 15033102 14951439 14875038 14802421 14732386 
3041.448 14663905 14596703 14530848 14466955 14405811 14348204 14294371 
3044.823 14244072 14196346 14150131 14103750 14056346 14007272 13956800 
3048.198 13905753 13855430 13806857 13760820 13717388 13675909 13635869 
3051.573 13595901 13554776 13511637 13465495 13415770 13362326 13305301 
3054.948 13245550 13184169 13122626 13062252 13004310 12949585 12898451 
3058.324 12850975 12807155 12766752 12729935 12696432 12666102 12638334 
3061.699 12612443 12587714 12563771 12540408 12518479 12498667 12482162 
3065.074 12469886 12462418 12459656 12461225 12465964 12472443 12479024 
3068.449 12483628 12484309 12479399 12467703 12449119 12424195 12394567 
3071.825 12362316 12329351 12297548 12268099 12241413 12217659 12196564 
3075.200 12177685 12160409 12144224 12128414 12112434 12095706 12078092 
3078.575 12059423 12039937 12019634 11998413 11975966 11951818 11925560 
3081.950 11897328 11867872 11838316 11809579 11782649 11757421 11733558 
3085.326 11710138 11686550 11663030 11640703 11620759 11605071 11594657 
3088.701 11589416 11588328 11589757 11591867 11593296 11593671 11593058 
3092.076 11591969 11591118 11590743 11590778 11591118 11591663 11592717 
3095.451 11594793 11598570 11604492 11613204 11624673 11638763 11655202 
3098.827 11673547 11693527 11714461 11735907 11756877 11776997 11795348 
3102.202 11811861 11826876 11840836 11854524 11868724 11884013 11900802 
3105.577 11919158 11938673 11958971 11979032 11998107 12015138 12029615 
3108.952 12041674 12051996 12061842 12073186 12087222 12105075 12126676 
3112.328 12150970 12176800 12202153 12225906 12247309 12266020 12282449 
3115.703 12297241 12311216 12324784 12338896 12354339 12371248 12390032 
3119.078 12410489 12431764 12452904 12472716 12490345 12505555 12518752 
3122.453 12530893 12543000 12555688 12569296 12583042 12596208 12607600 
3125.829 12616946 12624587 12631921 12640517 12652321 12668763 12689915 
3129.204 12715094 12742390 12769619 12795143 12817836 12837836 12856572 
3132.579 12875958 12897666 12922789 12951190 12981777 13012402 13041525 
3135.954 13068090 13092266 13115078 13137993 13162276 13188336 13215320 
3139.330 13242066 13266935 13289312 13309366 13328704 13349273 13373431 
3142.705 13402715 13437538 13476979 13519635 13563459 13606705 13648383 
3146.080 13688047 13725937 13762907 13799537 13836581 13874792 13914340 
3149.455 13955158 13997075 14039783 14082666 14125587 14168102 14210587 
3152.831 14252974 14295330 14337759 14379952 14421739 14462776 14503577 
3156.206 14544895 14587828 14633918 14684126 14738968 14798032 14860088 
3159.581 14923524 14986833 15048847 15109051 15167754 15225814 15283950 
3162.956 15343157 15403884 15466472 15530959 15597515 15666109 15736809 
3166.332 15809583 15884224 15960013 16036332 16112078 16186049 16257385 
3169.707 16325360 16389251 16449092 16504707 16556509 16604530 16649043 
3173.082 16690223 16728202 16763225 16795838 16825940 16853978 16880054 
3176.457 16904408 16927422 16949366 16970832 16992710 17015730 17040678 
3179.833 17068556 17099746 17134522 17172782 17213940 17257552 17302514 
3183.208 17348204 17393932 17439528 17485126 17531180 17578860 17628756 
3186.583 17681760 17738224 17798146 17861220 17926752 17993954 18062064 
3189.958 18130290 18198040 18265214 18331568 18397520 18463446 18530142 
3193.333 18598266 18668132 18739840 18812774 18886308 18959956 19033134 
3196.709 19106392 19180390 19256376 19335250 19417638 19503160 19590744 
3200.084 19678900 19766278 19851800 19935082 20016716 20097256 20177950 
3203.459 20259490 20342818 20428176 20515598 20604778 20695052 20785276 
3206.834 20874266 20960806 21043920 21123328 21199652 21274392 21349110 
3210.210 21425650 21504988 21587438 21672730 21759742 21847782 21936190 
3213.585 22024928 22114452 22205180 22297322 22390984 22485364 22580008 
3216.960 22674186 22767404 22859910 22951772 23043376 23135030 23226986 
3220.335 23319344 23412248 23505522 23599550 23694718 23791376 23889982 
3223.711 23990290 24092094 24194270 24296018 24396174 24493902 24589158 
3227.086 24682722 24775144 24867622 24960474 25053516 25145562 25235276 
3230.461 25321530 25404044 25483726 25562298 25641974 25724582 25810758 
3233.836 25900080 25991394 26082970 26174178 26264596 26355246 26446970 
3237.212 26540686 26636218 26732900 26829850 26926080 27021558 27117268 
3240.587 27214266 27313688 27415708 27519448 27622964 27724420 27822334 
3243.962 27916348 28007342 28097082 28187832 28281428 28379044 28481350 
3247.337 28588386 28700122 28816170 28936784 29061364 29189310 29319848 
3250.713 29451450 29583414 29714634 29844760 29973790 30102114 30230402 
3254.088 30358764 30487236 30615744 30744006 30871132 30996838 31120300 
3257.463 31241448 31360496 31478326 31596008 31715150 31836790 31961522 
3260.838 32088936 32218386 32348014 32476898 32603890 32728952 32852766 
3264.214 32976546 33101678 33229462 33360862 33495914 33633656 33772488 
3267.589 33910140 34044684 34174068 34297724 34415668 34529456 34640360 
3270.964 34750292 34860032 34969768 35079060 35187488 35295040 35402872 
3274.339 35512744 35626528 35745232 35868792 35995272 36122180 36246820 
3277.715 36367460 36483960 36597744 36710656 36824720 36941084 37059648 
3281.090 37179900 37301020 37422708 37545596 37670644 37799092 37931192 
3284.465 38066808 38204600 38342688 38479804 38614940 38747616 38878336 
3287.840 39007832 39137076 39266972 39398688 39533492 39672400 39815640 
3291.216 39963436 40114764 40268332 40422712 40576932 40730732 40884228 
3294.591 41038684 41194980 41353628 41514924 41678576 41844408 42012164 
3297.966 42181884 42353348 42526528 42700724 42875320 43049768 43224468 
3301.341 43399824 43577268 43758556 43945088 44137756 44336452 44540748 
3304.717 44749616 44962596 45178768 45398096 45620376 45845860 46074884 
3308.092 46308084 46546648 46791656 47043928 47303844 47570608 47843052 
3311.467 48119476 48398888 48681004 48967084 49258740 49557532 49864040 
3314.842 50177792 50496832 50818976 51142552 51467112 51793896 52124736 
3318.218 52461772 52806704 53159288 53518528 53882344 54248644 54615364 
3321.593 54981864 55346948 55711168 56074748 56438376 56802456 57167368 
3324.968 57532932 57897860 58260624 58618764 58969724 59312120 59644936 
3328.343 59968764 60284424 60592808 60893900 61187152 61471060 61743696 
3331.719 62004572 62252728 62487624 62708640 62913836 63100972 63267520 
3335.094 63411548 63532964 63633152 63714916 63780992 63833492 63872524 
3338.469 63896588 63903504 63890800 63856864 63801600 63725352 63628628 
3341.844 63511828 63374704 63216700 63037792 62838048 62618308 62379244 
3345.219 62121236 61844200 61547604 61230948 60894548 60539248 60166736 
3348.595 59778952 59377456 58963464 58537504 58099884 57651840 57194280 
3351.970 56729276 56258168 55781880 55300316 54813088 54320020 53821508 
3355.345 53319296 52816208 52315644 51820660 51333848 50856332 50388760 
3358.720 49931312 49483892 49046984 48620260 48202956 47793592 47390272 
3362.096 46990316 46592276 46195520 45800860 45410384 45026360 44650972 
3365.471 44286036 43932260 43589868 43258472 42937900 42627504 42326832 
3368.846 42034940 41750904 41473328 41200808 40932356 40666980 40404564 
3372.221 40144712 39887624 39633596 39382796 39135332 38891780 38652348 
3375.597 38416996 38185820 37958132 37733816 37512504 37294048 37078628 
3378.972 36866632 36657980 36452748 36250348 36049916 35850512 35651200 
3382.347 35451552 35251412 35050864 34850196 34650012 34450928 34253800 
3385.722 34059160 33868368 33681780 33499386 33320684 33144448 32969572 
3389.098 32794662 32619070 32442514 32265454 32088436 31912488 31738284 
3392.473 31566720 31398286 31233686 31072926 30915782 30761398 30608528 
3395.848 30455532 30301842 30146894 29991364 29836918 29684762 29536384 
3399.223 29391918 29250622 29110928 28971602 28831574 28690460 28548398 
3402.599 28405962 28263712 28121580 27979954 27838338 27696944 27555562 
3405.974 27414792 27274488 27134020 26992398 26848424 26701716 26552204 
3409.349 26401510 26251750 26105488 25964236 25828832 25698182 25570628 
3412.724 25443952 25316332 25186572 25054640 24921098 24786616 24651542 
3416.100 24515952 24379386 24241112 24100638 23957868 23813182 23667530 
3419.475 23522592 23380218 23242192 23109834 22983842 22863858 22748200 
3422.850 22635228 22522564 22408846 22293310 22176132 22058324 21941034 
3426.225 21824926 21710032 21595520 21480408 21363484 21244224 21122980 
3429.601 21000170 20876768 20753750 20631740 20510910 20391746 20274662 
3432.976 20160282 20049438 19942334 19838932 19738364 19639274 19540138 
3436.351 19439986 19338436 19236010 19133988 19033756 18936214 18841286 
3439.726 18748212 18655334 18561160 18464552 18365440 18264248 18162488 
3443.102 18060994 17960248 17859426 17757346 17652048 17542634 17429214 
3446.477 17313824 17199704 17090818 16989852 16898588 16816538 16741460 
3449.852 16670320 16600467 16529350 16456353 16381200 16304512 16226152 
3453.227 16145812 16062323 15974658 15881818 15783880 15681671 15576943 
3456.603 15471485 15367014 15264662 15164735 15066925 14971056 14876237 
3459.978 14782365 14689610 14598040 14508167 14420471 14335328 14252665 
3463.353 14172519 14093858 14015896 13937640 13858099 13777135 13695023 
3466.728 13613030 13532078 13453635 13377736 13303968 13231545 13158621 
3470.104 13083832 13006768 12926816 12844764 12761429 12677360 12592864 
3473.479 12508181 12422422 12335078 12245775 12154173 12061092 11967282 
3476.854 11874410 11784181 11697850 11616403 11539463 11466040 11394094 
3480.229 11321648 11247412 11170708 11092623 11014585 10938839 10866164 
3483.604 10796592 10728694 10659790 10587296 10509350 10425615 10337179 
3486.980 10246589 10156459 10069468 9987378 9910725 9839340 9772236 9708667 
3490.837 9647546 9588161 9529801 9472092 9414188 9355816 9296201 9235240 
3494.695 9172967 9109316 9044862 8980216 8916019 8853521 8793535 8736769 
3498.552 8682917 8631133 8579289 8525388 8466799 8402069 8330797 8254267 
3502.409 8174544 8095071 8018922 7948421 7884646 7827424 7775169 7726125 
3506.267 7677929 7628727 7577271 7523159 7466828 7409157 7352166 7297037 
3510.124 7245115 7196805 7151564 7108552 7065577 7021630 6974960 6925872 
3513.982 6873994 6820137 6765884 6711939 6659347 6608612 6560002 6513684 
3517.839 6470130 6429437 6391910 6357210 6324564 6292525 6259346 6223144 
3521.697 6182575 6137475 6088245 6037106 5985637 5935585 5887420 5840704 
3525.554 5793892 5745440 5694039 5639926 5584141 5528867 5476149 5427733 
3529.411 5384119 5345139 5309818 5277250 5246362 5216851 5188012 5159008 
3533.269 5128731 5095607 5058597 5017132 4971682 4923791 4875604 4829231 
3537.126 4786012 4746349 4709704 4675104 4641311 4607321 4572964 4538141 
3540.984 4503153 4467901 4432919 4397941 4362897 4327790 4291984 4254640 
3544.841 4215226 4172670 4127142 4079578 4032287 3987375 3947049 3911473 
3548.698 3879579 3848255 3813925 3773213 3724619 3668611 3608168 3547666 
3552.556 3491113 3441314 3398935 3362737 3330782 3300633 3270753 3240574 
3556.413 3210264 3179823 3149384 3118746 3087243 3054275 3020041 2985042 
3560.271 2950713 2918322 2888968 2862986 2839839 2818028 2795017 2768039 
3564.128 2733661 2688617 2630776 2559511 2476661 2386830 2296984 2214816 
3567.986 2147116 2097371 2065310 2048131 2040275 2036280 2031120 2020801 
3571.843 2003491 1978593 1947139 1911262 1872991 1834358 1797359 1762858 
3575.700 1731420 1702945 1676800 1652087 1627641 1602997 1577157 1550023 
3579.558 1521825 1493530 1465902 1439738 1415637 1393265 1371892 1349988 
3583.415 1325892 1297477 1262816 1220283 1168584 1107856 1039697 968194 
3587.273 898928 839034 794850 769390 762586 769789 784029 797107 801721 
3591.612 793157 769457 732282 685487 634881 585740 542079 505986 477690 
3595.952 456097 439646 426511 414704 401869 385519 364096 337104 305636 
3600.292 272911 242907 219270 203888 196396 194275 194341 193247 189070 
3604.631 180916 168718 152045 129971 101136 64549 20377 -28527 -77858 
3608.971 -122512 -159477 -188425 -212834 -237141 -265984 -300885 -340120 
3612.828 -378590 -409840 -428874 -434302 -428940 -418115 -409178 -408648 
3616.686 -420697 -447377 -487194 -536737 -589551 -638718 -677526 -700981 
3620.543 -707861 -700286 -682786 -661712 -642391 -628329 -620091 -615790 
3624.400 -612084 -606691 -599874 -596202 -603746 -632564 -691189 -781822 
3628.258 -896476 -1015959 -1117233 -1180715 -1200178 -1181806 -1140333 
3631.633 -1091156 -1047329 -1017149 -1003563 -1004290 -1013711 -1025281 
3635.008 -1033280 -1034669 -1029809 -1020917 -1011133 -1002868 -997546 
3638.384 -995166 -995001 -996554 -1000125 -1007199 -1018604 -1034569 
3641.759 -1053411 -1071689 -1085736 -1092313 -1091156 -1085273 -1079820 
3645.134 -1081472 -1096114 -1126486 -1172124 -1229717 -1293876 -1359744 
3648.509 -1423884 -1483888 -1536355 -1575577 -1594329 -1585944 -1548736 
3651.885 -1486926 -1410047 -1331139 -1263516 -1217326 -1197964 -1204969 
3655.260 -1231038 -1264639 -1291233 -1300021 -1285650 -1248847 -1194891 
3658.635 -1131411 -1066004 -1004753 -951957 -909239 -874983 -845287 -814498 
3662.492 -777754 -731744 -676136 -612382 -542760 -467700 -385178 -291084 
3666.350 -180476 -48969 107864 296352 531596 843184 1273649 1875354 2693384 
3670.689 3745540 5020182 6481968 8090413 9804736 11580909 13360651 15029946 
3674.547 16411480 17288928 17459360 16840166 15507608 13657991 11517244 
3677.922 9280900 7106430 5103988 3357160 1923908 822668 33499 -497818 
3681.780 -839070 -1057707 -1205597 -1311880 -1390164 -1445813 -1482897 
3685.155 -1510601 -1541209 -1587165 -1656685 -1750187 -1860065 -1971697 
3688.530 -2071001 -2147104 -2196491 -2220556 -2222864 -2206744 -2174600 
3691.905 -2129365 -2076145 -2021236 -1971500 -1932280 -1905790 -1890417 
3695.281 -1882994 -1878706 -1874714 -1869171 -1863167 -1858548 -1857789 
3698.656 -1862804 -1875407 -1896751 -1927233 -1965826 -2009363 -2052402 
3702.031 -2087950 -2109581 -2113703 -2100283 -2072946 -2037396 -1999832 
3705.406 -1964441 -1933665 -1907737 -1886096 -1868808 -1857426 -1853599 
3708.781 -1860626 -1880124 -1912190 -1954546 -2003196 -2053028 -2098469 
3712.157 -2134014 -2155445 -2159039 -2143510 -2109911 -2062361 -2006593 
3715.532 -1950158 -1900116 -1861517 -1836310 -1823046 -1817932 -1816282 
3718.907 -1814797 -1812620 -1810706 -1811036 -1814797 -1820836 -1826610 
3722.282 -1829348 -1827435 -1821694 -1815259 -1812356 -1816645 -1828820 
3725.658 -1846670 -1865575 -1879036 -1881609 -1871085 -1848353 -1817668 
3729.033 -1785166 -1757711 -1741837 -1741210 -1756787 -1785166 -1820044 
3732.408 -1854193 -1882335 -1904636 -1925715 -1953259 -1992774 -2044883 
3735.783 -2102624 -2153994 -2185842 -2190689 -2167908 -2123100 -2064768 
3739.159 -1999898 -1933137 -1866466 -1801071 -1741078 -1693785 -1672694 
3742.534 -1692861 -1765697 -1890516 -2045542 -2192172 -2287668 -2308893 
3745.909 -2261134 -2170743 -2069979 -1986441 -1939900 -1937888 -1976513 
3749.284 -2041783 -2116044 -2182941 -2232390 -2261233 -2269539 -2257475 
3752.660 -2224017 -2169194 -2096755 -2013816 -1930465 -1857228 -1801500 
3756.035 -1767248 -1753685 -1756523 -1770449 -1790710 -1815259 -1842579 
3759.410 -1871085 -1896718 -1913510 -1915984 -1901601 -1873262 -1838191 
3762.785 -1806086 -1785727 -1781602 -1791997 -1809386 -1824036 -1826742 
3766.161 -1814170 -1789423 -1760351 -1736788 -1725600 -1730287 -1748174 
3769.536 -1773188 -1796484 -1810970 -1812851 -1801995 -1781503 -1755929 
3772.911 -1729660 -1706260 -1687580 -1673717 -1663287 -1654474 -1645694 
3776.286 -1636847 -1629684 -1627307 -1632754 -1647476 -1669162 -1692530 
3779.662 -1709759 -1714610 -1704247 -1681672 -1654111 -1630047 -1616975 
3783.037 -1618791 -1634272 -1658039 -1683190 -1702696 -1712696 -1712762 
3786.412 -1705006 -1692530 -1677678 -1662000 -1646057 -1630608 -1616678 
3789.787 -1605223 -1597267 -1592315 -1588288 -1583105 -1574521 -1562669 
3793.163 -1550453 -1542892 -1545600 -1561942 -1591556 -1628958 -1664805 
3796.538 -1688405 -1692993 -1678008 -1649886 -1619781 -1601262 -1606709 
3799.913 -1643119 -1709033 -1791964 -1872008 -1925385 -1936502 -1902030 
3803.288 -1831955 -1744775 -1659953 -1595980 -1565805 -1574059 -1615424 
3806.664 -1675367 -1733389 -1770713 -1777840 -1755863 -1713884 -1662825 
3810.039 -1612354 -1567885 -1529685 -1496204 -1464801 -1435575 -1411896 
3813.414 -1400436 -1408659 -1441949 -1499407 -1571946 -1642261 -1691705 
3816.789 -1707746 -1688768 -1644637 -1591655 -1549463 -1533945 -1555405 
3820.165 -1613542 -1696821 -1782658 -1845515 -1868148 -1846670 -1789951 
3823.540 -1713884 -1635791 -1569173 -1521233 -1492803 -1479562 -1473618 
3826.915 -1466749 -1453805 -1434519 -1412722 -1394160 -1384285 -1386729 
3830.290 -1401525 -1425734 -1453640 -1479463 -1497624 -1504889 -1500299 
3833.666 -1486562 -1467674 -1449776 -1439472 -1443072 -1464999 -1506077 
3837.041 -1562306 -1625426 -1684345 -1728208 -1750517 -1749560 -1729099 
3840.416 -1695336 -1655860 -1616843 -1582840 -1556528 -1538567 -1527936 
3843.791 -1522025 -1517733 -1511592 -1500794 -1483789 -1460244 -1431348 
3847.167 -1398751 -1364104 -1328496 -1292621 -1257073 -1223968 -1197435 
3850.542 -1185209 -1197534 -1245179 -1335829 -1467773 -1625129 -1777774 
3853.917 -1893716 -1951544 -1949169 -1899127 -1820473 -1731112 -1642723 
3857.292 -1563032 -1495445 -1440991 -1399610 -1370578 -1353006 -1345739 
3860.667 -1346664 -1353997 -1365656 -1381147 -1400403 -1424248 -1451856 
3864.043 -1480520 -1503238 -1512252 -1500959 -1468037 -1418369 -1363146 
3867.418 -1317033 -1293315 -1301309 -1341247 -1403738 -1470019 -1519747 
3870.793 -1540416 -1531006 -1501323 -1465263 -1436896 -1424017 -1427385 
3874.168 -1440232 -1451790 -1452517 -1436665 -1405291 -1364798 -1324334 
3877.544 -1292984 -1277457 -1280959 -1302036 -1334970 -1369983 -1397265 
3880.919 -1408032 -1397926 -1368497 -1326745 -1283073 -1248747 -1234507 
3884.294 -1246270 -1283073 -1335367 -1386498 -1419657 -1422332 -1392542 
3887.669 -1337943 -1272799 -1212667 -1171000 -1157121 -1172718 -1212403 
3891.045 -1264606 -1315349 -1352973 -1370413 -1366647 -1344880 -1310030 
3894.420 -1267249 -1220928 -1175065 -1133294 -1099221 -1076548 -1067789 
3897.795 -1073672 -1092611 -1120339 -1150974 -1178964 -1200475 -1214947 
3901.170 -1224430 -1233054 -1244816 -1261963 -1283899 -1307355 -1327010 
3904.546 -1337580 -1335169 -1318850 -1290672 -1254496 -1214683 -1175329 
3907.921 -1139771 -1109301 -1084513 -1065045 -1049808 -1037809 -1027892 
3911.296 -1018967 -1009943 -999893 -988653 -976752 -966140 -959561 -960718 
3915.154 -972058 -994901 -1027297 -1065508 -1103220 -1134550 -1154775 
3918.529 -1161714 -1155931 -1139507 -1115547 -1087554 -1058435 -1031628 
3921.904 -1010604 -998472 -998042 -1010604 -1034272 -1064682 -1095255 
3925.279 -1119381 -1131708 -1130816 -1118885 -1100972 -1082761 -1069012 
3928.655 -1062599 -1063657 -1070003 -1079027 -1088182 -1096015 -1101666 
3932.030 -1105104 -1105897 -1103716 -1098097 -1089140 -1077903 -1065905 
3935.405 -1055526 -1048089 -1043957 -1042172 -1041114 -1038801 -1034470 
3938.780 -1028421 -1022703 -1019694 -1022240 -1031462 -1047163 -1067557 
3942.156 -1088843 -1107549 -1120207 -1124437 -1119579 -1106359 -1087091 
3945.531 -1064979 -1042767 -1023562 -1009414 -1000852 -997182 -996753 
3948.906 -997645 -998141 -997645 -996125 -994174 -992323 -991133 -990405 
3952.763 -989844 -988819 -986934 -984521 -981480 -977843 -973611 -968355 
3956.621 -962106 -955031 -948419 -943592 -941807 -944187 -950436 -959561 
3960.478 -969677 -978570 -984323 -985810 -982802 -975595 -965446 -953015 
3964.336 -939724 -926961 -916017 -908049 -903618 -902692 -904742 -908280 
3968.193 -912050 -915125 -917406 -919059 -921175 -924085 -927854 -931656 
3972.051 -934467 -935095 -932714 -927424 -919952 -910992 -901667 -892310 
3975.908 -882886 -873594 -864599 -856663 -850545 -847404 -847701 -851339 
3979.765 -857324 -864103 -870353 -874950 -877066 -877231 -876041 -874586 
3983.623 -873925 -874619 -876603 -879447 -881927 -882753 -880869 -875909 
3987.480 -867873 -857787 -847139 -837681 -830108 -824717 -821212 -817938 
3991.338 -814135 -808810 -802195 -795382 -789363 -785758 -785295 -788172 
3995.195 -793762 -801269 -809438 -817177 -823891 -829380 -833547 -837185 
3999.052 -840228 -843369 -846941 -850611 
##END=
