
##TITLE=Z408_3_e
##JCAMP-DX=5.01  $$ Nicolet v. 1
##DATATYPE=INFRARED SPECTRUM
##ORIGIN=UniL
##OWNER=Nicolet
##LONGDATE=2011/09/16
##TIME=11:06:03
##SPECTROMETER/DATA SYSTEM=Nicolet iS5
##DATA PROCESSING=
Ratio against background
%Transmittance->Absorbance
Truncated
ElementMultiply or ElementDivide
##COMMENTS=
Number of sample scans: 32
Collection length: 51.15 sec
Sample gain: 2.0
Background collected on: Ven Sep 16 11:02:21 2011 (GMT+02:00);
Number of background scans: 32
Background gain: 2.0
Sample spacing:  1.000
Number of scan points: 12415
Resolution points: 8192
Number of FFT points: 65536
Apodization: N-B fort;
Phase correction: Mertz;
Laser frequency: 15798.0 cm-1
Number of rejected sample scans: 0
Number of rejected background scans: 0
Bench serial number: ASB1000141;
##RESOLUTION=4.000
##XUNITS=1/CM
##YUNITS=ABSORBANCE
##FIRSTX=649.893372
##LASTX=4000.122314
##FIRSTY=0.090234
##MAXX=4000.122314
##MINX=649.893372
##MAXY=0.340256
##MINY=0.001337
##XFACTOR=1.000000
##YFACTOR=1.000000E-009
##NPOINTS=6950
##DELTAX=0.482117
##ZPD=6100
##XYDATA=(X++(Y..Y))
649.893 90234296 90681584 91206576 91841288 92587680 93420928 94305752 
653.268 95224824 96194576 97262992 98485120 99898568 101502488 103260880 
656.643 105123928 107057232 109063400 111179840 113456824 115926816 
659.536 118590360 121417256 124376088 127459360 130698848 134148408 
662.428 137854720 141814128 145963744 150188096 154370384 158427584 
665.321 162307616 165983040 169394416 172390048 174720192 176103008 
668.214 176367296 175555136 173873808 171551088 168730112 165464224 
671.107 161762832 157647248 153200592 148568320 143914528 139398144 
673.999 135117072 131101888 127343624 123823240 120535616 117495984 
676.892 114723888 112224976 109979392 107947880 106082608 104345376 
679.785 102718272 101198288 99786984 98478008 97251136 96077616 94931992 
683.159 93803240 92700336 91645776 90665616 89776072 88977024 88255112 
686.534 87592944 86978568 86408608 85886752 85414080 84980288 84559848 
689.909 84115768 83606256 82999256 82277280 81437992 80490824 79449424 
693.284 78327136 77136384 75893160 74621152 73349672 72113704 70943560 
696.659 69858064 68862952 67951656 67111992 66331072 65600656 64916552 
700.034 64277084 63679956 63120736 62593772 62095008 61623240 61180820 
703.408 60771168 60396472 60054556 59739480 59442608 59155504 58874020 
706.783 58597908 58329968 58074128 57832668 57605644 57392352 57193340 
710.158 57013308 56861260 56751404 56699108 56716816 56810196 56972048 
713.533 57181204 57397304 57569744 57640376 57553928 57274120 56789088 
716.908 56119204 55313000 54446012 53609280 52891164 52378552 52141212 
720.282 52223188 52638504 53358076 54306352 55350784 56322856 57042436 
723.657 57338772 57104408 56314668 55041100 53428812 51666612 49944396 
727.032 48398336 47104084 46072600 45269960 44641060 44133504 43711944 
730.407 43354532 43048856 42784084 42546188 42320656 42098348 41878124 
733.782 41667560 41476788 41312524 41172064 41044292 40913572 40768912 
737.156 40608548 40440824 40279708 40138096 40021600 39927328 39845928 
740.531 39768360 39690372 39613992 39545032 39488092 39442916 39403804 
743.906 39363244 39315540 39261384 39207388 39163000 39135008 39123804 
747.281 39122936 39122392 39114160 39094836 39066776 39035456 39004536 
750.656 38973868 38938096 38891636 38832752 38766380 38703928 38658468 
754.031 38639564 38649020 38681144 38726168 38775980 38828152 38887180 
757.405 38960348 39053724 39168692 39301320 39445236 39596244 39755216 
760.780 39928380 40124432 40349444 40605456 40890200 41201428 41541540 
764.155 41922496 42363612 42893864 43545252 44348452 45332552 46518324 
767.530 47910604 49488684 51196972 52946820 54619612 56104912 57335216 
770.905 58323904 59180832 60096600 61297144 62945360 65075100 67527016 
774.279 69972072 71942600 72952920 72663952 70951672 67972584 64091480 
777.654 59814544 55641144 51945784 48965940 46767004 45286652 44385260 
781.029 43906488 43717036 43715060 43840616 44061104 44358248 44724128 
784.404 45157036 45661560 46246384 46921392 47693144 48563044 49528604 
787.779 50589068 51750704 53031308 54458932 56065588 57884036 59941756 
791.154 62260144 64860992 67768736 71012024 74621664 78617000 82993368 
794.528 87703752 92656536 97708528 102663704 107306464 111401864 114722424 
797.903 117095160 118415680 118685240 118012040 116612736 114774944 
800.796 112790000 110934872 109402960 108272368 107500584 106931584 
803.689 106341272 105470728 104110256 102148160 99597992 96599032 93377336 
807.063 90196208 87265640 84708704 82532856 80645664 78888176 77088184 
810.438 75120648 72924704 70516648 67966696 65375692 62841000 60434096 
813.813 58201744 56164376 54325912 52683432 51231348 49962240 48866404 
817.188 47932064 47145332 46492768 45964924 45555124 45259772 45075760 
820.563 44998612 45022980 45144392 45361976 45681292 46113056 46672144 
823.938 47373196 48226132 49233728 50389280 51675832 53062420 54503216 
827.312 55938596 57289620 58472712 59410768 60045616 60359616 60382348 
830.687 60193908 59905816 59650980 59564512 59752220 60286100 61184444 
834.062 62406712 63845696 65332672 66668392 67626696 68007648 67682424 
837.437 66609136 64854340 62569476 59972076 57285536 54702468 52371152 
840.812 50371344 48727224 47421944 46416696 45664284 45117260 44735624 
844.186 44483332 44329004 44249164 44226968 44253676 44327608 44449968 
847.561 44621084 44837816 45093476 45380516 45693768 46032664 46400916 
850.936 46803908 47245472 47725208 48239240 48782572 49352908 49952500 
854.311 50588288 51268592 52000944 52790016 53637732 54547472 55527080 
857.686 56590804 57760144 59061616 60521232 62166312 64022556 66114612 
861.060 68466704 71096240 74003392 77155456 80475104 83835032 87048648 
864.435 89904832 92185952 93693992 94297600 93942256 92664744 90581896 
867.810 87879968 84788240 81528200 78308840 75295112 72591032 70255000 
871.185 68300904 66712820 65458440 64500056 63802408 63332380 63061236 
874.560 62963932 63016488 63199296 63498372 63905804 64420456 65045036 
877.935 65782196 66630184 67579776 68611576 69699632 70810344 71906936 
881.309 72955816 73926160 74796704 75558744 76217064 76789144 77299144 
884.684 77774312 78235920 78696104 79159368 79626024 80099208 80590528 
888.059 81120640 81715496 82400760 83191640 84089144 85078016 86133176 
891.434 87223392 88317568 89390568 90419832 91383616 92260560 93026112 
894.809 93655640 94128928 94430360 94552392 94495176 94266808 93883104 
898.183 93368872 92760976 92103608 91445568 90835856 90311144 89893624 
901.558 89588688 89387800 89274888 89233632 89254016 89333096 89474680 
904.933 89684608 89969800 90335904 90788152 91333680 91982048 92743296 
908.308 93627112 94638336 95776816 97038016 98416536 99909456 101518472 
911.683 103249368 105109872 107106280 109242840 111522944 113954104 
914.575 116550896 119338504 122351224 125625056 129192488 133074928 
917.468 137276880 141781280 146545376 151499264 156528192 161474544 
920.361 166144320 170302032 173721152 176223456 177716800 178239344 
923.254 177967376 177218016 176377296 175874880 176127248 177446992 
926.146 180029792 183905280 188934256 194795696 201010528 207029888 
929.039 212230288 216025888 217961552 217718768 215181216 210425936 
931.932 203710352 195429808 186064160 176164752 166253728 156791392 
934.824 148163088 140617200 134292512 129233000 125408872 122752192 
937.717 121180200 120615264 120977280 122170816 124076032 126514792 
940.610 129250976 132019368 134522288 136490624 137730544 138134800 
943.502 137711616 136568688 134899808 132933112 130892816 128979328 
946.395 127327544 126010864 125047296 124414168 124067480 123958544 
949.288 124047544 124304480 124706728 125236552 125874208 126598928 
952.181 127391472 128236536 129125920 130057696 131032408 132048920 
955.073 133101984 134182288 135280352 136390112 137511280 138648448 
957.966 139806896 140988832 142190416 143402880 144616928 145827808 
960.859 147037808 148255600 149491504 150752176 152036768 153338544 
963.751 154647376 155956432 157265248 158579360 159906480 161250912 
966.644 162611344 163980672 165351376 166719712 168089808 169472240 
969.537 170879360 172319536 173794016 175297232 176822240 178366224 
972.429 179934112 181536784 183186800 184891488 186649760 188452384 
975.322 190287904 192149200 194036864 195958112 197921328 199928880 
978.215 201972992 204037392 206100560 208144896 210160704 212144048 
981.108 214092656 215999904 217850896 219626816 221310992 222897088 
984.000 224393168 225819968 227203024 228562576 229910032 231248080 
986.893 232577024 233901856 235235984 236598560 238008608 239476128 
989.786 240999040 242565312 244160896 245778032 247419024 249093216 
992.678 250810384 252571888 254367616 256179360 257988544 259786512 
995.571 261578176 263379040 265204992 267064720 268953600 270857984 
998.464 272762464 274661152 276560544 278477760 280430912 282428672 
1001.356 284467104 286532800 288612704 290703616 292815808 294969088 
1004.249 297182816 299464192 301804064 304180768 306572832 308967840 
1007.142 311368704 313788192 316237696 318714336 321196896 323647264 
1010.035 326022496 328289760 330427232 332422816 334264192 335925504 
1012.927 337367808 338547520 339427072 339992544 340255776 340249120 
1015.820 340008320 339559392 338913824 338072192 337036672 335822432 
1018.713 334458624 332983744 331433408 329828384 328176096 326478592 
1021.605 324745696 323007520 321314432 319723136 318287776 317040224 
1024.498 315986304 315111264 314391136 313804736 313334176 312962176 
1027.391 312660608 312377984 312043712 311573248 310879328 309893824 
1030.284 308567520 306868256 304775584 302271904 299343648 295990400 
1033.177 292234848 288129504 283748032 279177952 274498464 269764576 
1036.070 265008960 260243536 255472336 250703008 245952256 241244272 
1038.963 236608528 232073344 227666144 223417024 219356640 215515712 
1041.856 211915808 208555472 205400400 202377744 199392320 196334624 
1044.750 193109824 189663024 185983504 182108736 178107056 174068832 
1047.643 170084496 166231056 162574160 159158416 156008960 153133312 
1050.536 150521280 148148624 145980544 143981648 142120448 140373744 
1053.429 138728880 137178800 135717680 134336384 133020952 131753344 
1056.322 130517648 129300776 128095608 126898320 125705216 124509840 
1059.215 123302880 122074288 120817880 119534544 118233760 116930664 
1062.108 115641704 114381832 113161080 111985848 110860704 109790392 
1065.001 108779656 107830808 106940784 106097712 105281136 104467152 
1067.894 103631600 102757224 101837976 100878488 99891976 98896008 97910360 
1071.269 96953832 96043264 95195072 94423144 93737248 93142368 92636608 
1074.645 92211888 91855288 91553104 91291896 91058664 90840672 90622712 
1078.020 90385064 90106904 89768080 89354864 88866096 88313136 87719808 
1081.395 87114728 86530312 85995912 85535064 85169232 84916784 84794248 
1084.770 84817928 85001328 85354352 85883480 86591744 87479856 88546040 
1088.146 89783928 91177224 92692184 94278008 95861800 97355560 98676000 
1091.521 99749256 100529704 101007168 101205984 101179544 100996000 
1094.414 100735192 100472448 100271512 100186496 100254448 100497168 
1097.307 100923512 101528016 102291464 103178016 104137752 105101768 
1100.200 105981144 106679976 107095728 107134784 106733776 105865280 
1103.093 104547784 102839720 100833104 98635952 96350992 94075096 91884232 
1106.468 89830424 87947968 86251168 84738584 83395984 82199888 81121560 
1109.844 80129216 79194752 78294720 77410992 76531992 75649520 74757976 
1113.219 73854000 72936808 72009392 71078960 70156384 69255088 68387152 
1116.594 67563168 66790096 66071368 65408552 64802364 64253152 63761228 
1119.969 63325860 62945128 62615016 62330552 62084880 61869148 61671584 
1123.344 61474880 61254640 60982124 60625000 60153264 59547564 58801396 
1126.720 57925608 56943940 55892092 54809364 53731164 52688480 51702368 
1130.095 50783852 49936220 49155724 48434152 47760048 47121808 46509104 
1133.470 45914352 45334684 44770960 44228144 43711688 43227284 42778524 
1136.845 42366756 41992272 41655272 41356692 41098664 40883752 40714140 
1140.221 40590396 40511892 40476720 40483448 40531060 40619608 40748856 
1143.596 40917904 41123656 41361536 41625696 41910560 42211460 42524736 
1146.971 42846500 43171768 43494488 43806972 44102220 44375280 44624828 
1150.346 44852840 45064144 45264260 45458464 45650332 45843208 46039664 
1153.722 46242624 46454932 46678968 46914932 47160700 47411892 47662968 
1157.097 47907828 48141056 48357852 48552668 48719628 48850980 48938420 
1160.472 48974468 48952624 48868592 48720408 48506948 48227908 47883228 
1163.847 47473832 47002056 46473000 45894504 45275840 44627068 43958216 
1167.223 43277876 42594096 41914612 41247044 40599344 39979200 39393028 
1170.598 38845112 38338124 37873056 37451064 37074116 36745524 36469972 
1173.973 36252332 36096180 36003692 35975580 36012084 36114148 36284244 
1177.348 36526232 36844952 37245020 37730456 38305232 38974232 39743928 
1180.724 40623792 41623872 42754468 44024544 45439480 47002796 48716032 
1184.099 50579316 52590296 54740504 57013116 59375972 61780900 64168224 
1187.474 66463112 68587400 70466984 72030000 73217992 73989216 74319440 
1190.849 74208376 73678592 72777128 71565296 70115464 68505144 66802388 
1194.225 65067136 63345916 61667272 60046032 58484012 56974696 55507312 
1197.600 54072004 52664164 51286008 49947368 48663252 47451620 46329428 
1200.975 45308864 44397152 43595364 42899680 42302796 41795956 41369336 
1204.350 41011808 40711484 40454860 40226856 40013640 39802640 39584448 
1207.726 39353772 39108796 38849820 38578796 38298460 38013244 37728900 
1211.101 37454492 37201052 36980664 36805820 36686968 36631592 36645544 
1214.476 36732868 36897144 37141892 37470568 37885096 38385288 38968576 
1217.851 39630944 40368056 41177272 42058156 43012156 44041008 45146632 
1221.227 46329984 47591796 48934784 50363904 51886712 53512084 55247256 
1224.602 57095828 59055356 61117084 63266412 65480860 67731912 69982424 
1227.977 72184208 74283976 76222432 77940360 79389272 80531504 81345952 
1231.352 81829768 81999184 81890904 81559344 81082944 80557224 80083384 
1234.728 79772280 79725576 80028448 80753120 81950400 83653744 85883320 
1238.103 88645704 91933776 95721424 99963464 104588888 109498320 114578928 
1241.478 119698760 124714504 129488560 133877096 137741184 140961280 
1244.371 143434224 145090784 145901536 145874544 145052880 143503056 
1247.264 141316224 138595840 135451696 132000728 128345072 124561704 
1250.157 120693392 116740128 112665904 108411112 103919752 99156128 94124024 
1253.532 88870608 83486136 78091368 72810120 67767112 63064188 58766952 
1256.908 54910120 51493412 48490832 45858156 43543276 41495420 39665828 
1260.283 38015452 36514700 35141644 33881912 32726310 31666856 30696460 
1263.658 29806896 28988958 28234468 27536886 26892134 26298530 25755380 
1267.033 25261508 24814434 24410088 24044148 23713684 23417984 23158410 
1270.409 22937554 22757174 22617566 22517086 22453296 22424408 22430722 
1273.784 22474582 22559346 22688498 22863334 23082894 23342490 23634080 
1277.159 23946838 24265112 24569314 24838362 25050182 25187170 25240052 
1280.534 25209712 25106698 24947208 24749502 24527766 24289568 24036688 
1283.910 23766948 23478904 23174488 22860154 22545910 22243856 21964072 
1287.285 21714316 21500078 21324434 21189634 21096890 21045694 21032756 
1290.660 21051294 21093586 21151122 21218128 21292836 21377162 21475082 
1294.035 21590260 21724906 21879212 22052780 22245878 22461322 22703616 
1297.411 22978916 23292356 23647796 24047264 24492534 24985074 25526068 
1300.786 26114778 26745092 27403002 28067286 28709148 29297018 29803594 
1304.161 30206886 30495020 30666410 30728572 30696388 30590038 30434846 
1307.536 30257044 30082190 29933392 29826236 29768178 29758242 29789400 
1310.912 29850902 29931972 30024312 30121786 30219604 30312716 30395328 
1314.287 30460294 30501950 30515742 30500350 30456276 30385130 30288628 
1317.662 30167814 30024454 29861798 29685612 29504218 29326192 29158552 
1321.037 29005216 28866736 28741752 28629792 28533466 28459486 28417812 
1324.413 28418660 28471266 28582086 28754992 28992924 29298188 29672024 
1327.788 30111700 30607886 31143296 31691164 32221060 32704480 33118450 
1331.163 33451464 33702908 33881732 34001108 34076396 34122560 34152240 
1334.538 34177260 34208804 34256524 34328524 34430520 34565760 34736940 
1337.914 34948116 35206100 35520724 35903164 36361336 36898376 37510804 
1341.289 38189184 38920048 39687576 40474064 41256732 42010376 42706500 
1344.664 43316312 43818000 44198868 44457604 44601512 44641536 44586456 
1348.039 44438112 44190468 43831928 43351056 42741088 42005116 41156328 
1351.415 40219400 39225412 38208324 37204228 36245920 35362108 34577100 
1354.790 33907272 33360504 32935292 32622748 32409310 32280694 32226380 
1358.165 32239940 32317922 32457794 32654398 32900014 33186506 33508264 
1361.540 33866220 34268536 34729116 35261044 35871024 36557120 37308708 
1364.916 38109960 38941648 39783212 40610952 41392768 42091084 42661864 
1368.291 43059284 43246320 43198080 42905236 42373768 41622196 40679172 
1371.666 39578024 38362340 37084908 35803160 34583164 33486110 32556210 
1375.041 31815790 31261496 30873340 30625130 30497720 30485742 30599566 
1378.417 30862738 31308394 31977966 32913666 34158980 35749228 37695868 
1381.792 39967248 42467112 45041872 47472948 49512228 50931736 51529372 
1385.167 51174012 49828920 47575896 44622440 41264204 37848760 34670072 
1388.542 31916376 29664824 27895254 26535296 25493176 24686964 24050102 
1391.917 23532664 23102602 22738634 22429362 22171564 21967556 21821686 
1395.293 21736924 21711844 21740756 21815344 21925490 22060658 22212048 
1398.668 22370156 22528216 22682006 22830400 22974374 23114936 23251770 
1402.043 23382526 23503634 23611760 23706336 23790606 23871008 23953736 
1405.418 24042816 24137732 24234666 24329656 24421830 24515320 24618790 
1408.794 24742242 24893098 25073770 25281280 25509480 25753378 26011866 
1412.169 26288956 26591056 26923718 27288284 27681652 28098602 28534918 
1415.544 28990942 29472940 29991506 30558576 31183486 31869698 32611784 
1418.919 33394818 34196868 34992860 35758008 36470444 37112876 37676860 
1422.295 38164368 38594984 39005332 39448756 39978692 40635800 41438732 
1425.670 42384108 43456804 44641976 45933432 47329560 48825692 50406024 
1429.045 52036352 53668548 55255760 56763256 58180036 59516892 60800704 
1432.420 62063512 63334292 64640576 66011304 67485448 69116720 70969496 
1435.796 73103104 75550344 78291104 81258648 84368432 87543896 90724248 
1439.171 93848272 96842304 99592488 101946400 103748088 104843712 105121432 
1442.546 104530672 103077136 100819936 97854536 94313704 90346720 86101504 
1445.921 81732288 77380616 73178896 69261304 65742456 62701940 60164908 
1449.297 58097988 56425964 55059752 53932128 53010832 52302304 51834548 
1452.672 51636760 51718084 52062648 52632484 53381116 54269592 55263060 
1456.047 56334624 57459780 58614972 59779252 60939116 62096040 63257480 
1459.422 64431832 65625548 66839716 68068768 69297176 70503040 71648640 
1462.798 72678168 73527464 74127248 74428280 74422464 74150832 73689736 
1466.173 73117328 72498816 71872296 71253944 70649064 70055536 69463368 
1469.548 68851032 68180976 67402864 66464044 65338224 64050280 62691144 
1472.923 61387892 60260784 59381672 58762740 58379616 58199128 58201064 
1476.299 58384092 58760500 59341440 60127612 61103848 62245152 63522876 
1479.674 64916588 66420256 68041792 69799856 71716008 73809976 76095960 
1483.049 78586776 81301432 84268616 87525048 91102144 95009424 99205464 
1486.424 103572632 107923408 111984216 115421656 117899448 119098048 
1489.317 118794472 116928008 113632152 109218424 104081448 98618192 93123856 
1492.693 87763760 82614080 77678768 72940920 68409840 64131348 60197560 
1496.068 56727768 53826268 51548776 49887340 48790916 48185924 48001336 
1499.443 48181924 48683008 49465400 50491808 51717784 53093044 54565916 
1502.818 56069360 57524420 58834636 59858428 60412008 60275480 59237676 
1506.194 57205548 54297864 50837748 47196896 43642916 40286580 37127744 
1509.569 34128440 31262066 28526320 25950552 23578628 21444690 19568074 
1512.944 17943950 16549762 15354416 14325602 13434087 12651809 11954441 
1516.319 11325253 10756715 10253408 9825884 9481912 9217877 9015092 8840840 
1520.177 8660404 8448657 8206215 7961413 7756347 7621207 7558491 7546691 
1524.034 7552456 7547601 7516214 7461098 7398641 7349841 7327128 7329588 
1527.892 7345359 7361299 7370870 7376936 7388597 7413571 7452064 7493729 
1531.749 7520934 7515877 7472154 7401741 7332891 7295218 7305326 7359513 
1535.606 7440637 7526429 7599053 7649298 7675299 7679885 7665687 7631087 
1539.464 7571000 7483278 7377644 7275135 7198927 7162343 7161232 7177468 
1543.321 7186732 7171034 7124550 7058101 6991358 6944523 6927353 6935871 
1547.179 6956274 6972503 6974624 6962065 6943614 6931561 6934692 6952200 
1551.036 6974018 6986409 6978832 6949102 6904628 6858880 6825523 6813002 
1554.894 6820743 6840872 6862078 6873860 6866656 6830235 6754980 6635190 
1558.751 6480723 6320126 6191919 6123461 6119496 6167519 6246101 6332969 
1562.608 6407882 6458224 6481026 6483447 6480152 6486307 6511262 6553745 
1566.466 6604037 6648278 6676372 6684078 6676036 6661803 6653796 6661097 
1570.323 6686837 6731053 6792034 6869517 6962705 7068844 7181646 7289725 
1574.181 7380172 7443132 7478424 7499763 7531621 7599863 7717018 7880191 
1578.038 8075965 8291044 8517549 8755431 9010119 9289159 9597884 9937811 
1581.896 10306234 10698740 11110842 11537387 11970483 12397363 12797873 
1585.271 13148239 13426808 13618739 13722141 13749021 13724672 13681311 
1588.646 13654230 13679294 13785788 13998101 14333410 14798135 15384143 
1592.021 16064009 16792188 17503618 18123864 18585194 18831632 18833152 
1595.396 18589760 18130978 17508998 16784646 16023541 15281925 14602768 
1598.772 14019147 13550879 13207464 12989766 12892205 12905687 13021040 
1602.147 13232057 13535121 13926418 14399475 14940842 15529620 16140895 
1605.522 16744662 17309788 17806674 18204708 18475788 18597748 18555522 
1608.897 18345324 17975582 17467570 16852808 16170125 15463999 14774104 
1612.273 14131030 13553374 13044564 12597435 12197757 11829701 11479206 
1615.648 11138989 10811708 10510776 10255002 10061025 9936794 9879268 
1619.023 9876929 9912861 9968798 10028845 10080456 10118778 10146657 
1622.398 10174878 10216532 10282381 10376270 10495263 10632489 10781238 
1625.774 10938024 11101324 11269991 11441411 11610686 11772061 11921474 
1629.149 12059048 12189033 12317182 12448062 12581985 12714480 12836368 
1632.524 12935896 13001749 13023362 12993795 12911422 12783917 12628101 
1635.899 12467703 12325943 12216227 12140203 12089402 12050600 12008836 
1639.275 11951172 11870494 11766069 11645094 11518775 11398549 11291754 
1642.650 11197770 11109448 11014688 10900411 10755458 10574531 10360185 
1646.025 10125188 9889505 9676412 9506872 9392450 9335063 9327785 9358321 
1649.883 9409311 9458445 9479780 9441479 9315056 9090504 8798404 8508663 
1653.740 8290234 8173160 8142200 8163132 8202839 8240422 8266121 8277569 
1657.597 8277097 8268418 8254200 8234884 8208984 8174004 8127379 8067527 
1661.455 7994487 7910593 7821014 7734085 7659111 7604718 7575788 7571911 
1665.312 7587724 7613654 7638675 7650984 7641406 7605292 7543522 7462682 
1669.170 7373802 7288917 7217590 7165611 7134655 7123035 7125561 7133880 
1673.027 7136811 7121721 7077499 7000012 6896818 6787154 6692860 6629941 
1676.885 6601177 6598048 6605853 6611303 6607199 6594415 6580252 6574029 
1680.742 6581228 6598149 6612312 6603094 6549809 6439526 6279885 6100308 
1684.599 5943009 5838857 5793657 5793187 5815618 5843088 5863238 5870157 
1688.457 5862567 5842249 5812932 5780024 5750712 5732783 5732447 5752223 
1692.314 5788620 5832409 5868477 5880804 5856522 5793456 5704883 5618108 
1696.172 5562762 5553466 5584846 5634858 5676818 5683901 5638852 5541552 
1700.029 5415487 5301567 5234691 5227884 5270274 5339671 5412769 5472156 
1703.886 5507054 5513128 5493766 5458735 5421794 5394620 5384085 5390862 
1707.744 5410656 5437530 5465815 5492994 5519034 5546485 5578167 5615993 
1711.601 5659026 5704547 5748596 5787546 5820051 5846178 5867033 5882684 
1715.459 5890107 5884028 5859376 5815383 5759240 5705723 5672151 5669466 
1719.316 5699445 5754741 5823946 5895010 5958931 6011404 6052360 6085120 
1723.174 6113951 6143087 6174980 6210371 6249160 6291080 6335524 6381251 
1727.031 6425570 6465051 6496093 6516846 6528719 6536052 6544057 6555797 
1730.888 6568176 6571910 6550818 6486004 6364069 6185332 5973174 5767063 
1734.746 5608206 5517994 5491853 5509068 5544539 5577496 5593170 5584846 
1738.603 5553768 5507860 5458970 5418137 5392942 5385058 5392271 5410086 
1742.461 5434242 5461386 5489739 5519202 5550613 5585249 5623915 5665908 
1746.318 5709315 5751047 5787176 5814074 5829521 5832174 5821864 5799365 
1750.176 5766627 5727512 5687930 5655669 5637577 5637744 5655401 5684942 
1754.033 5716936 5740001 5744634 5725329 5683901 5628916 5573367 5529303 
1757.890 5501920 5489101 5482390 5470881 5444844 5399149 5334606 5257899 
1761.748 5179394 5109553 5056284 5023098 5008886 5009825 5020618 5034696 
1765.605 5045087 5046194 5034595 5011467 4981972 4954757 4936828 4930929 
1769.463 4933376 4934415 4923356 4891621 4837641 4770502 4705885 4660703 
1773.320 4644526 4656952 4689841 4733050 4778307 4821994 4864413 4907740 
1777.177 4953014 4998831 5040964 5074654 5096881 5108078 5112202 5115622 
1781.035 5123601 5137750 5155923 5173392 5185195 5188716 5184524 5176175 
1784.892 5168832 5166652 5172051 5185430 5205717 5231606 5261554 5293651 
1788.750 5324476 5348493 5359798 5351982 5321793 5270609 5205918 5139192 
1792.607 5082566 5043981 5025545 5023601 5032148 5044685 5056720 5065301 
1796.465 5068519 5065536 5055278 5037713 5013076 4983681 4952143 4922417 
1800.322 4897787 4880094 4870142 4867495 4871013 4880195 4894403 4912900 
1804.179 4934482 4957539 4979927 5000507 5019177 5036841 5054977 5074286 
1808.037 5094132 5112102 5125177 5131111 5129737 5123735 5117432 5115521 
1811.894 5121020 5134430 5153777 5175806 5198071 5219131 5239587 5261319 
1815.752 5286239 5315151 5348024 5383347 5419815 5456118 5491618 5526417 
1819.609 5560614 5594009 5626566 5657683 5686620 5712169 5732413 5745004 
1823.467 5747891 5740438 5724692 5705756 5690749 5685143 5691623 5707603 
1827.324 5726269 5738893 5737718 5719722 5688702 5654964 5630830 5626902 
1831.181 5646941 5687393 5739732 5794866 5845741 5889166 5925912 5958830 
1835.039 5991785 6027363 6066976 6111364 6161234 6218203 6284659 6362993 
1838.896 6454020 6556840 6668600 6785033 6901330 7013380 7117443 7211223 
1842.754 7294106 7368949 7441446 7519686 7611766 7721673 7848409 7984665 
1846.611 8120492 8245183 8350015 8430818 8487782 8524544 8545596 8553741 
1850.469 8548468 8526842 8484706 8419636 8332655 8228502 8114044 7995195 
1854.326 7876513 7758978 7641676 7523361 7404539 7287097 7174201 7068507 
1858.183 6970415 6878303 6789206 6700834 6612615 6525826 6443494 6367599 
1862.041 6299215 6237597 6181197 6129678 6084213 6046782 6019333 6001427 
1865.898 5989837 5978448 5960879 5932562 5894271 5851316 5811992 5783987 
1869.756 5771898 5774517 5787042 5803395 5818976 5831166 5839629 5844667 
1873.613 5846615 5845036 5838655 5826868 5809775 5787915 5761792 5731406 
1877.470 5695114 5650701 5596694 5533498 5463969 5392741 5324476 5262024 
1881.328 5205684 5153039 5101071 5047635 4993468 4942223 4898356 4865384 
1885.185 4843672 4830672 4820620 4808057 4788693 4761725 4728696 4693324 
1889.043 4660770 4635853 4622290 4622859 4638398 4667970 4708029 4753115 
1892.900 4796565 4832180 4856471 4870075 4877179 4884283 4897251 4918664 
1896.758 4947351 4979559 5010998 5039892 5067179 5096512 5131346 5173291 
1900.615 5220506 5268597 5312334 5348158 5375397 5396431 5414246 5431155 
1904.472 5447226 5460647 5469036 5471016 5467190 5460312 5452796 5446287 
1908.330 5440147 5432531 5421660 5407335 5391768 5378382 5370600 5369392 
1912.187 5373585 5380295 5386467 5391164 5394384 5397505 5401061 5403174 
1916.045 5399686 5386635 5361978 5327730 5290666 5259643 5240325 5233786 
1919.902 5234658 5234523 5225335 5202733 5168195 5128194 5091282 5063290 
1923.760 5046227 5037143 5031177 5024573 5016797 5010361 5009087 5015288 
1927.617 5027858 5042707 5054775 5060105 5058429 5052261 5044618 5038182 
1931.474 5032215 5024003 5011065 4992731 4972152 4955026 4947216 4951841 
1935.332 4967560 4989882 5012506 5030439 5042440 5049613 5054809 5058630 
1939.189 5059267 5052362 5033757 5001445 4957706 4908711 4862637 4825412 
1943.047 4799614 4784237 4776733 4774656 4778843 4791306 4814355 4847793 
1946.904 4888237 4929756 4967225 4997825 5022931 5045892 5070598 5098323 
1950.761 5126015 5149351 5163232 5166552 5162092 5155420 5151698 5152939 
1954.619 5156124 5155587 5144892 5121321 5087259 5049781 5016495 4993971 
1958.476 4982843 4979525 4977581 4972453 4962499 4949630 4937900 4929824 
1962.334 4925098 4922283 4918396 4913369 4909616 4909884 4916955 4929622 
1966.191 4942927 4950970 4949529 4939844 4927511 4920909 4926606 4945340 
1970.049 4971515 4996183 5010260 5010796 5000507 4988340 4984686 4996350 
1973.906 5025746 5070296 5125378 5187878 5257698 5334472 5416829 5499067 
1977.763 5569944 5618544 5636905 5624217 5587464 5537122 5485310 5440147 
1981.621 5404617 5377846 5356745 5340107 5328199 5323470 5327428 5339436 
1985.478 5356544 5373921 5388245 5398813 5407167 5416326 5426928 5436557 
1989.336 5440247 5433235 5412971 5383280 5351714 5328635 5322564 5335914 
1993.193 5364964 5401967 5438771 5470109 5494336 5513833 5531014 5546485 
1997.051 5558533 5563937 5561218 5551452 5538632 5527323 5520880 5517692 
2000.908 5512625 5498195 5469170 5424411 5370298 5316526 5274265 5251728 
2004.765 5251191 5269235 5298783 5331419 5360301 5381335 5391936 5391265 
2008.623 5379959 5359160 5332694 5306464 5285837 5276143 5279430 5293148 
2012.480 5313407 5335243 5356644 5377980 5401564 5428773 5458030 5484504 
2016.338 5501987 5506920 5501047 5491954 5491417 5509739 5551016 5611328 
2020.195 5680477 5745339 5796142 5830361 5850980 5865421 5880300 5897429 
2024.052 5914592 5927154 5931017 5926382 5916977 5909117 5908278 5915835 
2027.910 5929573 5944520 5956915 5964205 5967665 5970285 5974216 5980195 
2031.767 5988023 5997765 6011808 6034990 6072385 6127762 6198977 6279313 
2035.625 6358891 6428193 6482775 6523876 6557412 6591320 6630514 6676473 
2039.482 6725669 6772648 6811958 6840300 6858308 6868171 6872379 6873624 
2043.340 6874365 6877024 6884868 6900690 6926174 6960247 6997756 7031699 
2047.197 7055104 7063186 7056080 7037693 7013145 6986409 6958765 6928834 
2051.054 6894664 6856322 6817377 6783384 6761609 6755989 6765682 6785807 
2054.912 6807953 6825792 6836327 6841410 6845315 6853057 6866084 6882612 
2058.769 6897559 6906783 6908096 6903417 6896448 6891297 6890254 6892038 
2062.627 6893452 6891196 6884800 6876182 6869383 6867632 6870662 6874870 
2066.484 6874095 6862953 6839424 6806304 6769888 6737379 6713723 6700330 
2070.342 6694408 6691952 6689125 6684751 6679737 6676002 6674219 6673007 
2074.199 6668936 6658607 6640068 6614331 6584424 6554788 6528955 6508101 
2078.056 6491587 6477932 6466295 6456677 6450455 6448942 6451935 6458426 
2081.914 6465892 6472517 6478504 6485600 6497271 6515265 6539988 6568311 
2085.771 6595021 6614668 6623145 6619075 6603868 6580151 6550617 6517317 
2089.629 6481262 6444032 6407344 6374391 6348468 6332364 6326850 6330716 
2093.486 6341273 6355428 6371063 6386765 6402435 6417029 6428933 6435861 
2097.344 6435356 6426882 6412725 6397021 6384210 6377552 6377518 6381385 
2101.201 6385925 6388548 6389892 6392919 6403040 6423788 6457047 6500365 
2105.058 6549305 6598822 6645922 6689697 6731860 6774634 6818690 6863256 
2108.916 6906076 6944928 6979068 7010451 7042037 7076826 7116433 7159783 
2112.773 7204014 7245621 7282110 7312604 7337811 7358873 7377139 7392810 
2116.631 7406291 7418459 7430862 7446401 7467671 7495852 7529834 7566179 
2120.488 7600537 7628862 7650411 7666058 7679278 7693207 7709902 7729025 
2124.345 7748859 7767276 7783602 7798816 7814740 7833834 7856944 7882621 
2128.203 7908163 7930502 7947340 7958747 7965665 7970626 7976026 7982977 
2132.060 7992631 8005793 8023478 8047038 8076472 8110567 8145137 8175254 
2135.918 8196255 8205540 8204662 8198112 8191966 8192001 8200576 8217561 
2139.775 8239983 8264297 8287127 8307154 8322994 8333195 8335423 8326575 
2143.633 8304554 8269329 8224416 8175524 8128661 8088489 8055476 8027157 
2147.490 7998806 7966037 7926621 7880596 7828706 7772099 7709497 7639113 
2151.347 7558491 7467165 7367129 7261759 7154865 7047594 6938699 6827038 
2155.205 6713218 6604608 6517283 6471138 6487114 6578167 6741047 6956880 
2159.062 7195356 7424357 7618476 7765151 7862478 7917713 7938499 7933404 
2162.920 7909749 7872330 7828166 7783569 7744305 7712937 7687946 7664304 
2166.777 7634965 7594434 7540353 7473536 7397630 7316244 7231808 7144861 
2170.635 7056316 6967755 6884161 6811252 6756191 6723145 6711838 6718434 
2174.492 6735360 6755013 6771302 6780591 6780826 6770730 6748686 6713386 
2178.349 6665572 6608376 6549507 6497372 6460040 6441342 6439156 6446790 
2182.207 6455097 6457047 6450321 6437643 6425200 6419047 6423081 6436331 
2186.064 6455904 6476553 6495690 6512002 6526365 6539988 6553880 6567267 
2189.922 6578907 6588023 6594112 6598620 6602792 6606997 6610866 6613490 
2193.779 6613591 6612784 6613658 6619142 6631960 6651171 6673882 6694610 
2197.636 6708507 6713520 6710896 6704906 6699892 6699051 6701575 6703560 
2201.494 6700498 6688115 6666043 6636906 6605483 6576418 6553106 6536657 
2205.351 6526197 6520445 6519032 6521521 6528719 6539651 6553106 6567099 
2209.209 6579782 6591690 6604810 6622136 6646360 6678055 6714598 6750840 
2213.066 6781499 6802939 6814718 6818859 6819532 6820508 6823167 6827643 
2216.924 6831312 6832659 6830336 6825018 6818320 6811992 6807415 6804655 
2220.781 6803510 6803780 6805833 6810276 6817344 6826163 6834914 6840838 
2224.638 6842117 6837741 6828889 6817579 6806540 6797351 6790688 6785504 
2228.496 6780692 6775307 6768912 6762081 6755552 6749393 6743773 6738389 
2232.353 6733644 6730111 6729639 6733509 6742091 6754508 6768576 6782038 
2236.211 6793683 6803275 6812093 6821820 6833063 6845517 6858038 6869113 
2240.068 6878976 6888874 6901094 6917826 6939036 6962705 6985365 7003110 
2243.926 7014357 7020317 7025368 7034258 7050894 7075714 7105824 7135666 
2247.783 7159649 7174336 7179220 7176727 7170091 7162647 7156516 7151598 
2251.640 7148230 7147051 7149678 7159009 7176694 7203239 7236053 7270789 
2255.498 7302192 7325511 7338147 7339967 7332217 7317221 7296970 7273215 
2259.355 7247305 7220622 7194548 7171236 7152272 7138866 7132062 7131590 
2263.213 7137417 7149173 7166419 7188383 7213447 7239219 7263174 7282818 
2267.070 7296970 7305427 7309336 7310313 7308831 7305629 7300137 7292219 
2270.927 7282312 7272103 7263174 7257177 7254650 7254583 7255189 7254549 
2274.785 7252022 7248047 7245217 7245621 7251281 7262501 7278134 7296363 
2278.642 7315435 7334373 7353076 7371746 7390047 7406966 7421256 7431772 
2282.500 7438075 7441581 7444210 7447952 7453716 7460929 7467536 7471143 
2286.357 7470199 7464637 7456109 7446873 7439458 7434705 7432413 7431267 
2290.215 7429817 7427896 7425807 7425807 7429413 7438042 7451963 7470435 
2294.072 7492144 7515506 7539578 7563212 7585836 7606775 7625524 7641575 
2297.929 7654862 7665788 7674961 7682887 7689328 7693949 7695500 7693713 
2301.787 7688519 7681065 7672971 7666024 7661573 7659752 7660325 7662551 
2305.644 7665923 7670543 7677052 7685652 7696377 7708417 7720391 7731521 
2309.502 7741067 7750005 7759518 7771054 7785525 7802494 7820575 7838119 
2313.359 7853841 7867336 7879550 7891394 7904317 7919265 7936036 7954596 
2317.217 7974844 7996815 8020879 8047308 8075865 8105638 8135278 8163132 
2321.074 8187442 8206959 8220229 8225125 8219216 8199936 8165428 8115867 
2324.931 8053654 7984226 7914001 7849860 7797332 7759383 7736379 7726125 
2328.789 7725889 7732736 7744642 7760091 7778441 7798344 7818281 7836669 
2332.646 7852424 7865413 7876851 7888559 7902326 7919366 7939748 7962662 
2336.504 7986961 8011395 8035697 8059560 8083291 8106786 8130215 8153612 
2340.361 8176638 8199631 8222255 8243799 8262372 8275307 8279764 8273888 
2344.219 8258151 8236268 8214285 8199665 8199936 8220026 8261967 8324885 
2348.076 8405617 8499945 8602642 8709115 8814870 8915105 9006534 9086613 
2351.933 9154118 9209652 9254938 9292646 9325178 9354530 9382157 9408872 
2355.791 9435757 9464100 9495019 9529801 9568447 9610485 9655068 9700840 
2359.648 9747025 9793315 9839543 9885674 9930997 9974968 10016570 10055633 
2363.506 10092461 10128343 10164091 10199911 10234783 10266911 10293985 
2366.881 10314377 10327745 10334905 10337518 10337247 10335041 10331105 
2370.256 10325302 10317974 10310136 10303655 10300534 10302502 10310101 
2373.631 10322690 10339621 10359812 10383838 10412854 10449068 10494415 
2377.007 10550223 10617006 10694156 10780899 10876628 10980976 11093914 
2380.382 11214906 11342292 11473764 11606057 11735668 11859939 11977363 
2383.757 12087018 12188965 12283232 12369441 12447074 12515069 12572844 
2387.132 12620186 12657574 12685924 12705848 12718131 12722873 12720007 
2390.508 12709635 12691621 12666205 12633422 12593512 12546786 12494097 
2393.883 12436776 12377043 12317659 12261896 12212308 12171007 12139454 
2397.258 12118158 12107460 12107766 12119419 12142418 12176561 12220487 
2400.633 12272428 12330408 12392691 12458667 12528574 12603984 12686503 
2404.009 12777398 12877869 12987684 13106883 13234858 13371039 13515192 
2407.384 13666779 13825089 13989444 14159031 14333444 14512553 14696294 
2410.759 14884639 15076735 15270976 15464755 15654808 15837830 16010512 
2414.134 16169988 16313765 16439835 16546767 16634136 16702412 16753513 
2417.510 16790224 16815642 16832622 16842990 16847296 16844954 16834896 
2420.885 16816332 16789088 16753823 16711812 16664881 16614649 16563220 
2424.260 16512899 16466746 16428135 16401088 16388977 16394205 16418053 
2427.635 16460070 16519301 16594579 16685160 16790568 16910920 17045916 
2431.010 17195118 17357342 17531666 17717068 17913390 18120824 18339898 
2434.386 18570668 18813016 19066022 19328564 19600070 19880240 20169516 
2437.761 20468742 20778462 21099012 21430278 21771794 22123306 22484876 
2441.136 22856976 23240340 23636004 24044988 24467610 24904220 25355004 
2444.511 25819372 26296102 26783646 27279782 27782454 28289386 28799672 
2447.887 29312508 29827158 30342704 30857080 31367618 31870730 32363330 
2451.262 32843546 33310092 33762708 34201276 34624396 35029856 35413764 
2454.637 35771604 36099028 36391964 36646952 36860788 37030524 37152684 
2458.012 37224372 37243072 37206936 37115580 36969260 36769504 36517544 
2461.388 36215560 35866024 35471828 35037540 34568060 34068800 33546024 
2464.763 33005428 32453402 31896584 31342048 30797606 30271290 29770698 
2468.138 29302122 28870348 28477882 28126104 27814738 27543734 27312418 
2471.513 27120442 26966624 26848566 26763522 26706756 26673810 26659470 
2474.889 26660140 26672226 26692766 26718876 26747630 26775786 26800490 
2478.264 26819452 26831048 26834396 26829040 26814342 26789638 26753902 
2481.639 26706578 26648056 26579290 26502578 26420032 26333488 26244252 
2485.014 26152958 26060100 25966136 25872404 25780484 25691608 25606334 
2488.390 25524134 25443144 25360940 25275310 25184922 25089146 24988830 
2491.765 24884816 24777916 24668236 24555498 24438830 24317392 24190452 
2495.140 24057000 23916344 23767472 23609240 23440958 23262640 23074788 
2498.515 22879296 22678200 22473744 22267710 22061320 21855378 21650368 
2501.891 21446604 21244954 21046040 20850764 20659780 20473916 20293722 
2505.266 20119954 19953644 19795442 19645826 19504198 19369304 19239404 
2508.641 19112694 18987960 18864678 18743474 18624828 18509396 18397278 
2512.016 18287988 18181006 18076158 17973890 17874858 17779818 17689320 
2515.392 17602806 17519244 17437596 17357618 17280410 17208186 17143586 
2518.767 17088992 17045398 17012284 16987922 16970728 16959600 16954466 
2522.142 16956430 16966664 16985614 17012214 17044398 17078964 17113324 
2525.517 17145724 17175780 17204426 17232868 17261932 17291826 17321512 
2528.893 17349376 17373480 17391518 17402380 17405142 17400072 17388034 
2532.268 17370826 17350410 17328822 17307098 17286066 17265138 17243210 
2535.643 17219560 17193914 17167302 17141932 17120182 17104606 17096126 
2539.018 17094748 17099504 17108464 17120320 17134108 17149412 17166440 
2542.394 17184882 17204496 17224732 17245038 17265380 17285722 17306548 
2545.769 17328098 17350134 17371652 17391620 17408864 17422972 17434354 
2549.144 17443978 17452980 17462018 17471432 17480608 17488680 17495132 
2552.519 17499960 17503584 17507136 17511242 17516416 17522452 17528732 
2555.895 17534322 17538220 17539496 17537496 17531526 17520694 17504342 
2559.270 17482300 17454394 17420798 17382138 17338892 17290996 17238798 
2562.645 17182366 17122148 17059216 16995296 16932486 16872510 16816916 
2566.020 16766151 16720420 16679272 16642157 16609417 16581327 16558161 
2569.396 16540227 16527664 16520092 16517133 16518440 16523775 16533757 
2572.771 16548833 16569210 16594891 16625563 16660370 16698485 16738672 
2576.146 16780204 16822220 16864036 16905546 16946646 16987680 17029202 
2579.521 17071692 17115668 17161096 17207736 17255692 17304894 17355998 
2582.896 17410452 17469674 17535010 17607086 17685452 17768530 17854038 
2586.272 17939530 18022516 18101790 18176688 18247488 18315220 18381134 
2589.647 18446506 18512610 18580076 18649212 18719844 18791044 18861666 
2593.022 18931020 18998344 19063944 19128378 19192546 19257102 19322156 
2596.397 19387146 19451110 19513174 19573136 19631580 19690030 19750464 
2599.773 19814898 19884750 19960998 20043504 20131476 20223942 20320110 
2603.148 20419146 20520706 20624930 20732064 20842804 20957746 21077622 
2606.523 21202820 21333414 21468606 21607706 21749256 21892036 22034896 
2609.898 22176412 22315738 22451656 22583046 22708468 22826768 22936684 
2613.274 23037364 23128218 23208742 23278966 23338574 23388330 23428616 
2616.649 23461000 23487090 23508250 23525634 23539800 23550366 23556660 
2620.024 23558130 23554492 23546516 23535778 23524304 23514512 23507866 
2623.399 23505558 23507726 23514022 23523570 23535708 23549804 23565510 
2626.775 23582758 23601650 23622500 23645626 23671658 23700840 23733700 
2630.150 23770238 23810312 23853820 23900588 23950340 24003386 24059416 
2633.525 24118222 24179628 24242620 24306248 24369502 24431786 24492708 
2636.900 24552240 24610584 24668342 24725652 24783212 24841520 24901344 
2640.276 24963280 25028174 25095888 25166208 25238156 25310854 25383352 
2643.651 25455266 25526734 25598426 25671394 25746240 25823768 25904266 
2647.026 25987488 26073682 26162778 26255128 26350916 26449998 26552414 
2650.401 26657568 26765214 26874966 26986650 27100586 27217124 27336624 
2653.777 27459546 27586068 27716334 27850774 27989530 28132892 28280722 
2657.152 28432952 28588882 28747842 28909374 29073020 29238856 29407094 
2660.527 29577914 29751714 29928244 30107084 30287668 30469642 30652224 
2663.902 30835204 31018084 31200398 31382042 31562944 31743136 31923256 
2667.278 32104098 32286442 32471220 32658826 32849692 33043650 33240906 
2670.653 33441480 33645364 33852676 34063208 34276568 34491892 34708476 
2674.028 34925384 35141820 35357328 35570996 35782040 35989404 36192296 
2677.403 36390520 36584584 36775708 36966084 37157812 37353048 37553396 
2680.779 37759912 37973464 38195264 38426300 38668396 38922876 39190996 
2684.154 39473468 39769960 40080024 40403184 40738852 41086940 41447408 
2687.529 41819928 42203684 42597240 42998988 43407112 43820640 44239332 
2690.904 44663532 45094212 45532312 45978772 46433952 46898028 47370980 
2694.280 47852332 48341776 48838556 49341884 49850992 50365580 50885616 
2697.655 51411500 51944028 52483568 53030224 53583148 54141136 54702468 
2701.030 55265844 55829916 56393400 56955500 57514548 58068520 58614784 
2704.405 59150532 59672760 60179256 60667480 61135352 61580512 62000524 
2707.781 62392788 62754736 63084148 63379616 63640520 63866308 64057112 
2711.156 64213312 64335220 64423680 64479604 64503820 64497360 64460464 
2714.531 64393552 64296028 64167568 64008152 63817560 63596332 63345148 
2717.906 63064836 62756532 62421972 62063476 61684644 61290316 60885932 
2721.281 60477396 60070308 59669452 59279000 58902556 58543152 58204096 
2724.657 57888276 57598492 57336880 57104936 56903484 56732712 56592840 
2728.032 56483656 56405288 56357372 56339264 56349412 56386120 56446904 
2731.407 56529468 56632400 56754272 56894232 57051504 57225052 57413488 
2734.782 57614724 57826724 58047276 58274720 58507136 58742712 58979668 
2738.158 59215844 59449144 59677668 59900144 60115972 60324664 60526184 
2741.533 60720748 60908652 61090572 61267728 61441900 61615068 61789608 
2744.908 61967160 62149256 62336520 62529100 62727092 62929964 63137180 
2748.283 63347296 63558468 63767328 63970648 64164952 64347400 64516888 
2751.659 64673528 64819024 64955296 65085532 65211916 65336832 65462172 
2755.034 65589324 65719208 65852216 65987236 66122792 66256120 66384232 
2758.409 66504048 66612608 66707528 66786432 66846832 66886024 66901168 
2761.784 66889504 66849032 66778316 66677004 66545680 66385240 66197304 
2765.160 65983728 65747000 65490296 65217384 64932980 64641340 64346744 
2768.535 64053008 63763224 63480264 63206888 62946008 62700452 62473164 
2771.910 62266224 62080828 61917216 61774364 61650312 61542792 61449224 
2775.285 61366748 61292336 61223280 61155568 61085580 61009040 60921312 
2778.661 60817436 60693236 60544352 60367916 60162628 59928520 59667480 
2782.036 59383192 59080144 58762892 58436360 58105224 57773164 57443784 
2785.411 57119712 56802796 56493808 56192168 55896500 55604276 55313264 
2788.786 55021504 54728176 54433316 54137832 53842696 53548552 53256216 
2792.162 52965908 52678456 52395040 52117752 51848812 51590864 51345632 
2795.537 51114444 50897460 50693956 50503308 50324356 50156296 49998636 
2798.912 49850400 49710796 49578852 49453592 49333936 49219288 49108824 
2802.287 49001768 48897068 48793396 48689348 48583688 48475460 48364296 
2805.663 48250604 48135244 48018952 47902832 47787860 47674800 47564028 
2809.038 47456092 47350696 47247356 47144820 47041492 46935640 46825904 
2812.413 46711436 46591908 46467768 46339312 46207204 46071716 45933540 
2815.788 45793684 45654088 45517668 45388680 45271688 45171192 45091492 
2819.164 45036136 45007692 45008204 45039112 45101488 45195312 45320120 
2822.539 45473880 45653756 45855948 46076024 46309156 46551300 46797672 
2825.914 47044000 47285776 47517928 47735560 47933320 48106224 48249940 
2829.289 48360776 48436340 48475236 48477828 48445600 48381408 48289304 
2832.665 48173040 48036640 47883412 47716144 47536784 47347000 47148400 
2836.040 46942356 46730364 46513532 46292676 46068436 45841436 45612204 
2839.415 45381584 45150788 44920744 44692064 44464612 44237536 44009584 
2842.790 43779372 43546604 43311808 43076880 42844820 42618880 42402116 
2846.166 42197620 42007164 41832476 41674456 41533884 41411144 41306800 
2849.541 41220592 41151992 41100272 41064284 41042836 41034788 41038976 
2852.916 41054124 41078672 41111196 41150136 41193776 41241068 41290732 
2856.291 41341712 41392768 41442236 41488276 41528156 41559292 41578984 
2859.667 41584964 41575048 41547848 41501872 41435820 41349036 41240448 
2863.042 41109520 40956096 40780776 40585556 40373220 40148272 39916428 
2866.417 39684020 39458080 39245104 39050572 38878848 38732764 38614176 
2869.792 38523616 38460836 38424780 38413704 38424524 38454028 38497908 
2873.167 38552000 38612440 38676508 38742328 38809164 38876744 38945020 
2876.543 39013560 39081604 39148352 39212788 39274480 39333496 39390160 
2879.918 39445380 39499956 39554396 39609492 39665216 39722068 39780492 
2883.293 39840628 39902844 39967212 40033624 40101720 40170916 40241068 
2886.668 40311448 40381548 40450536 40517496 40581372 40641332 40696744 
2890.044 40747184 40793332 40835776 40875744 40914624 40953508 40993456 
2893.419 41035080 41078672 41123984 41170716 41218480 41266936 41316384 
2896.794 41367004 41419708 41475188 41534176 41596380 41661508 41728364 
2900.169 41795700 41862288 41926872 41988076 42044760 42095208 42137776 
2903.545 42170492 42191740 42200832 42197584 42182576 42156616 42120360 
2906.920 42074252 42017968 41951580 41875020 41789356 41696156 41597584 
2910.295 41495640 41391748 41286396 41179208 41069456 40956276 40839376 
2913.670 40719492 40597596 40475012 40353188 40232740 40114472 39998492 
2917.046 39885120 39774716 39668192 39566556 39470856 39382436 39302592 
2920.421 39232736 39174604 39129896 39100456 39087404 39091280 39111584 
2923.796 39146720 39193824 39249636 39309920 39370280 39426480 39474668 
2927.171 39511352 39534472 39542348 39534832 39512840 39478476 39435260 
2930.547 39387332 39340352 39300164 39273468 39266284 39284492 39332916 
2933.922 39414944 39532980 39688084 39880396 40108988 40372060 40666504 
2937.297 40988576 41333368 41695684 42070712 42454032 42842224 43233580 
2940.672 43626208 44018420 44407796 44789804 45158656 45506700 45824536 
2944.048 46102440 46330352 46498524 46599396 46627908 46582796 46467284 
2947.423 46289396 46061696 45798432 45515792 45228956 44949512 44686192 
2950.798 44443580 44222748 44022640 43840944 43675484 43524448 43386936 
2954.173 43262280 43150100 43049732 42959772 42878500 42804668 42736516 
2957.549 42673308 42615260 42562780 42516768 42478036 42446688 42422208 
2960.924 42403800 42389840 42379028 42370808 42364528 42360620 42359708 
2964.299 42362700 42370444 42383960 42404128 42431744 42467260 42510884 
2967.674 42562084 42619796 42682008 42746716 42811396 42873672 42931648 
2971.050 42983772 43028584 43065392 43093892 43114640 43129244 43140512 
2974.425 43151968 43167080 43188672 43217476 43251300 43284460 43308404 
2977.800 43312576 43285376 43216380 43097848 42925756 42700616 42427544 
2981.175 42115652 41776332 41422368 41066180 40717816 40385440 40073736 
2984.551 39785104 39519628 39276332 39053836 38850944 38667312 38502792 
2987.926 38356912 38227176 38108876 37992740 37866112 37713392 37517380 
2991.301 37263504 36942312 36551532 36097588 35594520 35062788 34523032 
2994.676 33994872 33493302 33025664 32593280 32192372 31816180 31456772 
2998.052 31107664 30764316 30424186 30086984 29753382 29424466 29101612 
3001.427 28785368 28476008 28173654 27877764 27588220 27305502 27030090 
3004.802 26763310 26506274 26259774 26023862 25798380 25582084 25374324 
3008.177 25174178 24981564 24796368 24618614 24447908 24282982 24122146 
3011.552 23963504 23805308 23647376 23490448 23335988 23186232 23043096 
3014.928 22907236 22778858 22657184 22541198 22430234 22323900 22222128 
3018.303 22125050 22032248 21942880 21855622 21768800 21681018 21591062 
3021.678 21498164 21402360 21303624 21202438 21099778 20997214 20896690 
3025.053 20800916 20712670 20634624 20568332 20514730 20472874 20441060 
3028.429 20416054 20394036 20370734 20341360 20302020 20248936 20179790 
3031.804 20093266 19990036 19871640 19740688 19600242 19453640 19303622 
3035.179 19153136 19004538 18860076 18721818 18590762 18467388 18351306 
3038.554 18241646 18137130 18037024 17941014 17849586 17763316 17683108 
3041.930 17608948 17540358 17475882 17413694 17352548 17291134 17229110 
3045.305 17166440 17103296 17039850 16976552 16913158 16850292 16788572 
3048.680 16728891 16672317 16619572 16570862 16525703 16482612 16440110 
3052.055 16396133 16349133 16297735 16241390 16180031 16114451 16045751 
3055.431 15975585 15905499 15836935 15770996 15707847 15647525 15589890 
3058.806 15535113 15483160 15434884 15390838 15351739 15317585 15287828 
3062.181 15261882 15239025 15218676 15200901 15185940 15174000 15165113 
3065.556 15158799 15154338 15150771 15147340 15143291 15138247 15131900 
3068.932 15123666 15112928 15098691 15080234 15057147 15029500 14997568 
3072.307 14962276 14924415 14884501 14843390 14801460 14759329 14717818 
3075.682 14677512 14638888 14602460 14567783 14534548 14502103 14470004 
3079.057 14438215 14406566 14375329 14344437 14313856 14283312 14252734 
3082.433 14222194 14192066 14162865 14134795 14107789 14081229 14054704 
3085.808 14027360 13999230 13970898 13943319 13917967 13895866 13877768 
3089.183 13863948 13853822 13846980 13842500 13839523 13837163 13834393 
3092.558 13830390 13824404 13816434 13807301 13797998 13790234 13785377 
3095.934 13784078 13785753 13789618 13794099 13797622 13800050 13801179 
3099.309 13801863 13803027 13805489 13809593 13815579 13823002 13831792 
3102.684 13841850 13852762 13864153 13875511 13886048 13895113 13902571 
3106.059 13908832 13914477 13920669 13928163 13937264 13947836 13959195 
3109.435 13970932 13982601 13994063 14005733 14017812 14030542 14043958 
3112.810 14057956 14072398 14087115 14102140 14117133 14131612 14145064 
3116.185 14156464 14165706 14172621 14178202 14183816 14191004 14200727 
3119.560 14213566 14228664 14244859 14260643 14274614 14286290 14295570 
3122.936 14302829 14308549 14312829 14315671 14316870 14316150 14313891 
3126.311 14310671 14307795 14306356 14307726 14312829 14322109 14335328 
3129.686 14352040 14371117 14391221 14411052 14429069 14444861 14458356 
3133.061 14469764 14480418 14491552 14504467 14519782 14537564 14557504 
3136.437 14578816 14600473 14621787 14641903 14660547 14677477 14693106 
3139.812 14708015 14722891 14738830 14756998 14777943 14802043 14829367 
3143.187 14859162 14890810 14923421 14956035 14988204 15019313 15049087 
3146.562 15077387 15104385 15130563 15156775 15184225 15213494 15245272 
3149.938 15279728 15316109 15353695 15391387 15428293 15463965 15498473 
3153.313 15531405 15563343 15594081 15623859 15653022 15682152 15712004 
3156.688 15743749 15777765 15814565 15853740 15894672 15936330 15978301 
3160.063 16020482 16063148 16107298 16153583 16202936 16255492 16311152 
3163.438 16369432 16429786 16491249 16553514 16615992 16678447 16740495 
3166.814 16802038 16862728 16922048 16979686 17034818 17087062 17136314 
3170.189 17182778 17227214 17270792 17314272 17358064 17401656 17443528 
3173.564 17481920 17515312 17542428 17563716 17580552 17594906 17609122 
3176.939 17624960 17643006 17663298 17685350 17708162 17731562 17755414 
3180.315 17780024 17805432 17831908 17859596 17888152 17917948 17949338 
3183.690 17982904 18019856 18060234 18104138 18151016 18199594 18248178 
3187.065 18295452 18340796 18384106 18426280 18468838 18513544 18562542 
3190.440 18616666 18676294 18740948 18808724 18877482 18944934 19009594 
3193.816 19070800 19129072 19185792 19242660 19301164 19362270 19426162 
3197.191 19492314 19559860 19628250 19696686 19765064 19832932 19900222 
3200.566 19966966 20032782 20098090 20163024 20228524 20295040 20363200 
3203.941 20433246 20504622 20577122 20649980 20722958 20795876 20868912 
3207.317 20942342 21016202 21090562 21165804 21241474 21317752 21394390 
3210.692 21471008 21547116 21621986 21694950 21766222 21836388 21906602 
3214.067 21978604 22053548 22131816 22212888 22295090 22376542 22455878 
3217.442 22532614 22607374 22682146 22758956 22839062 22923268 23010742 
3220.818 23099910 23188958 23276030 23360568 23442394 23522416 23601368 
3224.193 23680230 23759458 23839328 23919424 23999570 24079310 24158610 
3227.568 24237538 24316656 24396630 24478020 24561144 24646108 24731964 
3230.943 24817416 24900852 24980862 25056044 25125972 25191032 25252344 
3234.319 25311730 25370848 25431726 25495708 25563914 25637052 25714984 
3237.694 25797326 25883342 25971448 26060418 26148876 26235804 26320428 
3241.069 26402286 26481762 26558790 26633682 26707246 26779944 26852832 
3244.444 26926822 27002904 27082000 27164706 27250992 27340718 27433426 
3247.820 27528838 27626460 27726152 27827492 27930092 28033248 28136426 
3251.195 28239242 28341408 28443176 28545356 28648340 28752904 28859194 
3254.570 28967138 29076244 29186084 29296062 29406066 29515850 29625766 
3257.945 29735640 29845898 29956148 30066282 30176020 30284576 30391952 
3261.321 30497578 30601700 30704744 30807566 30911228 31016802 31124928 
3264.696 31235612 31348280 31461868 31575344 31687458 31797856 31906388 
3268.071 32013242 32118906 32223452 32326702 32428480 32528568 32626998 
3271.446 32724560 32821928 32920246 33020228 33122562 33227030 33333850 
3274.822 33442374 33552430 33663876 33776532 33890184 34004832 34119872 
3278.197 34234832 34349360 34463520 34577352 34691392 34806612 34923840 
3281.572 35044220 35168192 35295832 35426884 35559960 35693860 35827268 
3284.947 35958988 36088624 36216708 36344080 36472316 36602572 36735500 
3288.323 36871320 37009528 37149220 37289932 37431416 37574172 37719104 
3291.698 37867232 38019212 38175220 38334976 38497328 38661332 38825868 
3295.073 38990036 39153936 39317968 39483232 39651276 39823304 40000344 
3298.448 40182324 40368424 40557256 40746820 40935744 41123288 41310116 
3301.823 41497716 41688316 41884288 42087248 42297936 42516296 42741196 
3305.199 42971588 43206352 43444536 43685744 43930388 44178472 44430732 
3308.574 44687660 44949808 45217560 45491172 45770484 46054804 46343916 
3311.949 46637096 46934052 47235020 47540516 47851040 48167192 48488944 
3315.324 48816424 49149340 49487308 49830332 50178832 50533012 50893252 
3318.700 51259348 51631016 52007556 52387976 52771232 53156104 53541732 
3322.075 53927096 54311344 54694464 55076568 55458292 55840996 56225316 
3325.450 56611528 56999060 57386224 57770400 58148936 58519496 58880356 
3328.825 59230804 59570744 59900524 60220856 60531784 60833444 61125664 
3332.201 61407736 61678040 61934716 62175028 62396380 62596688 62774948 
3335.576 62931956 63068940 63188456 63292548 63382296 63457488 63517088 
3338.951 63559504 63583440 63588156 63573464 63539216 63485408 63411400 
3342.326 63316704 63200100 63061544 62900468 62716908 62510700 62281480 
3345.702 62028500 61751524 61451020 61128180 60785420 60425300 60050028 
3349.077 59660636 59257276 58839340 58406188 57957372 57494200 57018332 
3352.452 56532116 56038072 55538116 55033692 54525984 54015640 53504028 
3355.827 52991888 52480316 51970132 51462224 50957260 50456412 49961572 
3359.203 49474572 48997612 48532104 48078796 47637456 47207016 46785824 
3362.578 46373004 45967500 45569220 45178068 44794100 44416972 44046548 
3365.953 43682484 43325132 42974880 42632840 42299508 41975044 41658920 
3369.328 41350168 41047460 40750168 40458280 40172840 39895068 39626116 
3372.704 39366180 39114776 38869896 38629352 38391296 38154344 37918468 
3376.079 37684156 37452796 37225456 37002812 36785232 36572112 36363212 
3379.454 36157936 35955856 35756564 35559236 35363116 35166828 34968796 
3382.829 34768060 34564004 34356856 34148084 33939588 33733596 33531778 
3386.205 33335316 33144198 32958098 32776222 32597746 32421946 32248646 
3389.580 32077234 31907532 31738680 31570140 31401418 31232690 31064492 
3392.955 30897424 30732840 30570414 30410254 30251076 30091674 29931368 
3396.330 29770448 29610086 29452408 29299394 29152102 29010600 28873358 
3399.706 28738282 28603108 28465996 28326236 28183942 28040140 27895642 
3403.081 27751158 27607250 27463922 27321486 27180084 27039682 26900276 
3406.456 26761726 26623430 26485038 26346022 26206768 26067910 25930610 
3409.831 25796060 25665032 25537732 25413774 25292416 25172388 25052500 
3413.207 24931450 24808366 24682476 24553746 24422322 24289254 24155806 
3416.582 24023382 23892642 23763938 23636564 23509300 23381266 23251700 
3419.957 23121752 22992854 22867174 22746490 22631876 22523018 22418894 
3423.332 22318180 22219652 22122296 22026044 21930752 21836040 21741244 
3426.708 21645284 21547536 21447580 21345560 21242450 21138772 21034842 
3430.083 20930278 20824416 20716216 20606028 20494652 20384314 20277334 
3433.458 20175902 20080738 19991250 19905666 19821210 19736354 19649466 
3436.833 19560658 19470654 19380772 19291914 19204424 19117956 19031402 
3440.208 18943896 18854884 18763780 18671660 18579176 18487648 18398488 
3443.584 18311902 18227514 18144004 18059024 17970160 17875998 17776434 
3446.959 17672890 17568926 17468500 17375172 17291134 17216528 17149034 
3450.334 17085340 17021930 16955776 16885600 16811476 16734539 16656514 
3453.709 16578779 16502056 16426310 16351266 16276132 16200047 16122531 
3457.085 16042897 15960701 15875563 15787350 15696477 15603938 15511178 
3460.460 15420019 15331692 15247091 15166313 15088811 15013825 14940259 
3463.835 14867596 14795803 14725428 14657085 14591598 14529478 14470175 
3467.210 14412388 14354506 14294064 14229178 14158791 14082871 14002755 
3470.586 13920669 13838771 13759726 13684388 13613201 13544965 13478688 
3473.961 13412626 13345924 13278004 13208864 13138540 13067612 12995877 
3477.336 12923745 12851214 12778456 12706155 12634139 12562918 12492562 
3480.711 12423479 12355872 12290697 12229008 12171824 12119521 12071516 
3484.087 12025800 11979748 11930430 11874955 11812507 11743498 11669769 
3487.462 11593807 11518946 11447126 11379535 11316309 11256355 11198688 
3490.837 11141811 11084600 11026412 10966805 10905948 10844183 10782461 
3494.212 10722004 10663763 10609332 10558473 10511286 10466819 10423782 
3497.588 10381055 10337688 10293035 10247404 10200691 10153068 10104229 
3500.963 10053836 10001210 9946117 9889030 9830663 9772914 9717511 9665469 
3504.820 9618006 9574646 9534645 9496170 9457429 9416558 9372440 9324467 
3508.678 9273048 9219536 9165623 9113072 9063640 9017968 8976224 8937901 
3512.535 8901949 8867116 8832690 8798099 8763444 8728790 8694444 8660202 
3516.393 8625793 8590610 8554247 8516637 8477949 8439129 8401056 8364304 
3520.250 8328804 8294286 8259232 8222693 8183896 8142639 8100001 8056489 
3524.107 8013387 7970963 7929186 7887412 7844934 7801549 7757696 7714623 
3527.965 7673612 7635876 7601852 7571202 7542881 7515910 7489245 7462412 
3531.822 7435042 7406696 7377004 7345224 7310515 7272339 7231235 7188147 
3535.680 7144693 7102557 7063085 7026580 6992772 6960819 6930013 6900050 
3539.537 6871301 6844204 6819229 6796577 6775408 6755013 6734182 6711872 
3543.395 6687476 6660659 6630715 6597880 6561415 6521319 6478134 6433238 
3547.252 6388177 6344535 6303888 6266136 6230841 6196389 6161032 6124066 
3551.109 6084918 6044767 6005391 5968740 5936291 5909117 5887084 5869351 
3554.967 5854842 5842484 5830595 5818003 5803294 5785128 5762698 5735703 
3558.824 5704178 5669164 5632239 5595250 5560279 5529336 5503799 5484203 
3562.682 5470009 5459305 5448904 5434510 5411327 5375330 5324174 5258301 
3566.539 5181674 5100703 5023835 4957941 4907706 4874230 4855097 4845917 
3570.396 4841595 4836703 4827321 4810971 4786884 4755695 4719920 4682104 
3574.254 4645196 4611004 4580766 4554079 4530239 4507974 4486380 4465055 
3578.111 4444301 4423948 4404769 4386493 4368955 4352020 4336257 4321666 
3581.969 4309652 4300851 4295330 4292050 4288704 4281610 4266887 4240085 
3585.826 4198832 4142395 4073691 3998343 3924580 3861058 3813757 3785981 
3589.684 3776355 3780533 3792466 3805368 3813590 3813122 3802359 3782037 
3593.541 3754697 3723750 3692404 3663332 3637871 3616253 3598145 3582776 
3597.398 3568912 3554948 3539615 3521175 3498896 3473277 3445422 3417837 
3601.256 3393058 3372821 3358129 3348846 3343971 3342469 3343470 3346175 
3605.113 3349280 3351217 3349314 3340365 3321734 3292387 3253961 3210531 
3608.971 3167540 3129626 3098957 3074630 3053374 3031485 3006561 2978770 
3612.828 2951214 2928930 2916454 2916420 2928296 2948545 2970696 2988211 
3616.686 2994784 2985509 2958253 2914052 2857783 2796784 2739963 2695585 
3620.543 2668446 2659745 2666680 2684616 2709221 2736429 2764805 2794784 
3624.400 2827166 2862152 2897007 2925327 2937603 2922291 2869323 2775576 
3628.258 2648177 2507119 2378967 2287857 2244891 2246523 2279363 2327097 
3632.115 2374803 2412051 2434009 2441806 2440773 2437374 2437641 2444171 
3635.973 2455467 2468130 2477194 2479560 2474628 2464164 2451735 2440273 
3639.830 2431810 2426445 2422480 2419548 2417782 2419481 2428344 2447070 
3643.688 2476427 2513918 2553578 2588109 2610342 2614842 2599742 2565844 
3647.545 2515918 2453368 2381099 2301747 2220978 2146616 2089980 2061448 
3651.402 2066375 2103797 2165430 2238896 2309642 2365174 2397091 2402056 
3655.260 2383398 2350283 2315538 2291121 2284926 2298883 2329829 2371271 
3659.117 2415616 2457133 2491423 2517684 2538347 2557878 2582376 2616175 
3662.975 2661779 2718990 2786013 2860851 2944308 3038992 3149717 3280735 
3666.832 3434935 3613146 3818571 4061082 4364571 4766783 5315788 6056123 
3670.689 7009272 8171640 9518523 11020533 12648091 14367589 16129959 
3674.065 17828214 19286336 20280182 20586850 20097986 18868312 17084340 
3677.440 14974142 12743038 10560408 8545833 6789712 5353827 4256815 3477719 
3681.297 2959987 2634043 2430310 2296151 2202528 2136794 2095207 2075331 
3685.155 2069804 2066475 2052259 2016407 1954461 1869763 1772306 1674671 
3689.012 1587167 1516505 1464373 1430131 1412911 1412279 1426574 1453003 
3692.870 1487346 1524186 1559001 1588730 1612642 1631931 1648295 1663495 
3696.727 1678862 1694629 1710529 1725631 1738306 1745857 1744926 1732484 
3700.584 1706204 1667054 1619692 1572568 1534394 1512382 1510188 1526514 
3704.442 1557105 1595814 1637053 1676400 1711128 1739770 1761261 1774801 
3708.299 1779326 1774102 1758765 1733815 1700782 1661566 1618927 1576193 
3712.157 1537819 1509024 1494361 1496523 1515441 1547795 1587899 1629237 
3716.014 1665324 1692766 1711128 1722937 1732517 1743429 1757135 1772572 
3719.872 1786346 1795362 1797858 1794996 1789773 1785547 1784084 1784449 
3723.729 1783684 1777796 1763423 1741366 1714820 1690038 1674239 1673340 
3727.586 1689905 1722671 1766650 1814993 1859880 1894123 1912127 1911927 
3731.444 1895554 1868499 1838617 1812630 1792701 1776065 1756636 1728559 
3735.301 1689373 1643140 1598640 1566948 1555576 1565818 1594882 1637086 
3739.159 1687444 1743462 1804346 1869065 1933826 1990309 2024196 2018470 
3743.016 1959421 1845272 1694861 1546265 1444093 1415570 1459685 1553049 
3746.874 1663628 1762625 1826539 1843608 1812797 1743495 1652053 1556041 
3750.731 1470024 1402174 1356935 1337392 1345701 1381698 1441600 1517270 
3754.588 1597676 1671677 1730322 1768280 1785048 1783218 1767515 1742231 
3758.446 1710762 1675037 1638284 1605092 1582345 1575960 1588963 1619027 
3762.303 1659371 1699585 1729557 1743196 1739370 1722804 1702545 1687876 
3766.161 1684151 1691868 1705439 1717182 1720309 1710828 1690038 1663162 
3770.018 1638882 1624415 1624714 1640213 1667653 1701448 1735279 1763689 
3773.875 1783884 1795129 1799189 1799322 1798789 1798723 1798656 1795495 
3777.733 1785747 1766983 1740302 1709731 1682787 1666289 1664160 1676101 
3781.590 1697522 1721939 1743196 1757102 1762824 1761926 1757734 1752810 
3785.448 1748852 1745824 1743063 1740102 1737641 1736609 1738206 1742464 
3789.305 1748086 1753010 1755572 1755139 1753309 1753043 1757135 1767016 
3793.163 1781355 1796527 1807307 1809769 1802482 1788309 1773737 1767349 
3797.020 1775833 1801251 1839449 1881743 1915022 1926072 1904739 1848234 
3800.877 1764355 1671677 1595714 1557904 1567048 1617996 1694263 1775566 
3804.735 1840115 1871460 1861877 1813629 1741433 1666721 1611378 1587832 
3808.592 1597277 1631665 1680126 1732750 1783751 1832395 1879846 1928002 
3812.450 1976030 2019070 2049330 2058152 2039010 1992473 1927270 1862043 
3816.307 1816956 1806641 1834458 1891094 1959221 2017871 2047599 2034982 
3820.165 1976130 1880212 1770110 1674771 1616466 1604859 1634160 1689406 
3824.022 1752544 1808039 1846470 1865238 1868499 1864539 1863374 1871793 
3827.879 1891394 1919449 1950334 1977461 1996501 2005821 2006886 2003624 
3831.737 2001194 2003691 2013877 2032086 2056421 2083021 2106760 2121677 
3835.594 2122276 2104729 2068173 2015741 1954761 1894855 1845505 1812597 
3839.452 1797957 1798789 1809935 1825374 1840148 1850763 1855488 1854789 
3843.309 1850596 1846071 1845239 1851761 1868699 1896719 1934958 1980623 
3847.167 2030354 2081024 2130667 2178750 2225374 2270104 2310208 2338923 
3851.024 2346085 2319269 2247322 2127437 1970804 1805311 1664426 1573899 
3854.881 1541942 1560198 1612109 1680592 1753775 1823777 1886768 1941914 
3858.739 1988878 2027159 2056587 2076596 2087416 2090013 2085984 2075897 
3862.596 2060183 2038411 2010215 1977694 1946074 1922744 1915122 1927403 
3866.454 1957390 1997233 2034283 2055455 2050495 2016340 1959687 1896985 
3870.311 1847868 1826139 1835157 1867101 1907900 1943079 1962050 1961784 
3874.168 1947505 1929899 1920414 1927869 1954295 1995003 2040907 2081557 
3878.026 2107326 2111655 2092976 2055089 2007252 1961018 1928235 1916320 
3881.883 1926937 1954794 1990542 2022498 2039010 2032052 2000462 1951533 
3885.741 1899947 1862742 1853125 1875454 1923975 1986415 2047599 2093575 
3889.598 2113886 2104663 2069538 2019170 1967043 1925939 1903940 1903075 
3893.456 1920880 1952132 1992007 2036180 2081557 2125872 2166696 2201562 
3897.313 2228171 2244424 2249887 2245357 2233567 2217947 2201495 2185777 
3901.170 2170892 2154708 2134829 2109823 2079559 2046101 2013477 1986149 
3905.028 1967542 1959920 1962816 1974432 1992207 2013511 2036247 2059018 
3908.885 2080957 2101333 2119712 2135495 2148614 2159470 2169327 2179350 
3912.743 2191072 2204926 2219746 2233467 2242692 2244224 2236231 2219013 
3916.600 2194868 2167895 2142487 2121976 2108358 2102166 2102898 2110489 
3920.458 2124574 2144152 2167561 2192137 2213351 2226939 2229504 2220345 
3924.315 2201628 2178850 2157538 2143187 2137893 2140556 2147582 2154941 
3928.172 2159237 2158970 2154874 2148548 2141788 2135761 2130301 2124773 
3932.030 2118847 2113020 2109257 2109424 2114785 2125273 2139158 2153942 
3935.887 2166563 2175554 2180782 2182946 2184212 2186043 2189107 2193037 
3939.745 2196167 2196833 2193236 2184944 2172190 2156739 2141289 2128569 
3943.602 2121344 2121444 2129502 2143786 2162167 2180848 2196234 2205658 
3947.459 2208023 2204326 2196966 2188874 2182680 2180049 2180982 2184545 
3951.317 2189740 2195834 2202361 2209188 2216282 2222510 2227206 2229104 
3955.174 2227739 2223475 2218014 2212818 2210021 2210287 2213151 2217714 
3959.032 2222377 2226373 2229604 2232634 2236298 2241194 2247588 2254649 
3962.889 2261577 2267373 2271569 2274201 2275799 2276932 2278131 2280096 
3966.747 2282761 2286292 2290689 2295218 2299482 2302580 2303846 2302647 
3970.604 2299782 2295652 2291688 2288890 2287791 2288090 2289356 2290555 
3974.461 2291388 2292387 2294186 2297983 2304146 2311940 2320168 2327263 
3978.319 2331627 2332893 2331494 2328863 2326664 2326131 2327530 2330361 
3982.176 2333526 2336158 2337424 2337057 2335292 2332694 2329795 2327530 
3986.034 2326597 2327797 2331661 2338157 2346885 2356179 2364775 2370871 
3989.891 2373470 2372870 2369872 2366274 2363209 2361277 2360310 2359378 
3993.749 2357512 2354314 2349783 2344886 2340522 2337590 2336424 2336758 
3997.606 2337957 2339223 2339722 2339089 2336591 2331894 2324699 
##END=
