
##TITLE=Z408_1_c
##JCAMP-DX=5.01  $$ Nicolet v. 1
##DATATYPE=INFRARED SPECTRUM
##ORIGIN=UniL
##OWNER=Nicolet
##LONGDATE=2011/09/16
##TIME=09:46:42
##SPECTROMETER/DATA SYSTEM=Nicolet iS5
##DATA PROCESSING=
Ratio against background
%Transmittance->Absorbance
Truncated
ElementMultiply or ElementDivide
##COMMENTS=
Number of sample scans: 32
Collection length: 51.13 sec
Sample gain: 2.0
Background collected on: Ven Sep 16 09:40:23 2011 (GMT+02:00);
Number of background scans: 32
Background gain: 2.0
Sample spacing:  1.000
Number of scan points: 12415
Resolution points: 8192
Number of FFT points: 65536
Apodization: N-B fort;
Phase correction: Mertz;
Laser frequency: 15798.0 cm-1
Number of rejected sample scans: 0
Number of rejected background scans: 0
Bench serial number: ASB1000141;
##RESOLUTION=4.000
##XUNITS=1/CM
##YUNITS=ABSORBANCE
##FIRSTX=649.893372
##LASTX=4000.122314
##FIRSTY=0.082706
##MAXX=4000.122314
##MINX=649.893372
##MAXY=0.364691
##MINY=-0.001254
##XFACTOR=1.000000
##YFACTOR=1.000000E-009
##NPOINTS=6950
##DELTAX=0.482117
##ZPD=6100
##XYDATA=(X++(Y..Y))
649.893 82705744 83132536 83656912 84300600 85058024 85898176 86782400 
653.268 87688952 88627984 89638864 90769208 92052696 93494520 95071496 
656.643 96752744 98521992 100391576 102399208 104589432 106986264 109587104 
660.018 112367608 115307528 118413192 121727360 125307264 129198952 
662.911 133399096 137850576 142453520 147115072 151777648 156412944 
665.803 160999088 165451856 169545232 172918448 175151264 175949056 
668.696 175293056 173408912 170611792 167156032 163197648 158820320 
671.589 154086720 149097920 143998992 138945424 134083464 129503368 
674.481 125234168 121269112 117590408 114193056 111087488 108287416 
677.374 105791120 103572336 101582352 99764176 98066848 96461608 94938792 
680.749 93500728 92147568 90870984 89651696 88469416 87311136 86179520 
684.124 85090632 84069360 83137392 82305040 81571256 80926336 80356880 
687.498 79850528 79395792 78979408 78580064 78169024 77711176 77170536 
690.873 76521168 75749232 74855872 73852152 72753464 71576152 70334280 
694.248 69043224 67722696 66394968 65086492 63821176 62616200 61481444 
697.623 60420612 59433832 58521432 57684760 56924792 56238892 55619340 
700.998 55053096 54524216 54019656 53532360 53063428 52620476 52214220 
704.373 51853588 51541128 51272732 51037856 50824040 50618592 50413096 
707.747 50203604 49990904 49778828 49573056 49380452 49210716 49075512 
711.122 48992088 48980588 49061860 49250720 49548468 49934288 50359996 
714.497 50756700 51041548 51132336 50972608 50539188 49853784 48976248 
717.872 48002188 47045700 46218412 45629652 45369700 45498536 46041872 
721.247 46972004 48202624 49574132 50878500 51889324 52389320 52237876 
724.621 51397100 49948488 48067136 45984516 43937576 42098856 40569476 
727.996 39369700 38461560 37777224 37247656 36823024 36470836 36173096 
731.371 35918244 35693504 35486640 35288968 35099180 34923732 34771864 
734.746 34650592 34559052 34488236 34424636 34357248 34281300 34199128 
738.121 34117040 34039596 33966100 33890936 33807116 33712108 33610172 
741.496 33512808 33433392 33380720 33354778 33347194 33346120 33340610 
744.870 33327014 33308804 33293172 33285800 33287090 33291276 33290844 
748.245 33280864 33262692 33243020 33230964 33232108 33245560 33263982 
751.620 33278290 33283368 33280902 33280366 33292458 33325334 33379466 
754.995 33449102 33525192 33601940 33680312 33768152 33875032 34006876 
758.370 34162920 34336448 34518800 34706180 34902764 35120124 35371636 
761.744 35666308 36005168 36381876 36789268 37226572 37705336 38249248 
765.119 38893740 39679080 40643148 41821456 43238928 44903548 46795052 
768.494 48855392 50989336 53068860 54975812 56644972 58109428 59517424 
771.869 61114184 63182360 65916656 69337952 73203056 77038048 80172448 
775.244 81905592 81743296 79501224 75402432 69973816 63945652 58036596 
778.619 52783020 48527288 45366244 43217772 41890164 41167840 40865880 
781.993 40843092 41015124 41333440 41766516 42294872 42906336 43598772 
785.368 44380268 45265988 46271628 47407344 48677668 50085900 51640716 
788.743 53362644 55285228 57447980 59894288 62662668 65785476 69295544 
792.118 73228856 77624928 82524312 87950640 93893552 100284040 106990040 
795.493 113806464 120451792 126612128 131942808 136105296 138838080 
798.385 139978912 139521568 137620352 134590912 130856632 126851512 
801.278 122997096 119606632 116838808 114697744 113031808 111588616 
804.171 110055504 108161664 105739552 102762688 99354800 95749720 92234344 
807.546 89046248 86330584 84102816 82259864 80615032 78955248 77114536 
810.920 74993832 72583664 69942952 67173064 64380712 61650812 59046812 
814.295 56606316 54350356 52293444 50444948 48810156 47387648 46168880 
817.670 45140016 44284900 43590640 43049548 42658028 42414280 42314924 
821.045 42353640 42522836 42817212 43237904 43794548 44504956 45391880 
824.420 46474920 47767776 49270356 50965492 52811720 54742308 56666416 
827.794 58464148 60008524 61182424 61895628 62116648 61880460 61293216 
831.169 60505352 59697700 59054368 58721964 58804396 59340796 60298816 
834.544 61569136 62971212 64286804 65263204 65670720 65352736 64244656 
837.919 62401164 59974092 57191788 54295800 51497368 48962228 46781212 
841.294 44983324 43552176 42446688 41616616 41011844 40590248 40313192 
844.669 40146272 40062508 40041328 40071268 40149472 40276472 40452424 
848.043 40673128 40930064 41213668 41518608 41846412 42206056 42609852 
851.418 43069672 43590784 44172308 44808208 45492796 46223972 47004936 
854.793 47842608 48744392 49716108 50761432 51884916 53096456 54412584 
858.168 55858816 57466780 59269160 61299852 63591644 66174732 69078376 
861.543 72321792 75903544 79781560 83860112 87982208 91918584 95408120 
864.917 98182064 99993288 100677032 100162840 98493472 95810408 92342112 
868.292 88370200 84168088 79995584 76060824 72497752 69386264 66750184 
871.667 64575016 62823116 61447624 60402716 59644668 59136448 58846660 
875.042 58746660 58813880 59031552 59389536 59884632 60517272 61287872 
878.417 62191772 63216312 64338564 65529636 66754164 67975408 69161632 
881.792 70284296 71323752 72270840 73126632 73901920 74612488 75275920 
885.166 75904768 76504808 77076752 77621200 78145384 78669768 79227040 
888.541 79857576 80602456 81489272 82526600 83700784 84980768 86323064 
891.916 87679824 89009032 90270920 91429376 92452456 93307256 93963808 
895.291 94398848 94595440 94546960 94256232 93735888 93008872 92108736 
898.666 91083960 89992216 88897120 87863576 86942664 86168576 85555240 
902.040 85098008 84780064 84581392 84486304 84486592 84580984 84773336 
905.415 85068384 85470472 85983184 86610912 87360280 88238720 89253896 
908.790 90410200 91708104 93144832 94717072 96424128 98270304 100263288 
912.165 102412624 104726048 107208104 109862672 112697864 115730152 
915.058 118989216 122516864 126357376 130554080 135138272 140122688 
917.950 145496448 151219760 157221040 163376864 169509936 175394480 
920.843 180744832 185274384 188741552 190998736 192053696 192086336 
923.736 191455312 190617152 190092544 190398992 191937136 194977376 
926.628 199598608 205679216 212877408 220647904 228334064 235151424 
929.521 240318112 243181552 243237248 240243392 234238432 225532176 
932.414 214658144 202289392 189202224 176125968 163689808 152405216 
935.306 142586928 134397344 127871752 122949688 119524816 117475440 
938.199 116692224 117068344 118484360 120793064 123776056 127138480 
941.092 130543288 133604216 135965968 137367792 137662752 136859280 
943.985 135101520 132649528 129808632 126876848 124117568 121705648 
946.877 119734336 118225184 117147224 116442488 116045608 115902840 
949.770 115971040 116216960 116614856 117138328 117761504 118462464 
952.663 119224208 120038528 120903792 121821080 122789552 123802888 
955.555 124849944 125918224 126999352 128090768 129196632 130323616 
958.448 131476176 132653312 133848592 135053152 136261072 137472544 
961.341 138693728 139932816 141195808 142482816 143788048 145102768 
964.233 146419904 147738096 149061312 150395904 151745744 153109984 
967.126 154483200 155859216 157235408 158615408 160008560 161425424 
970.019 162872480 164349568 165850304 167368032 168900256 170452576 
972.912 172036960 173667072 175351856 177091264 178876992 180697008 
975.804 182542896 184412672 186310784 188243488 190212272 192210880 
978.697 194225904 196240400 198242144 200226048 202193216 204145168 
981.590 206078352 207980256 209833552 211622016 213338800 214990624 
984.482 216596224 218178912 219756016 221336656 222920656 224505584 
987.375 226093744 227697040 229333456 231022112 232773392 234585712 
990.268 236446480 238340496 240258448 242201136 244178096 246200096 
993.160 248270784 250382960 252520448 254665968 256811584 258962160 
996.053 261133520 263343328 265602144 267907856 270248864 272611168 
998.946 274989056 277389344 279829184 282327136 284893088 287523904 
1001.839 290206240 292927008 295681920 298481184 301344736 304292512 
1004.731 307332416 310455712 313639680 316860192 320102368 323365472 
1007.624 326658912 329990464 333353088 336720192 340047680 343286560 
1010.517 346398272 349357152 352147904 354754176 357144832 359272800 
1013.409 361084864 362534528 363601120 364293568 364644544 364691168 
1016.302 364459968 363961376 363194016 362158720 360872544 359370112 
1019.195 357698304 355902560 354011552 352039392 349993376 347889120 
1022.087 345764832 343682432 341711936 339921728 338356256 337029472 
1024.980 335930496 335035232 334318176 333754656 333318176 332968736 
1027.873 332639968 332245024 331682400 330849024 329665312 328075168 
1030.766 326045184 323558240 320604352 317180768 313300480 309001952 
1033.659 304354176 299444672 294371136 289215552 284027776 278826720 
1036.552 273605120 268345024 263031728 257662976 252250368 246816656 
1039.446 241391488 236011152 230722960 225580048 220639440 215950432 
1042.339 211534688 207376032 203412512 199551408 195679712 191694624 
1045.232 187531888 183171536 178644064 174014224 169370688 164803536 
1048.125 160390064 156195120 152262160 148614640 145259120 142185120 
1051.018 139369968 136780672 134383792 132148672 130051520 128077728 
1053.911 126218528 124466816 122814264 121248744 119755904 118322728 
1056.804 116938984 115597856 114295608 113027208 111784744 110557664 
1059.697 109334504 108107392 106875216 105644792 104428760 103240840 
1062.590 102093960 100996336 99952160 98964120 98034504 97165552 96357736 
1065.965 95606488 94899376 94215768 93531424 92821488 92067488 91262248 
1069.341 90409872 89524720 88626200 87737728 86881952 86079728 85350760 
1072.716 84711240 84172640 83741168 83415296 83187552 83044352 82970824 
1076.091 82950976 82968016 83004640 83038816 83043072 82988192 82844984 
1079.466 82591960 82222152 81745608 81188584 80586144 79980688 79412784 
1082.842 78917024 78525440 78265792 78162688 78240480 78520472 79020272 
1086.217 79753928 80730096 81952920 83419800 85119408 87023992 89081144 
1089.592 91215856 93322584 95275696 96955200 98253480 99101264 99481232 
1092.967 99426944 99018600 98362304 97585520 96810744 96142152 95666488 
1096.343 95440392 95493400 95830608 96433928 97264608 98261248 99346264 
1099.718 100422600 101373832 102082392 102429704 102314528 101674384 
1102.611 100491120 98799736 96677104 94236680 91606088 88902976 86235968 
1105.986 83687128 81310264 79137896 77180824 75434048 73880944 72497912 
1109.361 71258080 70132864 69097448 68130664 67214792 66336556 65484712 
1112.737 64649372 63823016 63000552 62181104 61368196 60570256 59797844 
1116.112 59061088 58368552 57725896 57135512 56598356 56115320 55687624 
1119.487 55317292 55006160 54755348 54564452 54431136 54350544 54313520 
1122.862 54305824 54304772 54277740 54187080 53990464 53649652 53140076 
1126.238 52454856 51608324 50631364 49568860 48469196 47374564 46320176 
1129.613 45328248 44409116 43563860 42787084 42069580 41399768 40766436 
1132.988 40159320 39570404 38995508 38434080 37889000 37364820 36866272 
1136.363 36397184 35959852 35555464 35185260 34851092 34555932 34302672 
1139.739 34093460 33928804 33807332 33726936 33685716 33683104 33720164 
1143.114 33798664 33919560 34082132 34283092 34517292 34778756 35060924 
1146.489 35357724 35662820 35968344 36265300 36543820 36794284 37010464 
1149.864 37189612 37333908 37448172 37540104 37616948 37685280 37751056 
1153.240 37819696 37895724 37983736 38086700 38205428 38338308 38481908 
1156.615 38631780 38783952 38935632 39084360 39227080 39359252 39473612 
1159.990 39561076 39612720 39620892 39580452 39489432 39347392 39154696 
1163.365 38911676 38618740 38276860 37888816 37460164 36998520 36512428 
1166.740 36010856 35501632 34991604 34487304 33995408 33523116 33078116 
1170.116 32667078 32294724 31963948 31675268 31428810 31225284 31066876 
1173.491 30957732 30902440 30905324 30969652 31097698 31291016 31552148 
1176.866 31885636 32297042 32793194 33380434 34064212 34849620 35742320 
1180.241 36750032 37883900 39156368 40581044 42170308 43933284 45876972 
1183.617 48005960 50323272 52828408 55514164 58363700 61343052 64399624 
1186.992 67467528 70461968 73291024 75864240 78087720 79879120 81172040 
1190.367 81918592 82100560 81731848 80859792 79556256 77911616 76026128 
1193.742 73990824 71886880 69777984 67703832 65685248 63725196 61814824 
1197.118 59939780 58086964 56250436 54434328 52653840 50930916 49293296 
1200.493 47766816 46371492 45120828 44019520 43065500 42251300 41567024 
1203.868 41000884 40538520 40164736 39861184 39607096 39382544 39168912 
1207.243 38951544 38721784 38475608 38213208 37936908 37650552 37359008 
1210.619 37068200 36786780 36525296 36295916 36111632 35984292 35924112 
1213.994 35940092 36040052 36231332 36521364 36916336 37420184 38034004 
1217.369 38755692 39581216 40506584 41529620 42650864 43873056 45199176 
1220.744 46631708 48171932 49821304 51582652 53462612 55470640 57618508 
1224.120 59916352 62369644 64976728 67728120 70605832 73581784 76619496 
1227.495 79669896 82667904 85539952 88202216 90567272 92560000 94116864 
1230.870 95195528 95779792 95881384 95544680 94843312 93888536 92818576 
1234.245 91781032 90937360 90435904 90400776 90938016 92123192 94007496 
1237.621 96623784 99985864 104089744 108905840 114379032 120418688 126892776 
1240.996 133646536 140491632 147217120 153613776 159459520 164539680 
1243.889 168672304 171707520 173554352 174188016 173647456 172025440 
1246.782 169448688 166077984 162084944 157642240 152924144 148074128 
1249.675 143192672 138325712 133455648 128511552 123387872 117985432 
1252.568 112233296 106117208 99687472 93055744 86378776 79820616 73547480 
1255.943 67696472 62356560 57575792 53356012 49664544 46443684 43624928 
1259.319 41140628 38925232 36926328 35104424 33430602 31887636 30464594 
1262.694 29153698 27947302 26836264 25809492 24856710 23969002 23140586 
1266.069 22368972 21653260 20992796 20385632 19828354 19317236 18849694 
1269.444 18425210 18045210 17711856 17426488 17188328 16995122 16843954 
1272.820 16733540 16665157 16642915 16671870 16755924 16896556 17091438 
1276.195 17334410 17615402 17922368 18239054 18545702 18821770 19045388 
1279.570 19199298 19274664 19272032 19201826 19078936 18919944 18735170 
1282.945 18528620 18297734 18037128 17743814 17420454 17075344 16721832 
1286.321 16375214 16047779 15749246 15486181 15262671 15082498 14948250 
1289.696 14860705 14817196 14811094 14833516 14875003 14929285 14994446 
1293.071 15073099 15169710 15287862 15428945 15590887 15771477 15969707 
1296.446 16187940 16431954 16709160 17026064 17386828 17793210 18245794 
1299.822 18745412 19293230 19888878 20527132 21193984 21866736 22513594 
1303.197 23098862 23591504 23966376 24210350 24321948 24309892 24190872 
1306.572 23986580 23723972 23431274 23136814 22867314 22642348 22473500 
1309.947 22362970 22305378 22290556 22307124 22346016 22400088 22463694 
1313.323 22531706 22597424 22653694 22694538 22715904 22717126 22699704 
1316.698 22665702 22616064 22550064 22466556 22366006 22251946 22132268 
1320.073 22016178 21912422 21826736 21760194 21711706 21679694 21665798 
1323.448 21676002 21720482 21810502 21957204 22169332 22453296 22814686 
1326.823 23258410 23786650 24396138 25073000 25792158 26514834 27197404 
1330.199 27798736 28286238 28644624 28876050 28997670 29035078 29017684 
1333.574 28974506 28929560 28903956 28915572 28978084 29101860 29292872 
1336.949 29552804 29881566 30279674 30750194 31300202 31938806 32673114 
1340.324 33506364 34435292 35449896 36534772 37669524 38828332 39975748 
1343.700 41070732 42067100 42917968 43588328 44057364 44322032 44393228 
1347.075 44289084 44026964 43616796 43060708 42355248 41497788 40492360 
1350.450 39354284 38109704 36795688 35453924 34124640 32847084 31653776 
1353.825 30570414 29617678 28807992 28145796 27626248 27237162 26962146 
1357.201 26784704 26693788 26683994 26754432 26905458 27134126 27433038 
1360.576 27792238 28202150 28658814 29166134 29735038 30379124 31107842 
1363.951 31925470 32829180 33811740 34862008 35965612 37100352 38229168 
1367.326 39301396 40251716 41005688 41497716 41676864 41515140 41011044 
1370.702 40185052 39076456 37734716 36224056 34619188 32998924 31450004 
1374.077 30051120 28859654 27906736 27192714 26698298 26396370 26266850 
1377.452 26304974 26524272 26953332 27633062 28615354 29954266 31704672 
1380.827 33909028 36575720 39653380 43004840 46419424 49605928 52241200 
1384.203 54036468 54744788 54218312 52432424 49514156 45742764 41497972 
1387.578 37214012 33250530 29832554 27048144 24867202 23197486 21924794 
1390.953 20948288 20187668 19583672 19098186 18704798 18385524 18129736 
1394.328 17930932 17786720 17697670 17665196 17690146 17771084 17902478 
1397.704 18073428 18268394 18466868 18650490 18807514 18936214 19043864 
1401.079 19141850 19240858 19345816 19455786 19565372 19668848 19762774 
1404.454 19847984 19928248 20008042 20089692 20173230 20258310 20347402 
1407.829 20446894 20566838 20717606 20905172 21128998 21381964 21654200 
1411.205 21938036 22232660 22543990 22882298 23256244 23669524 24119448 
1414.580 24601010 25110562 25650550 26230280 26862948 27559728 28324114 
1417.955 29146822 30005532 30871596 31718432 32528996 33295248 34014760 
1421.330 34685256 35305356 35878296 36419596 36961180 37551988 38244760 
1424.706 39083488 40094884 41284608 42647720 44177408 45872112 47729608 
1428.081 49736620 51861432 54045620 56212984 58291432 60226984 62000488 
1431.456 63625792 65144120 66609560 68076984 69603048 71245624 73070240 
1434.831 75155632 77582728 80413904 83666472 87288528 91177392 95221560 
1438.207 99332104 103446016 107497744 111398440 114999592 118095752 
1441.100 120472472 121918032 122279560 121490880 119565832 116592712 
1443.993 112707744 108093616 102949488 97467024 91840712 86244624 80839880 
1447.368 75790456 71239536 67292008 63989960 61304888 59154860 57437164 
1450.743 56069660 55007024 54246204 53809244 53721676 53991064 54603676 
1454.118 55528024 56728484 58178408 59846140 61687016 63628740 65575524 
1457.494 67439008 69169592 70772008 72279648 73733288 75167176 76603296 
1460.869 78051624 79508864 80960912 82372640 83681736 84807936 85656736 
1464.244 86150432 86260744 86023376 85525504 84866072 84132056 83378248 
1467.619 82630272 81898424 81182464 80472752 79743976 78948976 78019184 
1470.995 76876144 75466760 73801016 71975952 70150160 68488040 67102948 
1474.370 66031016 65255388 64739408 64457120 64406424 64607000 65082028 
1477.745 65847976 66902212 68227728 69799504 71597064 73611928 75847352 
1481.120 78316184 81032936 84010176 87256768 90783416 94610648 98773824 
1484.496 103317624 108279552 113667272 119422072 125384240 131302472 
1487.389 136811888 141468464 144825104 146459360 146080432 143616032 
1490.282 139254528 133421096 126649392 119474816 112296624 105340336 
1493.175 98711304 92416512 86429872 80751408 75421072 70531456 66207224 
1496.550 62559680 59647824 57461144 55941840 55006724 54575160 54585004 
1499.925 54986568 55737876 56799852 58127116 59667744 61368464 63159592 
1503.301 64958104 66661208 68111168 69093488 69336160 68548064 66550932 
1506.676 63406564 59440060 55083376 50688628 46441768 42390096 38523000 
1510.051 34828728 31311918 28009638 24973072 22242356 19842124 17770532 
1513.426 16005356 14512724 13253885 12188420 11270807 10456637 9710564 
1516.802 9013468 8370755 7805530 7343708 6997184 6754879 6579849 6421636 
1520.659 6230740 5982983 5693972 5410220 5179964 5025545 4939944 4894201 
1524.516 4856639 4802864 4726116 4635283 4547416 4475065 4419530 4372804 
1528.374 4325883 4277360 4237241 4222017 4246911 4316512 4419731 4530775 
1532.231 4614922 4644593 4609497 4525451 4424785 4341712 4296869 4294225 
1536.089 4327690 4389840 4476873 4588233 4722566 4870243 5005903 5094132 
1539.946 5104659 5032584 4903651 4759681 4637359 4550395 4489427 4430342 
1543.803 4349276 4232691 4086301 3930464 3792532 3693607 3640377 3626778 
1547.661 3638539 3661594 3685152 3705269 3722179 3737519 3750753 3758842 
1551.518 3757805 3746008 3725855 3703732 3687725 3684785 3699221 3732272 
1555.376 3785146 3860624 3962630 4091485 4233527 4355534 4401054 4315743 
1559.233 4089779 3773648 3449464 3181125 2998254 2897441 2857849 2852779 
1563.091 2858349 2859250 2850712 2838371 2833869 2847777 2884199 2940105 
1566.948 3007495 3077266 3141007 3192440 3225986 3238037 3227789 3200050 
1570.805 3166606 3144277 3149951 3197280 3292420 3431997 3603156 3786014 
1574.663 3959119 4104463 4216062 4303060 4385356 4482129 4605411 4759548 
1578.520 4945306 5165244 5425384 5733689 6097015 6518057 6994052 7517933 
1582.378 8081164 8675885 9292680 9917743 10530432 11100203 11593398 11980463 
1586.235 12242333 12377827 12403807 12354339 12273075 12208492 12210946 
1589.610 12324477 12586793 13026400 13655939 14467195 15423486 16462374 
1592.986 17492062 18405020 19101268 19492936 19527386 19194900 18529900 
1596.361 17603808 16506393 15338214 14187787 13123069 12195065 11432055 
1599.736 10845203 10432233 10182272 10080625 10113657 10272746 10553278 
1603.111 10951649 11462061 12071721 12759928 13500870 14262116 15006828 
1606.487 15696580 16286451 16731130 16990574 17033336 16844610 16428925 
1609.862 15810167 15028403 14135206 13192195 12256239 11375181 10582544 
1613.237 9892047 9302903 8802292 8370789 7985442 7623635 7271766 6927454 
1617.094 6602624 6317268 6091000 5934980 5849536 5826331 5851618 5909957 
1620.952 5986007 6068185 6149875 6228858 6306611 6385925 6469995 6562222 
1624.809 6665773 6785033 6923683 7082517 7257312 7438716 7612744 7766230 
1628.667 7892575 7994115 8081603 8168939 8268890 8388286 8527484 8680855 
1632.524 8839893 8995303 9135303 9246206 9311096 9311773 9237203 9091654 
1636.382 8897248 8684269 8480483 8301581 8149762 8017538 7892440 7763397 
1640.239 7624579 7478289 7333463 7202127 7094204 7013246 6956611 6916008 
1644.096 6880727 6838280 6777191 6686904 6559295 6392751 6194137 5982412 
1647.954 5781770 5617638 5509806 5467962 5493128 5575750 5697968 5827372 
1651.811 5917111 5917111 5793657 5560245 5273158 4996317 4765343 4585922 
1655.669 4448786 4341779 4256112 4187557 4134033 4094663 4067571 4050145 
1659.526 4039377 4032153 4025063 4013960 3992190 3952766 3890077 3804432 
1663.384 3704233 3605060 3524850 3476584 3466764 3493084 3546396 3612678 
1667.241 3676330 3723984 3745105 3734912 3693607 3626410 3541853 3450933 
1671.098 3366777 3300666 3260771 3249154 3260103 3278632 3283573 3254495 
1674.956 3179956 3065987 2934034 2811858 2719857 2664713 2641243 2638343 
1678.813 2646111 2659812 2683316 2725392 2795817 2897807 3024411 3154357 
1682.671 3256064 3291452 3230927 3072728 2850211 2617075 2415883 2267139 
1686.528 2169826 2111721 2077728 2053758 2028990 1995502 1950035 1894256 
1690.385 1835722 1785980 1758067 1762758 1805044 1882375 1983586 2091744 
1694.243 2185710 2245290 2260844 2239395 2204493 2182613 2192737 2238263 
1698.100 2309109 2382798 2429510 2420581 2340089 2199697 2034516 1885404 
1701.958 1778428 1719810 1702412 1711760 1731054 1742797 1734547 1701148 
1705.815 1647364 1584839 1526979 1483722 1458621 1449479 1451008 1458688 
1709.673 1470889 1490538 1522989 1574929 1650424 1749716 1869164 2002359 
1713.530 2142820 2284460 2423213 2555011 2673014 2767006 2823197 2828500 
1717.387 2778043 2680082 2555778 2430243 2324699 2251319 2212019 2202628 
1721.245 2216249 2245923 2285459 2329595 2374469 2416982 2455401 2489890 
1725.102 2522983 2558911 2602042 2655578 2719390 2790015 2861151 2926528 
1728.960 2982173 3029016 3072227 3119047 3174616 3238004 3298897 3336759 
1732.817 3325240 3238772 3068423 2832168 2572010 2334226 2148248 2024396 
1736.675 1955959 1928568 1924674 1927669 1924641 1908034 1878183 1842211 
1740.532 1811233 1794464 1797059 1818287 1853757 1896785 1941947 1987780 
1744.389 2036213 2092410 2161201 2244757 2340955 2444138 2545912 2638310 
1748.247 2716089 2776176 2816694 2834803 2826832 2788614 2720757 2630176 
1752.104 2530381 2437641 2366107 2322833 2306777 2309142 2317137 2316604 
1755.962 2297683 2258013 2203727 2146283 2096439 2061082 2040242 2028923 
1759.819 2018737 2000562 1966876 1913059 1839083 1749184 1652452 1559234 
1763.677 1480331 1424380 1395825 1394263 1414207 1446088 1478802 1503405 
1767.534 1516605 1522158 1528974 1545301 1575162 1615169 1655147 1680824 
1771.391 1679827 1647330 1589728 1521792 1459685 1415271 1392035 1387049 
1775.249 1395193 1412213 1436380 1468229 1508825 1557305 1610580 1662963 
1779.106 1707934 1740601 1759630 1767282 1769312 1771641 1779026 1793067 
1782.964 1812630 1834125 1853059 1865837 1869763 1865238 1855088 1844840 
1786.821 1841213 1851362 1880712 1932062 2003724 2088914 2177252 2255215 
1790.678 2308309 2325931 2302747 2241860 2154109 2054790 1958655 1875454 
1794.536 1810268 1762924 1730854 1709830 1695560 1684882 1675935 1667985 
1798.393 1661400 1656976 1654215 1651820 1646632 1635290 1615568 1587400 
1802.251 1553448 1518101 1486781 1463408 1450709 1448548 1456194 1471920 
1806.108 1494428 1523122 1557671 1597210 1639647 1681556 1718745 1747687 
1809.966 1766118 1773870 1772373 1764355 1753077 1741899 1733915 1732152 
1813.823 1739470 1757801 1787876 1828502 1876352 1927237 1976463 2021067 
1817.680 2060116 2094574 2126571 2158038 2190339 2224441 2261544 2303213 
1821.538 2351316 2406354 2466697 2527549 2581009 2618742 2635643 2632109 
1825.395 2615909 2598408 2591342 2601842 2629842 2668246 2705220 2728826 
1829.253 2729793 2706354 2663746 2613108 2566077 2531515 2514051 2514418 
1833.110 2531381 2562344 2605342 2657978 2717957 2782978 2851112 2921124 
1836.968 2992982 3067922 3147982 3235801 3334255 3446157 3574191 3721043 
1840.825 3887636 4073190 4273177 4478982 4679559 4863173 5021791 5154481 
1844.682 5268128 5373418 5479606 5591323 5706495 5819346 5921578 6007440 
1848.540 6073662 6120336 6149069 6161302 6156395 6132064 6085154 6014025 
1852.397 5919429 5805242 5677120 5540277 5398612 5254008 5106570 4956835 
1856.255 4806583 4658626 4516311 4381741 4254774 4133130 4013726 3894322 
1860.112 3774550 3656114 3541352 3432631 3330816 3235867 3147882 3068390 
1863.969 3001357 2951714 2923926 2919489 2935435 2964658 2997086 3022777 
1867.827 3034755 3030184 3010632 2980772 2946310 2911817 2880029 2852513 
1871.684 2829867 2811891 2797618 2785246 2772174 2755868 2734395 2707587 
1875.542 2676781 2643477 2608542 2571076 2528648 2477794 2416216 2344220 
1879.399 2264641 2182314 2101699 2025494 1953829 1884871 1816157 1746456 
1883.257 1677398 1611810 1554046 1507229 1472584 1449445 1436081 1430230 
1887.114 1430729 1435815 1443195 1449645 1451374 1445323 1432059 1415603 
1890.971 1402905 1401177 1414939 1444226 1484154 1526780 1564754 1593020 
1894.829 1611345 1622719 1632064 1643406 1657841 1675003 1693631 1713623 
1898.686 1736809 1765918 1803181 1848001 1897351 1946241 1990076 2026726 
1902.544 2057353 2085718 2115417 2148381 2184445 2221377 2256848 2289956 
1906.401 2321601 2352981 2384664 2414550 2438340 2450769 2448470 2431843 
1910.259 2405221 2374869 2346851 2324465 2307710 2294186 2282694 2273701 
1914.116 2270937 2278031 2296651 2323566 2350882 2367540 2363242 2334059 
1917.973 2283194 2221511 2161335 2113353 2082089 2065676 2058086 2052759 
1921.831 2044369 2029988 2008584 1980057 1943678 1899181 1847601 1792202 
1925.688 1739237 1695626 1667320 1656710 1661133 1674006 1687710 1695926 
1929.546 1695793 1687943 1674870 1658971 1641510 1622020 1600370 1577091 
1933.403 1555044 1537187 1525583 1519897 1516472 1510986 1500113 1484387 
1937.260 1468262 1458987 1463043 1484154 1520628 1567314 1616932 1662963 
1941.118 1701082 1730222 1749850 1760662 1762691 1756536 1744859 1732285 
1944.975 1725432 1729889 1748985 1781089 1820250 1858549 1888898 1908300 
1948.833 1917685 1920547 1920580 1919582 1916953 1910763 1900679 1888465 
1952.690 1878049 1875054 1881777 1896818 1915322 1930365 1936223 1931497 
1956.548 1917984 1900679 1883640 1868532 1853957 1838052 1820683 1804778 
1960.405 1796693 1802150 1824409 1861444 1907568 1954561 1998232 2036047 
1964.262 2070071 2101933 2129868 2147715 2147615 2122243 2071535 2003491 
1968.120 1933360 1877351 1846836 1843841 1860779 1886069 1906969 1917053 
1971.977 1915222 1904373 1888898 1871161 1851994 1833393 1821681 1826805 
1975.835 1861810 1934525 2043737 2175720 2307976 2415816 2483559 2507486 
1979.692 2495689 2461465 2417882 2370838 2319035 2257713 2183512 2097837 
1983.550 2009183 1927935 1864339 1822978 1802616 1797592 1802549 1814494 
1987.407 1835390 1867966 1914157 1970904 2031187 2085652 2127304 2154142 
1991.264 2169560 2179949 2192104 2207989 2227172 2246289 2262976 2278797 
1995.122 2297051 2322034 2354980 2393060 2428877 2454334 2464498 2459466 
1998.979 2445171 2429044 2417382 2412517 2410152 2404654 2390528 2365774 
2002.837 2333026 2297517 2263076 2230536 2198232 2163166 2125240 2087649 
2006.694 2057520 2042006 2044003 2059817 2078494 2088815 2080524 2050928 
2010.552 2004523 1949935 1897584 1853957 1821614 1800752 1791935 1797026 
2014.409 1821215 1869164 1942014 2034882 2138925 2241860 2334892 2413917 
2018.266 2479426 2535847 2585809 2629743 2664146 2685816 2692851 2688483 
2022.124 2679382 2674181 2678782 2695918 2722425 2753067 2782778 2808490 
2025.981 2828867 2844241 2853180 2853180 2841106 2815727 2779977 2741530 
2029.839 2710088 2695285 2701853 2730560 2776543 2833536 2896440 2963323 
2033.696 3033921 3108334 3184996 3259502 3327944 3387882 3440880 3490879 
2037.553 3544191 3603891 3669046 3735079 3795541 3845547 3884761 3915786 
2041.411 3942735 3968047 3990418 4004028 4002323 3981423 3941799 3891280 
2045.268 3839898 3798215 3774049 3769102 3781669 3807406 3842505 3883390 
2049.126 3926385 3966743 3997507 4011920 4005533 3978781 3937352 3890411 
2052.983 3848355 3818069 3800187 3789791 3779898 3763554 3739324 3710917 
2056.841 3685587 3670616 3669714 3681209 3699087 3716899 3729765 3736583 
2060.698 3739558 3742164 3746175 3751322 3755132 3754731 3748815 3737653 
2064.555 3723883 3709213 3694375 3678135 3658353 3633995 3606497 3579102 
2068.413 3555884 3539314 3528959 3521109 3511054 3495288 3473812 3449464 
2072.270 3427622 3412527 3405247 3403109 3401172 3394427 3380502 3359565 
2076.128 3334522 3308813 3284641 3262273 3241142 3220312 3201085 3185364 
2079.985 3175584 3172613 3174416 3177186 3176552 3169910 3158495 3146580 
2083.843 3139638 3141407 3151987 3167273 3181125 3187834 3184296 3171212 
2087.700 3152221 3130994 3109435 3087143 3061716 3031085 2995918 2959654 
2091.557 2928062 2907014 2898975 2903378 2916220 2931532 2945142 2954783 
2095.415 2960354 2962723 2962723 2959787 2952548 2940205 2923225 2904079 
2099.272 2885900 2872058 2863286 2859650 2859450 2862152 2869156 2883531 
2103.130 2908615 2946310 2994917 3050037 3105731 3156726 3201085 3240574 
2106.987 3279066 3320766 3368614 3421844 3478220 3535072 3589792 3642649 
2110.844 3694475 3746208 3797513 3845915 3887903 3920902 3944407 3960290 
2114.702 3972595 3985904 4003727 4027370 4056734 4090716 4128246 4169693 
2118.559 4215192 4265348 4319424 4376185 4433488 4489762 4543967 4596169 
2122.417 4646100 4693090 4735663 4771708 4799882 4820620 4836200 4850005 
2126.274 4864747 4881300 4897921 4911023 4916486 4912096 4898558 4879725 
2130.132 4860056 4844878 4837339 4839182 4850708 4872019 4902847 4942558 
2133.989 4988876 5037445 5081728 5115421 5134933 5141773 5141170 5141505 
2137.846 5150055 5169704 5198038 5228420 5254042 5271347 5281543 5289090 
2141.704 5299085 5314011 5330883 5342321 5340241 5318874 5278558 5225972 
2145.561 5169972 5119444 5079482 5049512 5025880 5004428 4982676 4960119 
2149.419 4937498 4913101 4882641 4840589 4781591 4704980 4615558 4521601 
2153.276 4432484 4353560 4283584 4217099 4147648 4073892 4004530 3956478 
2157.134 3950994 4004430 4120050 4283183 4467901 4644728 4788793 4888337 
2160.991 4943865 4962600 4954187 4926573 4885958 4836468 4784304 4735663 
2164.848 4696272 4669678 4654440 4645263 4634413 4615190 4585286 4546243 
2168.706 4502852 4458996 4416785 4373708 4326753 4272609 4211679 4148015 
2172.563 4088776 4041283 4010349 3996270 3995534 4001387 4006269 4003192 
2176.421 3987308 3955107 3904887 3838794 3761148 3679405 3604225 3545862 
2180.278 3511422 3503138 3516900 3543557 3573322 3598044 3614382 3623704 
2184.135 3628549 3631756 3633895 3632157 3624873 3611475 3594302 3578868 
2187.993 3572186 3578600 3599748 3633460 3673958 3715930 3754597 3787385 
2191.850 3812588 3829568 3837257 3834750 3823117 3804365 3783374 3765459 
2195.708 3754430 3751589 3754965 3760412 3763521 3762953 3759243 3755433 
2199.565 3754864 3758240 3763888 3767465 3763588 3749517 3724519 3691702 
2203.423 3655212 3619126 3586084 3557320 3533268 3514795 3503205 3500599 
2207.280 3507580 3522378 3541686 3560660 3575260 3584614 3590060 3595438 
2211.137 3604626 3619895 3640610 3664602 3688527 3710717 3731303 3751856 
2214.995 3773815 3797446 3820510 3839931 3852099 3855710 3851865 3843040 
2218.852 3832310 3821913 3812120 3802058 3790961 3779363 3768668 3761983 
2222.710 3761114 3765559 3773414 3780600 3783307 3779898 3770707 3757906 
2226.567 3744571 3732405 3721544 3711886 3702796 3695010 3690833 3692136 
2230.425 3700323 3713992 3729364 3741663 3746375 3741563 3727794 3708878 
2234.282 3688594 3670850 3658186 3651102 3650735 3657919 3673791 3699655 
2238.139 3735146 3777157 3821011 3861058 3892417 3913145 3924346 3928592 
2241.997 3929662 3930030 3930230 3929963 3928592 3926753 3926151 3930030 
2245.854 3940595 3959119 3984800 4014663 4045564 4074728 4100516 4122225 
2249.712 4139485 4151093 4156111 4153602 4143700 4128479 4111688 4097305 
2253.569 4088341 4086200 4089779 4096301 4102958 4107406 4109012 4107406 
2257.427 4102757 4094763 4082555 4065530 4043992 4020013 3997441 3979684 
2261.284 3969920 3968582 3975002 3986305 4000417 4016301 4034394 4056032 
2265.141 4082153 4112290 4144704 4176049 4203382 4224360 4238278 4245439 
2268.999 4246744 4243297 4235568 4224025 4209605 4194114 4179428 4167418 
2272.856 4158620 4151896 4145573 4137612 4127008 4114966 4103527 4095833 
2276.714 4094328 4099379 4110082 4124131 4139117 4153568 4167117 4180331 
2280.571 4193680 4207564 4220913 4233192 4243933 4253871 4264578 4277829 
2284.428 4294794 4315509 4338801 4362429 4384552 4404132 4420500 4434626 
2288.286 4446778 4457523 4467031 4475634 4484037 4493846 4507271 4525887 
2292.143 4550730 4581536 4616061 4652062 4686860 4719048 4748292 4775292 
2296.001 4801021 4826484 4852082 4878083 4904522 4931734 4960052 4989446 
2299.858 5019679 5049479 5077303 5101373 5120483 5134430 5144288 5151966 
2303.716 5159477 5169234 5183016 5201861 5226576 5257429 5294154 5336115 
2307.573 5381938 5430249 5479807 5529739 5580248 5631501 5683867 5737315 
2311.430 5790803 5842853 5892357 5938575 5982244 6025616 6071344 6121949 
2315.288 6179148 6242673 6311486 6383436 6456610 6529527 6601648 6672873 
2319.145 6743302 6813406 6883084 6951964 7018903 7081676 7136710 7179355 
2323.003 7204755 7209673 7193268 7158268 7111246 7061536 7018162 6989136 
2326.860 6978967 6988025 7013077 7048368 7088344 7127784 7163826 7194985 
2330.718 7221061 7242622 7260210 7274765 7288141 7302192 7319749 7343101 
2334.575 7373634 7411617 7456143 7505325 7557311 7610686 7664102 7716681 
2338.432 7767141 7814031 7855291 7889808 7916801 7936441 7949973 7957970 
2342.290 7960535 7956284 7941536 7911909 7863221 7792474 7700222 7591096 
2346.147 7474547 7362917 7270688 7211897 7197377 7234166 7324163 7464300 
2350.005 7646870 7860217 8092068 8329682 8562797 8784811 8992089 9183458 
2353.862 9358830 9518421 9662724 9792401 9909640 10017350 10118812 10216668 
2357.719 10312612 10405964 10495637 10580370 10660062 10735556 10807665 
2361.095 10877308 10943155 11002691 11052889 11091671 11118729 11136337 
2364.470 11148337 11157584 11166288 11174005 11178085 11175161 11161800 
2367.845 11135997 11097109 11045411 10981485 10906322 10820302 10724450 
2371.220 10620367 10510064 10396598 10283026 10171588 10064721 9964221 
2374.596 9871811 9789587 9719578 9663436 9621800 9594801 9581387 9580777 
2378.453 9592328 9616380 9654119 9707041 9775897 9860693 9959576 10070316 
2382.311 10189294 10313766 10440616 10567300 10690794 10808039 10915530 
2385.686 11010338 11090447 11155273 11205284 11241836 11266386 11279580 
2389.061 11281314 11271181 11248908 11214634 11169483 11114955 11052549 
2392.436 10983592 10908463 10827639 10742009 10653236 10563904 10477103 
2395.812 10395919 10322826 10259176 10205881 10163922 10134007 10117964 
2399.187 10117387 10133565 10166804 10215990 10279668 10355706 10442551 
2402.562 10539291 10646105 10763134 10890863 11029369 11178221 11337088 
2405.937 11505337 11682397 11868076 12061637 12262509 12470227 12684695 
2409.313 12906745 13137721 13379104 13631048 13893026 14162078 14433865 
2412.688 14703319 14965123 15214627 15447897 15660888 15850166 16011955 
2416.063 16143095 16241355 16307229 16343044 16353503 16344592 16321542 
2419.438 16288722 16248887 16202318 16149148 16088868 16021376 15947122 
2422.813 15867624 15784636 15700942 15619772 15544935 15480893 15431863 
2426.189 15401205 15391422 15403677 15437734 15492670 15567739 15662331 
2429.564 15776355 15910035 16062908 16234269 16423557 16629901 16853392 
2432.939 17094404 17353686 17631654 17928066 18241128 18568974 18909252 
2436.314 19260566 19622772 19996628 20384070 20786734 21206298 21643994 
2439.690 22101134 22578612 23077652 23598674 24141760 24705764 25288796 
2443.065 25889004 26505360 27137652 27786974 28454108 29139488 29841674 
2446.440 30557900 31284142 32016236 32750960 33485856 34219348 34950340 
2449.815 35676776 36396320 37105836 37802308 38482844 39144724 39785828 
2453.191 40402532 40991268 41547192 42065164 42540668 42968808 43345380 
2456.566 43665300 43923460 44113588 44229720 44266188 44218680 44084832 
2459.941 43864404 43557816 43167520 42696592 42149460 41531548 40850296 
2463.316 40114328 39332988 38516372 37673680 36814548 35948224 35083588 
2466.692 34230280 33398896 32598708 31839036 31128274 30471986 29874362 
2470.067 29337394 28861248 28445052 28087114 27784854 27534804 27332600 
2473.442 27173348 27050966 26959748 26894108 26848740 26818852 26799574 
2476.817 26786360 26774906 26761584 26743578 26719088 26687586 26648550 
2480.193 26602082 26547448 26484122 26411334 26328666 26236440 26135892 
2483.568 26028716 25916612 25801334 25684260 25566656 25450276 25336564 
2486.943 25226954 25123024 25025262 24932818 24844222 24757394 24670340 
2490.318 24581692 24490360 24396244 24299064 24198406 24093180 23981818 
2493.694 23863202 23736080 23600040 23455332 23302354 23141810 22974060 
2497.069 22799286 22617530 22428698 22233254 22031412 21823566 21610318 
2500.444 21392302 21170674 20946862 20722958 20501288 20284486 20074666 
2503.819 19873236 19681120 19497546 19322156 19153692 18990728 18832184 
2507.195 18677298 18525058 18375016 18227272 18082306 17940980 17804326 
2510.570 17673098 17547154 17425730 17307272 17189396 17070658 16949540 
2513.945 16825770 16699828 16572962 16446648 16322745 16202696 16087836 
2517.320 15979676 15879069 15787007 15704310 15631348 15568082 15514784 
2520.696 15471451 15438111 15414697 15400828 15395781 15398871 15409273 
2524.071 15426439 15450094 15479794 15514647 15553212 15592913 15630763 
2527.446 15664358 15691735 15712382 15727499 15738253 15745845 15750896 
2530.821 15752580 15749762 15741825 15729286 15713826 15698366 15685827 
2534.197 15677892 15675075 15676243 15679402 15683079 15686238 15689399 
2537.572 15693968 15701527 15713276 15729731 15750414 15774913 15802400 
2540.947 15832607 15865184 15899416 15934268 15968779 16001884 16033167 
2544.322 16062977 16092582 16122876 16154822 16188491 16223194 16257796 
2547.698 16291371 16323192 16352987 16380580 16405664 16427997 16446993 
2551.073 16462581 16475350 16486568 16498305 16512038 16528489 16546974 
2554.448 16565939 16583495 16598333 16610175 16619848 16628765 16638061 
2557.823 16647493 16655585 16659614 16656412 16642915 16617713 16580019 
2561.198 16530624 16470911 16402293 16326323 16244691 16158605 16069923 
2564.574 15980089 15890686 15802607 15717329 15635435 15558500 15487829 
2567.949 15424997 15371442 15328122 15295275 15272006 15257112 15249183 
2571.324 15246850 15249733 15257214 15269947 15288274 15312574 15342883 
2574.699 15379372 15421426 15468189 15518837 15571516 15624614 15676826 
2578.075 15727395 15776355 15824635 15873536 15924437 15978748 16037052 
2581.450 16099630 16167030 16239291 16316932 16400194 16489219 16583668 
2584.825 16682476 16784404 16888182 16992746 17097574 17202462 17307134 
2588.200 17410900 17513172 17612710 17708680 17800736 17888738 17973338 
2591.576 18054880 18133984 18210996 18286190 18360016 18432884 18505418 
2594.951 18578174 18651286 18724690 18798000 18871150 18944656 19019286 
2598.326 19096628 19178034 19264412 19355760 19451838 19551958 19656020 
2601.701 19764752 19879512 20002146 20134218 20276084 20427584 20587196 
2605.077 20753402 20924470 21099256 21277002 21457012 21638980 21821686 
2608.452 22004398 22186244 22366598 22544794 22720654 22893160 23060984 
2611.827 23222548 23375602 23518428 23649614 23767996 23872934 23963504 
2615.202 24039210 24099484 24144212 24174198 24191152 24197738 24196374 
2618.578 24189926 24180118 24167962 24153742 24137452 24119204 24099064 
2621.953 24077524 24054796 24031400 24007938 23984934 23963784 23945928 
2625.328 23933464 23927618 23929612 23939240 23955522 23977510 24003772 
2628.703 24034134 24068838 24108940 24155632 24209790 24271698 24340836 
2632.079 24416362 24496740 24580534 24666062 24751502 24835450 24916642 
2635.454 24994690 25070436 25145072 25220844 25299790 25383458 25472306 
2638.829 25566058 25663450 25763326 25864420 25966030 26067734 26169322 
2642.204 26270440 26370808 26469932 26567772 26664932 26762184 26861008 
2645.580 26962324 27067082 27175500 27287508 27402968 27521814 27644186 
2648.955 27770372 27900836 28035862 28175244 28318844 28466314 28617406 
2652.330 28771986 28930482 29093144 29260722 29433580 29612286 29797384 
2655.705 29988666 30186214 30389998 30599104 30813506 31032710 31257010 
2659.081 31486806 31722638 31964664 32212534 32465328 32721308 32978296 
2662.456 33234828 33489506 33742296 33993152 34242792 34491716 34740312 
2665.831 34988476 35236640 35485060 35734440 35986092 36240772 36499452 
2669.206 36762440 37029588 37300512 37575036 37853208 38134776 38420000 
2672.582 38708420 38999460 39292036 39584736 39876400 40165572 40451044 
2675.957 40731716 41006744 41275352 41537456 41793552 42044868 42293556 
2679.332 42542388 42794356 43052584 43319900 43599248 43892776 44202680 
2682.707 44530504 44876800 45241900 45625232 46026144 46443872 46878240 
2686.083 47329192 47797180 48282264 48784392 49302128 49834308 50379196 
2689.458 50935536 51502664 52080652 52669964 53270600 53883056 54507088 
2692.833 55141908 55787680 56444188 57111440 57790008 58479840 59180792 
2696.208 59892428 60614332 61346292 62087940 62839120 63599052 64367032 
2699.583 65141112 65920120 66702508 67487504 68274576 69063584 69853440 
2702.959 70642080 71426264 72201776 72963896 73707800 74428992 75122816 
2706.334 75784784 76409976 76993464 77530960 78018592 78454496 78838032 
2709.709 79169184 79448864 79677728 79855944 79983512 80061160 80089800 
2713.084 80070840 80005864 79895968 79740832 79539712 79291224 78993960 
2716.460 78647736 78253056 77811568 77326064 76799616 76236256 75640376 
2719.835 75017936 74375704 73721384 73063224 72408848 71765224 71138080 
2723.210 70532272 69952136 69401864 68884696 68404368 67963328 67563600 
2726.585 67206096 66890812 66618100 66387632 66199856 66054812 65952560 
2729.961 65892400 65873080 65892436 65948204 66037880 66158988 66309228 
2733.336 66486476 66688636 66913464 67158944 67422672 67702944 67997416 
2736.711 68303736 68618752 68939056 69260496 69579560 69892896 70198056 
2740.086 70493256 70777000 71048320 71306304 71550296 71780936 71999928 
2743.462 72210384 72416320 72622240 72832104 73048528 73272944 73505600 
2746.837 73745728 73992152 74243480 74497696 74752272 75004032 75249800 
2750.212 75486472 75711840 75925160 76127112 76319432 76504808 76686224 
2753.587 76866888 77050280 77239760 77438832 77649768 77873600 78109968 
2756.963 78355944 78607544 78860048 79108680 79348544 79575920 79786696 
2760.338 79976144 80139568 80271528 80367208 80422872 80436264 80406360 
2763.713 80333320 80217480 80059480 79860288 79621328 79345720 79037920 
2767.088 78704280 78351696 77987064 77616920 77246616 76880696 76523144 
2770.464 76177376 75847072 75535080 75243536 74973984 74726840 74502344 
2773.839 74300328 74120056 73960608 73820264 73695864 73582880 73475624 
2777.214 73367136 73250752 73119608 72967344 72788096 72576344 72327632 
2780.589 72038728 71708544 71338712 70933368 70499376 70044048 69575552 
2783.965 69100792 68625272 68153104 67687296 67229608 66781364 66343048 
2787.340 65914184 65493420 65078676 64668104 64259872 63853256 63448252 
2790.715 63046144 62648004 62255328 61869416 61491408 61122500 60764268 
2794.090 60418368 60086136 59768836 59466960 59179848 58906196 58644476 
2797.466 58392692 58149544 57913568 57683816 57459328 57239000 57022072 
2800.841 56807476 56594276 56381596 56168524 55953636 55735464 55513036 
2804.216 55285000 55051104 54812108 54569264 54324260 54079584 53836848 
2807.591 53597616 53363168 53134160 52911560 52695812 52486896 52284624 
2810.967 52088536 51897240 51709760 51524896 51341828 51160032 50979504 
2814.342 50800164 50622056 50445916 50272492 50103860 49942800 49793280 
2817.717 49659824 49547356 49461092 49405400 49384316 49400908 49457380 
2821.092 49554412 49692036 49868496 50080952 50325504 50597932 50893028 
2824.468 51205920 51531204 51862440 52192960 52515616 52822460 53106824 
2827.843 53362344 53584052 53768552 53913292 54016052 54075568 54090280 
2831.218 54059696 53984272 53865956 53708028 53515080 53292364 53045496 
2834.593 52779688 52499908 52210408 51914156 51613476 51309128 51000852 
2837.969 50687436 50367996 50041648 49708828 49370612 49029104 48686452 
2841.344 48344184 48002556 47661380 47319252 46975032 46628832 46281508 
2844.719 45935160 45593140 45258524 44934596 44624460 44330472 44054800 
2848.094 43799532 43566532 43357352 43173740 43016148 42885120 42780536 
2851.469 42701640 42646916 42614456 42601336 42604260 42620016 42645380 
2854.845 42678132 42717028 42761268 42810520 42864128 42919940 42974952 
2858.220 43025036 43065392 43091260 43098724 43084232 43045452 42980552 
2861.595 42888012 42767372 42618404 42442012 42239760 42014792 41770748 
2864.970 41511644 41242380 40968076 40693324 40424204 40166624 39926308 
2868.346 39709468 39521516 39366616 39247568 39165176 39118476 39104188 
2871.721 39117820 39153900 39206332 39269656 39339920 39414108 39490996 
2875.096 39570836 39654320 39742472 39835764 39933900 40036352 40142168 
2878.471 40250152 40359480 40469592 40579768 40689468 40797956 40904904 
2881.847 41009656 41112836 41214728 41316236 41418032 41520648 41624020 
2885.222 41727560 41830652 41931944 42030668 42125984 42217192 42304040 
2888.597 42386152 42463312 42536064 42604916 42670384 42733152 42793700 
2891.972 42852132 42908784 42963908 43017976 43071868 43126316 43181648 
2895.348 43238340 43296140 43354860 43414620 43475920 43540268 43608808 
2898.723 43682924 43762844 43848020 43936180 44024728 44111128 44192524 
2902.098 44267328 44334032 44391648 44438848 44474008 44495412 44501688 
2905.473 44491996 44466596 44426660 44373960 44310912 44239332 44160972 
2908.849 44076544 43986484 43891200 43790184 43683656 43571516 43453800 
2912.224 43330624 43202652 43070368 42934644 42796736 42657772 42519036 
2915.599 42381728 42246988 42116092 41990120 41870348 41757876 41653704 
2918.974 41558600 41473840 41400352 41339560 41293136 41262964 41250576 
2922.350 41257136 41282492 41325388 41382892 41450800 41524328 41597584 
2925.725 41665080 41721980 41764256 41789428 41796760 41787020 41762216 
2929.100 41725484 41680656 41631896 41583760 41542156 41513028 41503404 
2932.475 41521376 41574244 41668948 41811060 42003440 42247100 42540632 
2935.851 42881064 43264184 43684868 44138380 44619172 45122296 45642936 
2939.226 46176508 46719000 47266788 47816120 48363368 48903820 49431836 
2942.601 49940568 50421208 50862668 51253160 51579408 51827604 51987016 
2945.976 52049648 52013308 51882192 51667476 51386584 51059208 50707024 
2949.352 50349912 50003096 49677660 49379560 49110496 48869336 48653060 
2952.727 48458492 48281860 48120180 47970992 47831952 47701612 47578596 
2956.102 47461968 47351068 47245360 47144116 47047288 46954764 46866944 
2959.477 46784348 46707968 46638420 46576376 46522012 46475176 46435760 
2962.853 46403312 46377540 46358408 46345984 46340080 46341152 46349560 
2966.228 46366036 46391588 46427576 46474772 46533628 46602900 46680592 
2969.603 46763168 46846204 46925196 46996152 47056112 47103492 47138428 
2972.978 47162512 47178724 47191616 47205800 47225712 47254632 47293020 
2976.354 47337912 47381624 47412668 47416140 47375308 47275248 47104008 
2979.729 46854728 46527584 46128936 45671756 45172220 44649172 44122240 
2983.104 43607380 43118704 42665812 42253672 41883924 41555248 41264644 
2986.479 41008748 40785292 40592356 40428240 40289740 40169532 40054880 
2989.854 39927832 39765820 39543724 39240352 38841524 38343628 37755356 
2993.230 37096744 36396036 35682244 34982876 34318952 33701616 33133898 
2996.605 32611854 32127790 31672522 31237604 30817490 30408086 30007696 
2999.980 29615690 29231872 28856256 28489028 28129922 27779132 27436178 
3003.355 27100902 26772896 26452288 26139094 25833860 25537522 25250974 
3006.731 24975388 24711234 24458950 24218340 23988786 23769258 23558656 
3010.106 23355498 23158306 22965990 22776868 22590374 22406090 22224674 
3013.481 22046960 21874438 21708326 21549728 21399022 21256020 21120476 
3016.856 20991720 20869226 20752638 20641712 20535538 20433418 20333652 
3020.232 20234392 20133662 20029452 19920202 19804978 19683720 19556812 
3023.607 19425814 19293126 19161758 19035314 18917798 18812322 18721300 
3026.982 18645614 18584814 18536436 18497052 18462236 18426870 18385560 
3030.357 18333330 18265560 18178588 18070356 17940150 17789758 17621786 
3033.733 17441010 17252450 17061078 16871374 16687054 16510351 16342424 
3037.108 16183814 16033959 15892163 15757939 15630661 15510114 15396399 
3040.483 15289784 15190367 15097868 15011596 14930314 14852750 14777497 
3043.858 14703629 14630903 14559526 14490078 14423143 14359026 14297350 
3047.234 14237874 14179365 14120966 14061925 14001490 13938975 13874176 
3050.609 13806892 13736880 13664248 13588928 13511159 13430943 13348522 
3053.984 13263929 13177304 13089057 12999940 12911080 12823741 12739318 
3057.359 12658427 12581370 12508044 12437833 12370191 12304639 12240970 
3060.735 12179150 12119453 12062114 12007372 11955565 11907170 11862663 
3064.110 11822551 11787211 11756502 11730188 11707517 11687775 11670314 
3067.485 11654419 11639239 11623686 11606330 11585027 11558143 11524083 
3070.860 11482711 11435049 11383175 11329776 11277676 11228745 11183932 
3074.236 11143068 11105369 11069679 11035045 11000992 10967077 10933131 
3077.611 10898814 10863616 10827130 10788915 10748767 10707027 10663695 
3080.986 10619009 10573173 10526256 10478393 10429925 10381225 10332733 
3084.361 10284994 10238176 10192143 10146793 10101991 10057702 10014739 
3087.737 9973612 9935133 9899843 9867981 9839340 9813650 9790740 9770406 
3091.594 9752886 9737875 9725135 9713987 9703415 9692471 9680240 9666383 
3095.451 9651138 9635384 9620071 9606488 9595885 9589043 9586468 9588331 
3099.309 9594056 9602795 9613229 9623731 9632708 9639178 9642499 9642803 
3103.166 9640838 9637484 9633724 9630539 9628609 9628473 9630200 9633893 
3107.024 9638806 9644260 9649071 9652222 9652662 9650324 9645852 9640771 
3110.881 9636773 9635757 9638975 9646632 9658218 9672380 9687660 9702704 
3114.739 9716697 9729404 9741298 9752785 9764171 9775761 9786809 9796400 
3118.596 9803245 9805990 9803923 9796874 9785554 9771490 9756851 9743433 
3122.453 9732623 9725371 9721069 9718798 9717409 9715749 9713207 9709785 
3126.311 9705618 9701416 9697587 9694505 9692234 9690912 9690438 9690709 
3130.168 9691725 9693454 9695724 9698807 9702500 9707176 9713207 9720831 
3134.026 9730252 9741162 9753192 9765900 9779150 9792672 9806871 9821749 
3137.883 9837442 9853067 9867845 9880454 9890081 9896556 9900318 9902522 
3141.740 9904691 9908319 9914217 9922996 9934794 9949778 9968391 9990904 
3145.598 10017655 10048275 10081406 10115251 10147539 10176064 10199944 
3148.973 10219043 10234885 10249236 10264706 10282959 10305216 10331037 
3152.348 10359541 10389131 10418182 10445639 10471130 10494992 10518075 
3155.724 10541939 10567707 10596430 10628482 10663661 10701186 10740683 
3159.099 10781476 10823631 10867489 10913627 10962557 11014348 11068761 
3162.474 11125153 11182810 11241325 11300291 11359910 11420421 11481997 
3165.849 11544465 11607147 11669259 11730120 11789390 11846795 11902573 
3169.225 11957063 12010165 12061671 12110969 12156593 12197279 12231836 
3172.600 12259135 12279313 12292435 12299764 12302764 12302627 12300446 
3175.975 12297207 12292947 12288072 12282823 12277609 12273075 12270349 
3179.350 12269939 12272428 12277609 12285209 12294617 12305354 12317386 
3182.726 12331090 12346805 12364975 12385362 12407898 12431832 12457235 
3186.101 12483764 12512103 12542659 12576084 12612546 12651741 12693156 
3189.476 12736077 12780129 12825072 12871248 12918795 12968088 13019025 
3192.851 13070993 13123889 13177270 13231203 13285485 13339980 13394275 
3196.227 13447654 13499229 13548691 13595901 13641921 13687774 13734966 
3199.602 13784248 13836068 13889845 13944860 14000428 14056415 14112922 
3202.977 14170533 14229863 14291221 14354642 14419718 14486173 14553769 
3206.352 14622198 14690810 14759329 14826556 14891736 14953909 15012865 
3209.728 15068914 15122877 15176161 15229829 15284224 15339931 15396536 
3213.103 15454249 15513514 15574813 15638869 15706096 15775910 15847452 
3216.478 15919281 15989989 16058335 16123941 16186805 16247477 16306542 
3219.853 16364856 16423214 16482783 16544702 16610313 16680030 16754203 
3223.229 16831968 16911988 16992540 17072140 17149962 17225868 17299858 
3226.604 17372240 17442872 17511622 17577964 17641938 17704124 17765734 
3229.979 17828078 17892466 17959110 18027558 18096780 18164872 18230762 
3233.354 18293966 18354622 18413420 18471258 18528656 18585884 18643020 
3236.729 18699746 18756448 18813222 18870422 18928286 18987162 19047086 
3240.105 19108124 19170452 19234106 19299292 19365876 19433230 19500734 
3243.480 19567450 19632930 19697032 19760730 19824782 19890612 19958604 
3246.855 20028966 20101178 20174584 20248832 20324032 20400946 20480100 
3250.230 20562252 20647410 20734810 20823406 20911710 20998778 21084300 
3253.606 21168760 21252506 21336928 21422482 21509514 21598026 21687844 
3256.981 21778866 21870640 21963444 22056580 22150084 22243296 22335760 
3260.356 22426850 22516316 22603918 22690036 22775156 22859702 22944262 
3263.731 23029118 23114414 23200526 23287566 23375706 23465264 23556522 
3267.107 23649510 23744060 23839782 23936090 24032276 24128030 24223208 
3270.482 24318372 24414118 24511184 24609882 24710288 24811524 24913132 
3273.857 25014030 25113720 25212242 25310220 25408750 25509094 25612132 
3277.232 25718746 25829078 25942886 26059608 26178542 26298426 26418236 
3280.608 26536846 26653518 26767998 26880852 26992998 27105662 27220158 
3283.983 27337258 27456898 27578936 27702384 27826856 27952212 28078772 
3287.358 28207526 28339464 28475476 28615956 28760692 28909054 29060124 
3290.733 29213196 29367526 29522978 29679476 29837308 29996868 30158616 
3294.109 30322912 30490114 30660190 30833140 31008936 31187546 31368970 
3297.484 31553216 31740210 31929426 32120616 32312714 32505356 32698300 
3300.859 32891900 33087306 33286304 33490654 33701796 33920276 34146076 
3304.234 34378296 34616140 34858920 35106256 35358444 35615916 35878656 
3307.610 36146736 36419416 36695984 36976004 37259172 37546172 37837552 
3310.985 38134376 38437196 38746672 39062932 39385808 39715132 40050520 
3314.360 40391876 40739032 41091672 41449924 41813580 42182940 42557772 
3317.735 42937900 43323048 43712348 44105148 44500584 44898732 45299636 
3321.111 45703704 46111504 46523528 46939368 47358824 47781128 48205324 
3324.486 48630416 49055516 49479548 49900832 50317804 50728808 51132672 
3327.861 51529336 51919160 52303316 52682344 53056092 53423340 53782016 
3331.236 54129840 54464568 54785192 55091048 55382252 55658544 55919000 
3334.612 56162412 56387064 56591672 56776136 56940956 57087668 57217488 
3337.987 57331172 57428124 57507472 57567660 57607232 57625544 57622100 
3341.362 57596792 57549652 57480088 57387512 57270944 57129388 56962000 
3344.737 56768244 56547624 56299804 56025216 55724316 55398172 55048732 
3348.113 54678080 54288328 53881368 53458828 53021576 52570512 52106428 
3351.488 51630044 51142512 50644396 50136884 49620784 49097104 48566752 
3354.863 48031716 47493500 46954172 46415996 45880212 45348112 44820808 
3358.238 44298472 43782084 43272416 42770332 42276684 41792456 41318060 
3361.614 40853468 40398928 39954460 39520024 39095632 38681508 38277400 
3364.989 37883324 37499068 37123920 36757784 36400392 36051320 35710588 
3368.364 35377888 35053452 34737156 34429012 34129332 33837776 33554148 
3371.739 33277646 33006966 32740708 32477540 32216672 31957850 31701930 
3375.115 31449792 31202570 30961220 30725976 30496546 30272108 30052078 
3378.490 29835568 29622574 29413156 29206994 29004330 28803850 28604630 
3381.865 28404972 28203920 28000804 27795698 27589916 27384898 27182130 
3385.240 26982772 26787346 26595706 26407038 26220670 26036422 25854572 
3388.615 25675578 25500310 25328802 25160484 24994024 24827416 24658768 
3391.991 24487134 24312276 24135352 23958288 23783466 23612494 23446206 
3395.366 23284628 23126538 22971266 22818038 22666960 22518340 22373296 
3398.741 22231788 22094020 21959086 21825412 21691676 21556240 21418166 
3402.116 21277420 21134250 20989460 20844228 20699604 20556730 20416542 
3405.492 20279556 20146192 20016232 19888982 19763504 19638270 19512136 
3408.867 19384028 19253536 19120622 18986332 18852048 18719464 18590104 
3412.242 18465034 18344634 18228516 18115744 18004832 17894640 17783994 
3415.617 17672546 17560506 17448150 17336306 17225422 17115428 17006114 
3418.993 16897380 16789020 16680926 16573546 16466986 16361691 16257659 
3422.368 16154787 16052730 15950939 15849238 15747426 15645396 15543665 
3425.743 15442712 15343157 15245512 15150393 15057628 14967112 14877849 
3429.118 14789084 14699447 14607806 14513923 14417937 14320568 14223084 
3432.494 14126511 14031604 13938666 13847596 13757879 13669001 13580893 
3435.869 13493077 13405552 13318454 13232159 13147044 13064129 12984338 
3439.244 12908896 12838791 12773884 12713388 12655903 12599175 12541227 
3442.619 12480524 12416455 12349191 12278870 12205526 12128823 12048113 
3445.995 11963024 11873866 11781627 11688693 11597210 11509759 11427089 
3449.370 11349706 11276418 11205998 11137289 11069883 11003745 10939145 
3452.745 10876254 10814935 10754303 10693613 10632081 10569234 10505481 
3456.120 10441261 10377085 10313258 10249371 10185393 10120508 10054344 
3459.496 9987004 9918454 9849474 9779861 9710293 9641279 9573562 9508363 
3463.353 9446525 9389199 9336553 9287670 9241061 9194660 9146267 9094462 
3467.210 9038469 8978897 8916627 8852912 8789105 8725781 8663075 8600681 
3471.068 8538364 8475753 8412913 8349947 8287634 8226408 8166880 8109486 
3474.925 8054159 8000966 7949602 7899592 7851141 7803708 7757528 7712262 
3478.783 7667272 7621342 7572855 7520057 7461839 7397596 7328038 7254920 
3482.640 7181342 7109596 7042340 6980785 6924895 6873860 6826465 6781129 
3486.498 6736370 6690605 6642962 6592632 6539247 6482876 6424393 6365851 
3490.355 6308964 6255951 6208422 6167048 6131190 6099502 6069899 6039827 
3494.212 6007608 5971763 5931957 5888260 5841711 5793859 5746448 5701963 
3498.070 5662282 5628983 5602802 5583134 5568400 5555647 5541317 5521987 
3501.927 5494672 5457762 5411159 5356846 5297810 5237844 5180601 5129301 
3505.785 5085482 5049445 5020014 4994407 4969872 4943262 4912230 4875671 
3509.642 4833788 4787922 4740252 4692990 4648311 4607755 4571791 4540317 
3513.500 4512628 4487619 4464185 4440786 4416718 4391514 4365173 4338499 
3517.357 4312363 4288235 4267020 4249487 4235735 4225129 4216296 4207731 
3521.214 4197393 4183744 4165745 4142964 4115635 4084929 4052018 4017973 
3525.072 3983362 3948854 3914282 3879646 3844912 3810147 3775486 3741262 
3528.929 3707308 3673323 3638572 3602555 3565438 3528157 3492182 3459617 
3532.787 3431930 3409755 3392657 3378698 3365174 3349414 3329480 3304339 
3536.644 3274592 3241976 3208462 3175984 3146013 3119714 3097522 3080002 
3540.501 3067455 3060181 3058312 3061783 3069558 3080002 3090480 3097855 
3544.359 3098556 3089212 3067355 3032186 2985009 2929030 2869289 2811291 
3548.216 2759703 2717323 2684749 2659679 2638543 2616609 2590042 2556911 
3552.074 2517617 2474161 2430543 2390428 2356513 2330228 2311374 2298649 
3555.931 2290322 2284460 2279796 2275200 2269971 2263576 2255382 2245357 
3559.789 2233933 2221777 2210887 2203727 2203360 2212619 2233900 2267839 
3563.646 2313206 2365974 2419281 2463731 2488790 2484225 2443938 2366340 
3567.503 2257480 2128203 1992506 1862742 1748253 1653483 1578454 1520761 
3571.361 1476607 1441899 1413576 1389576 1368236 1349224 1331708 1314592 
3575.218 1297410 1279033 1258729 1236565 1213272 1189183 1165694 1143269 
3579.076 1122938 1104833 1089653 1077429 1068627 1064242 1065272 1073543 
3582.933 1091480 1120613 1162039 1214734 1274746 1334434 1383991 1411914 
3586.791 1408523 1369233 1296845 1201410 1097393 999743 920245 864432 833192 
3591.130 822369 826353 837806 850156 858522 858921 849260 829208 799995 
3595.470 763880 724350 685023 648984 618190 592973 571772 552264 532027 
3599.809 509602 485021 459878 436594 417855 406015 402732 408768 424953 
3604.149 450923 486116 528212 573663 616929 651439 670985 671317 651539 
3608.489 615237 569616 522573 480311 446180 419712 397425 374543 347881 
3612.828 315981 281100 248377 223944 213501 220629 245062 282758 327089 
3617.168 367844 394308 397956 373912 323143 253151 175347 101103 39895 -3710 
3621.990 -28825 -37539 -32105 -13783 18058 65477 130932 215391 316412 426545 
3626.811 532591 615735 655322 634317 547686 407342 240454 76977 -60465 
3631.151 -161597 -227538 -266845 -291415 -311712 -334822 -361937 -390507 
3635.008 -414342 -428476 -431257 -424670 -414276 -405768 -404212 -411032 
3638.866 -424802 -442048 -459127 -474021 -485870 -494906 -499936 -498017 
3642.723 -484017 -451779 -396400 -315950 -212635 -92500 36482 164707 282559 
3647.063 381639 454041 491788 488040 438120 342509 208662 52620 -105187 
3651.402 -245387 -352336 -419506 -447840 -444530 -420433 -387892 -360017 
3655.260 -346675 -354290 -382264 -424305 -469255 -505463 -524923 -524294 
3659.117 -506092 -475842 -441386 -409376 -382529 -360183 -337537 -309163 
3662.975 -269958 -217901 -152290 -72988 21835 136633 278249 452681 664282 
3667.314 913803 1201277 1530870 1917219 2386496 2976568 3726925 4663348 
3671.172 5795941 7121789 8634040 10326422 12185353 14173306 16182953 
3674.547 18015056 19397160 20036252 19759238 18586922 16710401 14391700 
3677.922 11879110 9383951 7056787 5010227 3320432 2013278 1068992 427705 
3681.780 13883 -248964 -420068 -533527 -606492 -644376 -650761 -632498 
3685.637 -600404 -566619 -542661 -535976 -549677 -583131 -633491 -696978 
3689.494 -769882 -848230 -927490 -1002736 -1069937 -1126090 -1170339 
3692.870 -1203746 -1228065 -1244353 -1253241 -1253868 -1246071 -1230113 
3696.245 -1207612 -1180880 -1151437 -1120306 -1087157 -1051659 -1015199 
3699.620 -981513 -956585 -947229 -957809 -988191 -1032289 -1080018 -1120802 
3703.478 -1146315 -1153255 -1142547 -1117762 -1082497 -1039726 -990472 
3706.853 -934764 -873197 -808016 -743024 -684208 -638388 -611621 -609139 
3710.710 -633226 -683745 -756288 -843898 -936219 -1021909 -1091520 -1138780 
3714.568 -1161714 -1162540 -1145852 -1118654 -1086529 -1053840 -1022174 
3717.943 -991331 -959660 -926003 -890557 -855043 -821840 -793233 -770047 
3721.800 -752054 -737632 -725426 -714841 -707200 -705116 -711698 -729429 
3725.658 -759199 -798326 -841881 -881497 -909702 -919026 -905106 -867774 
3729.515 -810100 -738261 -659032 -579624 -504636 -435428 -371009 -309990 
3733.373 -254129 -209787 -188193 -200812 -255355 -350052 -472565 -602455 
3737.230 -719869 -810563 -868832 -895649 -894790 -868898 -819228 -745637 
3741.087 -649339 -535678 -417222 -313732 -248500 -242903 -304262 -417453 
3744.945 -545540 -648677 -701708 -700021 -654566 -584058 -508210 -443372 
3748.802 -400472 -385211 -397790 -435792 -495899 -574230 -666145 -763730 
3752.660 -856332 -932483 -983860 -1007596 -1005943 -986108 -955693 -922994 
3756.517 -893864 -872007 -859441 -858581 -870750 -898096 -940650 -994802 
3760.375 -1053113 -1105798 -1142746 -1157848 -1149719 -1122719 -1084811 
3763.750 -1044850 -1010769 -986571 -972157 -963330 -953610 -938401 -915951 
3767.607 -888937 -863045 -846643 -846676 -867906 -909570 -965776 -1027892 
3771.465 -1085802 -1132104 -1163267 -1179162 -1182202 -1176684 -1166208 
3774.840 -1152428 -1135409 -1114258 -1087917 -1057179 -1025215 -996753 
3778.215 -977479 -971396 -979099 -997315 -1020223 -1041280 -1055956 -1063558 
3782.073 -1066004 -1067359 -1071557 -1080844 -1095750 -1114787 -1134914 
3785.448 -1153122 -1167596 -1176783 -1180252 -1178038 -1170240 -1157947 
3788.823 -1142647 -1126751 -1112705 -1102691 -1096907 -1093800 -1090231 
3792.198 -1082299 -1066599 -1042172 -1011133 -977116 -945675 -921407 -906164 
3796.056 -898030 -891218 -877727 -851008 -807520 -749011 -682687 -620521 
3799.913 -575885 -561722 -584587 -640505 -713816 -783377 -830505 -845089 
3803.771 -828388 -789694 -744512 -709846 -700220 -725129 -784104 -866716 
3807.628 -955527 -1034206 -1091685 -1124636 -1135574 -1128932 -1108772 
3811.003 -1076812 -1032652 -975000 -903982 -822237 -736772 -657279 -595639 
3814.861 -561325 -557586 -577705 -605863 -623962 -616518 -578466 -515127 
3818.718 -440360 -372697 -331975 -334988 -387594 -482395 -598286 -709879 
3822.575 -796341 -847767 -865129 -856961 -834804 -808645 -787114 -774479 
3826.433 -771337 -774248 -779143 -781061 -776960 -765979 -748581 -727510 
3830.290 -705645 -685532 -668792 -654367 -640009 -621547 -595904 -560994 
3834.148 -517874 -469719 -422055 -380675 -350317 -333796 -330816 -339127 
3838.005 -355151 -374915 -396863 -420201 -445126 -472102 -501392 -532832 
3841.863 -566752 -603977 -645104 -690924 -740675 -792009 -840591 -881100 
3845.720 -908379 -918894 -910760 -883051 -835829 -768691 -680205 -569002 
3849.577 -435659 -282740 -120259 35918 164077 236807 230740 136036 -32967 
3853.917 -240221 -441485 -602985 -712327 -773752 -801038 -807785 -804973 
3857.774 -798194 -788801 -774744 -753609 -723673 -685333 -640869 -594051 
3861.632 -549279 -510692 -481766 -465581 -463463 -474849 -495700 -518602 
3865.489 -534255 -533329 -510361 -466276 -408284 -348595 -303434 -287508 
3869.347 -308401 -362732 -435030 -505629 -557586 -583793 -588029 -581642 
3873.204 -578333 -588988 -617907 -661447 -708192 -744579 -759662 -748581 
3877.062 -712360 -657411 -593257 -531012 -481071 -450753 -442941 -455188 
3880.919 -479449 -504470 -520455 -520190 -502452 -471738 -438440 -415567 
3884.776 -414805 -442643 -495369 -560365 -618900 -655029 -660521 -636469 
3888.634 -591338 -538657 -493880 -468891 -470778 -499109 -546665 -602621 
3892.491 -656121 -699459 -728602 -742032 -739551 -720432 -684936 -632763 
3896.349 -565561 -487095 -402557 -318864 -243102 -180178 -133277 -102537 
3900.206 -85378 -78156 -78487 -84781 -98396 -122015 -158550 -209787 -274759 
3904.546 -349589 -427583 -502220 -567612 -620190 -659529 -686623 -704156 
3908.403 -714444 -719803 -721325 -719902 -715635 -708754 -699128 -686226 
3912.260 -668428 -644244 -611654 -570259 -521183 -468792 -418413 -376934 
3916.118 -349787 -339325 -344523 -360944 -382993 -405536 -425497 -441816 
3919.975 -454063 -462437 -466045 -463893 -455354 -441750 -426921 -416295 
3923.833 -415699 -429337 -457571 -496627 -539186 -577738 -605202 -617245 
3927.690 -613275 -594547 -564634 -527273 -487327 -449661 -419572 -402590 
3931.548 -402690 -421856 -457935 -505463 -557122 -604672 -641961 -666013 
3935.405 -677691 -679643 -676169 -671174 -665881 -660786 -654103 -643913 
3939.262 -629024 -609801 -587565 -565759 -548651 -539451 -541006 -553912 
3943.120 -575852 -602621 -628627 -648048 -657047 -653739 -639314 -617345 
3946.977 -592959 -570656 -554574 -546764 -546996 -553747 -564932 -578333 
3950.835 -592231 -605301 -616683 -625418 -631506 -634781 -636369 -637362 
3954.692 -639016 -641663 -645071 -647651 -647585 -643582 -635079 -622572 
3958.550 -608113 -593786 -581510 -572940 -568638 -568506 -572443 -579988 
3962.407 -590643 -603448 -617312 -629984 -639843 -645633 -646725 -643317 
3966.264 -636435 -626907 -615591 -603448 -590411 -577506 -565395 -555633 
3970.122 -549147 -546897 -548684 -552920 -558049 -561921 -562913 -560862 
3973.979 -555666 -548419 -539815 -530747 -521713 -513373 -506390 -500962 
3977.837 -497553 -495700 -494409 -492655 -489577 -484613 -478622 -472995 
3981.694 -469421 -469321 -473194 -480343 -489577 -499307 -508376 -516054 
3985.552 -522308 -526776 -529457 -530383 -529457 -527438 -525618 -525486 
3989.409 -528365 -534487 -542760 -551232 -557222 -559306 -556692 -550868 
3993.266 -543588 -537697 -534884 -535976 -540113 -546467 -553515 -560531 
3997.124 -567414 -574330 -581179 -588459 -595341 -601694 -607385 -612349 
##END=
