
##TITLE=Z408_2_b
##JCAMP-DX=5.01  $$ Nicolet v. 1
##DATATYPE=INFRARED SPECTRUM
##ORIGIN=UniL
##OWNER=Nicolet
##LONGDATE=2011/09/16
##TIME=10:20:12
##SPECTROMETER/DATA SYSTEM=Nicolet iS5
##DATA PROCESSING=
Ratio against background
%Transmittance->Absorbance
Truncated
ElementMultiply or ElementDivide
##COMMENTS=
Number of sample scans: 32
Collection length: 51.15 sec
Sample gain: 2.0
Background collected on: Ven Sep 16 10:15:44 2011 (GMT+02:00);
Number of background scans: 32
Background gain: 2.0
Sample spacing:  1.000
Number of scan points: 12415
Resolution points: 8192
Number of FFT points: 65536
Apodization: N-B fort;
Phase correction: Mertz;
Laser frequency: 15798.0 cm-1
Number of rejected sample scans: 0
Number of rejected background scans: 0
Bench serial number: ASB1000141;
##RESOLUTION=4.000
##XUNITS=1/CM
##YUNITS=ABSORBANCE
##FIRSTX=649.893372
##LASTX=4000.122314
##FIRSTY=0.094854
##MAXX=4000.122314
##MINX=649.893372
##MAXY=0.354533
##MINY=0.001608
##XFACTOR=1.000000
##YFACTOR=1.000000E-009
##NPOINTS=6950
##DELTAX=0.482117
##ZPD=6100
##XYDATA=(X++(Y..Y))
649.893 94853792 95244872 95746664 96394304 97188512 98100696 99090560 
653.268 100133464 101235472 102428824 103752464 105227304 106842760 
656.161 108562120 110344736 112172712 114065680 116075000 118260120 
659.054 120658176 123273608 126083016 129062640 132214160 135575856 
661.946 139202560 143134256 147359088 151806048 156357792 160903568 
664.839 165373056 169727792 173944976 177950288 181544976 184408368 
667.732 186176576 186617056 185759552 183842992 181154992 177895136 
670.624 174159472 169981568 165395104 160490944 155422368 150362512 
673.517 145478752 140875520 136586016 132599432 128890512 125446152 
676.410 122273280 119385696 116786424 114457000 112358248 110443816 
679.302 108673216 107023232 105484240 104050296 102708904 101436104 
682.195 100200896 98979064 97761984 96563112 95410472 94336800 93364928 
685.570 92499072 91728728 91036064 90404856 89825816 89294872 88805600 
688.945 88341400 87873680 87364856 86776776 86084088 85276760 84361392 
692.320 83353272 82268360 81118320 79909504 78649120 77351360 76038088 
695.694 74739080 73484016 72294240 71181568 70147544 69189304 68303880 
699.069 67491560 66754744 66093704 65504088 64975188 64491136 64037448 
702.444 63603924 63187300 62790684 62419180 62075936 61759548 61463540 
705.819 61178952 60898208 60616964 60335212 60055812 59782868 59520316 
709.194 59272048 59043928 58844652 58686424 58585396 58557260 58613648 
712.569 58758000 58980012 59253668 59533652 59764120 59882308 59829140 
715.943 59566108 59080032 58392464 57554456 56645988 55763568 55000856 
719.318 54449616 54183172 54247740 54658616 55387372 56358012 57436524 
722.693 58450120 59211968 59542432 59324044 58524692 57212728 55536304 
726.068 53693820 51889024 50270780 48924732 47864544 47052496 46424548 
729.443 45917372 45488012 45111308 44777316 44481020 44215484 43971636 
732.817 43742064 43524340 43322972 43144320 42993172 42866800 42755524 
736.192 42645892 42528500 42402116 42274124 42156688 42059288 41984020 
739.567 41924352 41867980 41803768 41727744 41644292 41563016 41493304 
742.942 41439244 41398132 41363360 41328376 41291712 41257864 41233816 
746.317 41223980 41226456 41232032 41228136 41205252 41159972 41097900 
749.692 41029796 40966764 40914664 40873560 40839124 40807564 40779356 
753.066 40759632 40755408 40770876 40804656 40849096 40894272 40933120 
756.441 40965636 40999064 41044072 41109376 41198440 41308036 41432284 
759.816 41566480 41711988 41875348 42066256 42290924 42551232 42843392 
763.191 43163896 43513972 43905276 44358468 44903472 45573120 46397484 
766.566 47404280 48612516 50027448 51631128 53374032 55175316 56925736 
769.940 58522908 59908020 61103884 62230392 63489968 65117708 67278152 
773.315 69991648 73062960 76108200 78585624 79932568 79754440 77905312 
776.690 74565080 70155064 65261088 60460676 56186588 52715076 50125316 
780.065 48352072 47243108 46626988 46357484 46321316 46449476 46699924 
783.440 47044220 47464924 47952636 48507728 49139176 49860320 50682820 
786.815 51612244 52648904 53793080 55051292 56442188 57995884 59747544 
790.189 61734872 63990144 66539920 69410720 72631640 76235224 80253792 
793.564 84705528 89579728 94817920 100312048 105897832 111352872 116432736 
796.939 120870080 124403000 126828432 128018336 127963736 126779944 
799.832 124708136 122075432 119218496 116464624 114054696 112106016 
802.724 110610704 109437784 108378832 107181304 105630680 103599512 
805.617 101075496 98167568 95072568 92029768 89236320 86813640 84776600 
808.992 83043712 81465288 79871872 78133088 76174728 73995576 71648752 
812.367 69220304 66798716 64451584 62227792 60153412 58241264 56499092 
815.742 54931816 53541656 52326708 51279704 50388796 49641104 49026172 
819.116 48537924 48174076 47933764 47814492 47811496 47918708 48132244 
822.491 48453604 48891284 49460796 50181064 51068564 52133964 53376768 
825.866 54782072 56315952 57924208 59534296 61050568 62372052 63405184 
829.241 64077848 64364112 64290652 63941352 63436432 62921456 62545976 
832.616 62430428 62660792 63269288 64227028 65438404 66745004 67954912 
835.990 68846680 69219176 68937200 67947128 66301084 64136452 61658028 
839.365 59081548 56595180 54346300 52415188 50826944 49565592 48593172 
842.740 47863768 47331924 46960116 46714832 46566640 46492916 46475952 
846.115 46505748 46579144 46696896 46859824 47066636 47313044 47593532 
849.490 47904348 48245052 48618892 49029996 49481036 49971500 50497688 
852.865 51055708 51644448 52267436 52932596 53649164 54425128 55265432 
856.239 56172632 57149756 58204016 59348468 60602828 61991924 63540252 
859.614 65274408 67221520 69408072 71862128 74604552 77638312 80932528 
862.989 84409240 87938712 91329720 94364672 96818240 98482168 99214744 
866.364 98950512 97716544 95623088 92855048 89645952 86225832 82816632 
869.739 79597416 76683808 74144624 72000088 70237904 68827272 67731168 
873.113 66914276 66342576 65986076 65816856 65807296 65934048 66180168 
876.488 66536560 67003072 67584816 68287912 69113264 70052808 71087272 
879.863 72189920 73326720 74461280 75561624 76599096 77553296 78414960 
883.238 79185248 79875896 80504464 81091288 81652304 82196600 82727304 
886.613 83245976 83757760 84278424 84832632 85451640 86166304 86996464 
889.987 87946216 89002072 90137608 91318144 92507312 93673720 94787872 
893.362 95822048 96750008 97543544 98175920 98626216 98879232 98928584 
896.737 98775568 98429792 97908784 97239200 96460912 95622224 94776992 
900.112 93980352 93275016 92688648 92231232 91897176 91671848 91539280 
903.487 91488600 91514984 91619752 91806128 92077232 92435120 92881472 
906.862 93421048 94061560 94813344 95687096 96689848 97823440 99085648 
910.236 100472328 101981560 103615280 105379744 107281864 109327264 
913.129 111518616 113857928 116351296 119012664 121868024 124953496 
916.022 128307176 131964904 135950704 140271504 144913344 149837200 
918.914 154978176 160227920 165434736 170408032 174910848 178708512 
921.807 181607744 183495440 184388096 184442656 183962256 183328816 
924.700 182975680 183332720 184731600 187392752 191373552 196560256 
927.593 202653584 209186336 215606912 221270400 225550032 227936976 
930.485 228049552 225714368 220969600 214056416 205382080 195461760 
933.378 184899040 174272448 164094672 154794896 146649872 139813968 
936.271 134336208 130183456 127280816 125537680 124870000 125192744 
939.163 126407024 128388632 130952256 133849192 136797888 139478448 
942.056 141598448 142943152 143389456 142938176 141699376 139877856 
944.949 137717840 135462512 133331536 131474928 129976688 128861176 
947.841 128106608 127666400 127486200 127520248 127731664 128092768 
950.734 128582016 129178080 129859344 130607920 131409984 132259216 
953.627 133155104 134099352 135091424 136125408 137191168 138277456 
956.520 139376992 140488848 141617216 142768384 143945776 145146640 
959.412 146362992 147585312 148807504 150030576 151261248 152508848 
962.305 153779312 155072864 156383312 157701696 159022016 160343808 
965.198 161672384 163014592 164374240 165749488 167133680 168519744 
968.090 169905360 171295904 172702496 174138208 175611232 177121648 
970.983 178662848 180226896 181810144 183417376 185060256 186752176 
973.876 188501376 190307408 192160912 194049824 195966192 197909136 
976.768 199885248 201902080 203961680 206055872 208168416 210278208 
979.661 212368160 214429664 216460544 218460512 220424576 222339168 
982.554 224186096 225948432 227619280 229205536 230726944 232207920 
985.447 233667808 235117408 236559344 237993840 239427040 240874080 
988.339 242355552 243891728 245492864 247155584 248865344 250605040 
991.232 252364160 254142912 255950816 257798816 259690736 261618848 
994.125 263566976 265517504 267462016 269404352 271359104 273340992 
997.017 275357440 277403328 279464416 281526304 283583488 285644224 
999.910 287727360 289851808 292026912 294248416 296501920 298773728 
1002.803 301059872 303371424 305728544 308151552 310647712 313207808 
1005.695 315808864 318427392 321049408 323676128 326317920 328983328 
1008.588 331665536 334339168 336962016 339488928 341886880 344136800 
1011.481 346231520 348162400 349907456 351428224 352679264 353620160 
1014.374 354233408 354527648 354532768 354282304 353800192 353095616 
1017.266 352167520 351017312 349661344 348131552 346469984 344715488 
1020.159 342891328 341006144 339063136 337073280 335068736 333103776 
1023.052 331239392 329534272 328024352 326718304 325602880 324654976 
1025.945 323852544 323176160 322605440 322107648 321626112 321084800 
1028.838 320394688 319466368 318231904 316644704 314676864 312313728 
1031.731 309543520 306359104 302766368 298794016 294500288 289961472 
1034.624 285265632 280488256 275677024 270853536 266016240 261155696 
1037.517 256265664 251351360 246428096 241520176 236654368 231861424 
1040.410 227179696 222652112 218324912 214237824 210406608 206813296 
1043.303 203398976 200077792 196746384 193310880 189713232 185935728 
1046.196 182005328 177979792 173937552 169958960 166113008 162459232 
1049.089 159039024 155875856 152977456 150334736 147924752 145714864 
1051.982 143671200 141763376 139968992 138275280 136675376 135163248 
1054.875 133730296 132363200 131046024 129763960 128506064 127266064 
1057.768 126040760 124826360 123615656 122399224 121166448 119910768 
1060.661 118632984 117342016 116052104 114778528 113534920 112330104 
1063.554 111169096 110055840 108994280 107988832 107041968 106151392 
1066.448 105306560 104489200 103678000 102851312 101993880 101100752 
1069.341 100176360 99233240 98287088 97356312 96458544 95609792 94826208 
1072.716 94121432 93505288 92982512 92550896 92202624 91924856 91704216 
1076.091 91527168 91379936 91248144 91113672 90952840 90741152 90454840 
1079.466 90078280 89609336 89060608 88457920 87833200 87222088 86657272 
1082.842 86165704 85772376 85498920 85365360 85391496 85594096 85986016 
1086.217 86576376 87370280 88369256 89571256 90967384 92536464 94237088 
1089.592 96008712 97766168 99407912 100838160 101971672 102754752 103173848 
1092.967 103255168 103059664 102667480 102175120 101676736 101253376 
1095.860 100975056 100889568 101023344 101383744 101958552 102718096 
1098.753 103613768 104583488 105548248 106411960 107075800 107437944 
1101.646 107408712 106930864 105983848 104592856 102820072 100759592 
1104.540 98518704 96197392 93888784 91665704 89577536 87657648 85920712 
1107.915 84366544 82982576 81747168 80633144 79609992 78650632 77732264 
1111.290 76836872 75952720 75070864 74184944 73290792 72386616 71474824 
1114.665 70561584 69656800 68771992 67917640 67102096 66331000 65607788 
1118.041 64935252 64316540 63755468 63255332 62818020 62442824 62126052 
1121.416 61862156 61643632 61460564 61299932 61143172 60963552 60729780 
1124.791 60406640 59961348 59372820 58634768 57759276 56772584 55713088 
1128.166 54622352 53537044 52488544 51497180 50573324 49719416 48931152 
1131.542 48200360 47515860 46866132 46241224 45633624 45040292 44462340 
1134.917 43904216 43371448 42869432 42401860 41970736 41577160 41222268 
1138.292 40907888 40636888 40411696 40233616 40102444 40016184 39972624 
1141.667 39969900 40007684 40086568 40207260 40369112 40569692 40804032 
1145.042 41066688 41352096 41655528 41972928 42299912 42629772 42954692 
1148.418 43264988 43551920 43809940 44037600 44238044 44416824 44580840 
1151.793 44736324 44887492 45038048 45191196 45350500 45519540 45701092 
1155.168 45895756 46101372 46313876 46527916 46737852 46939368 47128272 
1158.543 47299856 47448628 47566840 47645736 47677504 47655756 47576524 
1161.919 47438168 47239560 46979572 46656720 46269784 45819824 45310780 
1165.294 44750424 44149680 43519284 42870200 42210620 41546864 40884408 
1168.669 40229032 39587712 38968868 38380872 37830936 37324376 36863744 
1172.044 36450084 36084232 35767540 35502640 35292740 35141284 35050580 
1175.420 35022132 35057080 35156912 35324188 35562836 35877540 36273368 
1178.795 36754756 37326836 37995412 38768192 39655376 40667488 41815148 
1182.170 43107140 44549008 46144372 47895396 49803092 51866844 54080260 
1185.545 56429096 58884452 61401552 63923852 66379292 68690520 70781992 
1188.921 72577592 74011528 75032112 75603816 75715072 75379800 74639016 
1192.296 73551800 72191800 70639936 68968960 67243264 65513916 63812264 
1195.671 62155720 60547592 58982024 57448964 55938864 54447136 52976876 
1199.046 51539076 50150156 48830956 47600888 46475176 45463836 44570156 
1202.422 43791944 43122692 42553936 42075420 41674968 41339380 41053252 
1205.797 40799412 40562056 40326572 40082460 39824032 39549460 39260008 
1209.172 38958284 38648148 38334292 38022720 37722104 37442972 37196936 
1212.547 36996212 36851048 36769468 36757676 36820788 36963164 37189936 
1215.923 37505280 37912752 38413304 39005548 39686560 40452972 41302976 
1219.298 42236876 43256388 44363612 45560020 46846092 48222168 49690436 
1222.673 51255840 52926272 54711340 56619416 58654528 60815072 63092308 
1226.048 65471076 67927832 70431952 72943200 75408184 77767136 79952560 
1229.424 81895104 83536256 84828400 85741408 86266040 86414592 86224296 
1232.799 85753800 85090552 84342640 83625544 83066256 82782064 82871480 
1236.174 83419520 84487112 86116168 88333968 91152168 94566976 98552968 
1239.549 103062936 108019424 113311760 118811808 124366912 129808816 
1242.442 134974384 139692848 143800976 147161600 149661712 151231952 
1245.335 151852528 151549984 150390656 148466176 145893456 142799184 
1248.229 139312368 135565936 131671992 127711696 123726000 119706448 
1251.122 115603304 111338792 106839320 102052512 96970152 91633992 86134672 
1254.497 80598752 75158552 69948480 65079948 60625688 56625264 53081140 
1257.872 49968116 47240632 44844760 42727120 40835740 39128552 37573448 
1261.247 36145836 34830020 33615648 32494716 31460442 30505398 29621474 
1264.623 28801550 28039926 27333166 26680082 26079978 25531794 25033018 
1267.998 24579762 24167998 23795086 23460544 23165610 22912162 22701730 
1271.373 22533766 22406194 22316088 22261642 22242914 22261782 22321250 
1274.748 22423920 22570446 22759200 22986392 23244988 23526228 23817102 
1278.124 24100570 24357622 24567280 24712042 24781774 24775250 24700748 
1281.499 24571698 24403500 24208040 23991026 23753088 23492300 23207586 
1284.874 22902416 22584442 22265444 21958110 21673494 21419556 21201636 
1288.249 21022670 20884590 20788368 20732688 20714130 20725876 20760458 
1291.625 20810022 20870060 20939664 21021454 21119432 21236500 21374134 
1295.000 21530996 21705714 21898342 22111558 22350376 22621196 22928998 
1298.375 23277008 23667040 24100150 24578044 25102592 25674030 26287584 
1301.750 26930486 27582536 28215552 28798716 29305206 29712968 30010146 
1305.125 30194276 30271752 30255658 30164300 30021402 29852570 29683166 
1308.501 29536666 29429500 29369866 29357318 29384792 29441912 29518012 
1311.876 29605440 29698456 29792842 29884122 29966230 30031768 30075052 
1315.251 30091530 30080202 30042172 29979684 29894274 29786490 29656664 
1318.626 29506592 29340726 29166844 28993738 28829202 28678602 28543694 
1322.002 28423896 28319340 28232312 28169448 28140386 28155410 28223968 
1325.377 28353718 28549390 28815710 29155930 29572098 30061062 30611726 
1328.752 31203424 31805058 32381176 32898728 33330880 33664772 33900000 
1332.127 34048012 34126396 34155608 34156004 34144888 34137940 34148728 
1335.503 34188084 34264196 34382352 34545060 34754632 35014804 35332240 
1338.878 35716776 36179004 36726124 37359908 38075344 38861632 39703224 
1342.253 40582208 41477376 42361056 43201812 43964300 44612820 45120828 
1345.628 45473368 45669844 45720272 45641132 45447024 45145972 44738340 
1349.004 44218936 43582176 42826864 41961068 41002084 39976908 38917260 
1352.379 37855268 36823852 35851092 34960716 34172852 33500530 32950092 
1355.754 32519818 32201468 31982280 31848732 31790688 31801600 31877506 
1359.129 32015204 32209144 32451332 32733846 33051084 33404336 33801744 
1362.505 34257636 34785576 35394104 36084340 36850076 37680764 38563264 
1365.880 39482176 40416820 41335116 42195212 42944812 43525364 43886804 
1369.255 43990884 43817780 43367168 42654628 41709468 40568532 39281120 
1372.630 37906932 36511308 35168840 33948616 32901660 32055796 31410966 
1376.006 30948978 30644578 30478810 30446538 30558862 30840042 31324490 
1379.381 32055154 33076328 34432780 36159916 38266472 40713920 43394296 
1382.756 46138776 48712216 50850900 52316468 52901680 52477140 51013148 
1386.131 48604772 45475904 41939168 38357488 35035240 32164894 29823184 
1389.507 27986138 26576368 25496832 24661608 24001286 23464636 23019128 
1392.882 22643954 22327668 22066654 21861790 21715570 21629368 21601612 
1396.257 21627278 21699932 21811164 21951628 22111104 22277650 22440630 
1399.632 22592364 22729766 22854078 22968506 23075904 23177110 23270890 
1403.008 23355462 23430712 23499820 23568484 23642722 23726176 23818328 
1406.383 23915642 24013752 24111602 24212804 24325450 24459196 24620824 
1409.758 24812504 25030912 25269972 25524276 25792790 26079028 26389326 
1413.133 26728778 27098644 27495938 27916206 28356336 28818014 29308326 
1416.509 29837876 30417398 31053316 31745416 32484896 33255466 34037944 
1419.884 34812572 35561036 36267172 36917276 37503620 38027420 38505764 
1423.259 38972456 39477276 40071232 40793552 41664096 42681860 43835632 
1426.634 45114320 46514268 48034380 49666848 51390052 53160636 54920084 
1430.010 56612356 58195532 59655124 61002596 62269284 63495188 64719172 
1433.385 65980560 67320944 68791128 70456664 72390528 74654752 77276496 
1436.760 80221992 83407872 86735840 90123248 93509320 96834888 100026360 
1440.135 102965784 105491168 107435016 108631424 108959616 108365184 
1443.028 106854456 104490880 101375424 97647208 93461272 88970472 84334352 
1446.404 79699584 75205896 70997392 67200520 63907532 61154348 58914204 
1449.779 57113704 55661676 54486280 53548892 52848688 52407192 52248448 
1453.154 52379304 52786128 53437432 54297452 55339532 56538980 57870032 
1456.529 59294116 60757680 62205920 63601316 64937868 66227832 67489584 
1459.905 68738880 69984448 71227128 72457472 73658880 74798912 75825216 
1463.280 76674048 77274400 77573344 77559320 77272104 76789336 76192032 
1466.655 75548016 74897168 74255784 73628416 73012104 72396400 71758504 
1470.030 71058896 70242616 69249376 68043960 66644484 65140536 63666032 
1473.406 62353120 61285696 60484100 59927304 59581652 59425892 59459136 
1476.781 59696980 60156228 60845376 61756756 62871708 64166836 65624892 
1480.156 67240864 69021008 70979648 73131640 75489312 78060072 80852296 
1483.531 83882504 87179648 90781248 94719344 99002072 103583440 108336184 
1486.906 113059360 117461760 121190008 123888248 125220208 124952208 
1489.800 123022392 119574552 114940872 109541384 103798712 98027784 92405976 
1493.175 87015616 81861896 76926016 72214416 67769792 63681684 60067796 
1496.550 57031856 54629192 52851760 51647508 50941572 50661336 50750072 
1499.925 51162308 51858968 52803900 53954820 55264416 56683896 58150944 
1503.301 59591496 60914712 61984588 62620832 62601396 61701184 59801308 
1506.676 56989504 53564708 49893068 46252500 42771904 39467080 36312772 
1510.051 33290308 30401866 27679816 25170386 22909612 20918872 19195280 
1513.426 17717480 16454943 15374840 14445545 13634980 12913811 12259987 
1516.802 11661872 11123385 10656903 10274443 9976561 9747804 9556389 9365702 
1520.659 9146606 8894373 8633770 8405988 8243934 8154219 8118770 8106617 
1524.516 8089671 8050751 7990099 7921087 7862107 7824185 7806035 7796860 
1528.374 7785390 7767512 7749027 7741539 7755402 7792846 7844394 7890989 
1532.231 7911436 7893586 7841965 7778778 7730644 7716411 7737694 7783198 
1536.089 7836027 7882553 7916498 7938128 7951761 7959861 7957700 7934213 
1539.946 7880361 7798108 7705382 7625591 7575249 7555019 7550838 7541364 
1543.803 7509842 7450951 7374510 7299193 7244913 7221532 7225945 7245520 
1547.661 7264421 7272272 7266443 7253438 7243229 7243936 7255729 7271766 
1551.518 7281268 7276247 7254886 7222408 7188416 7162310 7149442 7149409 
1555.376 7158065 7169990 7181477 7188517 7183532 7153047 7079486 6953479 
1559.233 6788803 6621598 6490679 6416020 6398030 6421972 6467843 6514963 
1563.091 6548397 6561885 6559127 6551559 6552332 6570665 6606728 6652719 
1566.948 6697167 6730581 6748518 6752624 6748787 6744311 6745018 6753869 
1570.805 6773254 6806304 6857231 6929676 7024291 7136744 7256908 7371578 
1574.663 7468648 7542847 7600503 7658437 7737424 7849725 7996511 8171404 
1578.520 8367377 8582161 8819503 9086613 9391434 9738384 10127020 10552023 
1582.378 11006599 11483834 11976069 12472545 12957027 13405791 13791773 
1585.753 14091668 14290262 14387419 14398071 14351629 14285058 14238662 
1589.128 14253043 14362246 14594339 14969204 15494490 16161149 16937790 
1592.503 17773086 18592802 19310966 19848920 20139630 20144872 19861442 
1595.879 19320388 18580732 17713960 16798146 15900893 15073922 14356012 
1599.254 13769644 13324331 13019571 12847085 12795655 12853841 13014109 
1602.629 13272162 13624860 14067059 14587931 15169573 15789550 16419876 
1606.004 17029270 17586072 18054706 18399974 18591972 18607776 18438242 
1609.380 18088282 17578758 16942648 16221955 15465408 14717647 14014253 
1612.755 13378590 12817836 12327408 11894536 11503499 11138377 10788643 
1616.130 10453310 10141536 9870184 9655745 9508024 9426749 9402438 9419842 
1619.988 9462068 9513409 9561267 9599679 9629929 9660183 9700739 9760308 
1623.845 9842086 9944218 10061839 10191227 10330460 10479208 10636054 
1627.220 10797373 10956611 11106287 11241597 11362835 11474920 11584653 
1630.595 11697952 11816253 11936560 12051383 12151584 12228223 12273245 
1633.971 12280301 12246184 12171586 12063988 11937514 11809579 11694650 
1637.346 11600000 11524424 11460835 11398549 11326987 11238911 11133346 
1640.721 11015673 10895994 10784873 10689571 10610588 10541974 10473506 
1644.096 10393679 10291746 10161412 10001719 9818462 9623663 9433758 9266853 
1647.954 9136826 9051866 9013299 9015938 9048652 9094124 9129957 9126471 
1651.811 9053186 8892546 8659965 8408521 8199091 8065164 8001776 7984058 
1655.669 7986082 7990301 7988175 7977814 7961312 7941638 7920749 7898581 
1659.526 7873713 7843922 7807149 7761710 7706495 7641035 7566651 7487525 
1663.384 7410606 7344517 7296868 7271328 7266914 7278202 7296464 7311324 
1667.241 7313514 7296868 7259940 7205866 7141729 7075883 7015401 6965466 
1671.098 6928801 6906211 6896078 6893384 6889951 6874466 6835149 6765345 
1674.956 6668095 6558488 6456812 6380746 6336902 6321067 6321874 6327321 
1678.813 6330279 6329338 6329809 6339323 6362825 6398265 6434683 6453011 
1682.671 6431489 6353478 6218169 6047690 5880367 5750275 5670675 5634925 
1686.528 5626533 5629755 5632541 5627574 5611999 5585551 5549841 5508531 
1690.385 5467593 5434644 5416326 5417567 5437765 5471049 5505544 5526920 
1694.243 5521920 5484068 5419513 5347789 5293685 5273528 5288285 5325013 
1698.100 5363253 5380328 5357316 5286708 5179260 5063525 4970476 4919100 
1701.958 4909180 4928416 4960790 4991892 5010328 5009087 4986362 4946513 
1705.815 4898792 4853924 4820219 4801658 4797604 4804439 4817907 4834860 
1709.673 4854595 4878787 4909985 4950635 5001210 5060105 5123903 5188716 
1713.530 5251828 5311764 5367681 5418507 5460647 5487994 5493967 5474807 
1717.387 5433437 5381100 5333700 5304720 5300225 5319244 5354867 5399249 
1721.245 5444911 5487726 5525846 5559809 5590921 5620223 5648553 5676415 
1725.102 5705051 5736274 5771731 5812193 5856589 5901762 5943244 5977642 
1728.960 6004013 6024776 6044095 6065766 6089723 6110020 6114489 6086263 
1732.817 6010229 5879896 5706629 5519001 5352820 5232914 5164339 5137247 
1736.675 5135135 5142142 5145462 5137348 5115723 5083840 5048909 5019277 
1740.532 5002350 5001479 5016897 5045389 5083068 5125177 5168161 5210278 
1744.389 5252130 5295664 5343730 5397974 5458299 5522927 5588068 5649660 
1748.247 5704346 5749201 5782207 5801179 5804503 5791911 5765989 5733387 
1752.104 5702768 5682021 5675878 5684002 5700989 5717506 5724557 5714653 
1755.962 5685949 5643081 5595485 5553432 5522960 5504369 5492055 5478431 
1759.819 5455380 5417869 5365501 5301802 5233786 5168832 5113845 5072643 
1763.677 5046965 5036171 5038417 5049647 5064832 5077873 5083840 5080119 
1767.534 5068050 5052797 5040763 5035467 5036573 5038517 5033757 5014383 
1771.391 4977648 4927612 4875370 4833553 4810938 4809263 4824507 4850172 
1775.249 4880798 4913704 4949395 4988977 5032785 5078912 5123132 5160684 
1779.106 5188246 5205315 5214671 5221411 5230164 5243444 5260917 5279397 
1782.964 5295664 5307202 5313105 5314849 5314413 5314044 5315855 5321088 
1786.821 5331486 5348829 5374726 5409381 5451051 5494504 5532927 5557929 
1790.678 5562426 5543666 5503698 5450380 5393579 5343092 5304284 5277921 
1794.536 5261554 5251493 5244216 5237475 5229460 5219500 5207159 5192539 
1798.393 5175706 5157398 5138655 5119846 5101708 5083873 5066273 5049479 
1802.251 5034361 5022763 5016662 5017534 5025411 5039154 5056887 5076599 
1806.108 5096747 5116963 5137448 5158136 5179126 5199011 5216750 5231472 
1809.966 5243075 5252398 5260817 5269469 5278458 5287480 5295731 5303311 
1813.823 5311093 5321424 5336652 5358993 5388883 5425820 5467962 5513061 
1817.680 5559339 5605454 5650835 5694845 5736644 5775760 5812159 5846413 
1821.538 5879829 5913114 5945293 5973879 5994674 6003711 5999646 5984999 
1825.395 5966657 5952515 5948988 5958058 5976701 5997698 6012648 6015537 
1829.253 6004920 5984898 5963533 5949525 5948081 5959905 5981942 6009859 
1833.110 6040667 6073226 6108306 6147926 6193331 6244354 6299349 6356201 
1836.968 6413431 6471306 6531612 6597207 6671393 6756696 6854403 6964523 
1840.825 7085481 7214626 7347785 7479604 7605190 7720796 7826615 7926688 
1844.682 8028305 8137912 8258252 8387104 8518056 8642321 8751712 8840603 
1848.540 8907089 8952276 8978727 8988571 8982414 8958973 8916357 8853893 
1852.397 8772741 8676291 8568947 8454366 8335221 8212293 8086329 7958342 
1856.255 7831304 7708316 7593254 7487323 7389878 7297509 7207080 7116501 
1860.112 7025974 6937891 6854807 6778470 6708238 6641885 6577460 6514424 
1863.969 6455332 6404452 6366120 6342315 6331389 6328027 6325068 6316394 
1867.827 6299618 6276523 6252018 6231614 6218639 6212926 6211514 6210472 
1871.684 6207279 6200557 6190474 6177870 6163083 6146078 6126385 6103971 
1875.542 6079710 6055216 6031562 6008683 5985469 5959435 5928162 5890342 
1879.399 5846380 5797989 5746884 5694174 5639255 5581020 5518329 5452125 
1883.257 5385495 5323537 5271213 5232310 5207327 5194316 5189119 5187073 
1887.114 5184860 5180333 5172420 5161120 5146534 5129904 5113443 5100703 
1890.971 5095372 5100602 5117064 5143383 5175270 5208232 5238850 5266317 
1894.829 5292209 5319545 5350271 5384052 5418070 5448501 5472056 5488733 
1898.686 5501517 5515208 5533967 5559943 5591827 5626533 5659966 5690179 
1902.544 5716634 5740740 5763471 5784557 5802018 5813604 5818238 5817801 
1906.401 5816156 5818439 5828581 5846682 5869385 5890678 5905187 5910058 
1910.259 5906094 5896690 5886043 5877075 5870593 5865925 5862936 5862399 
1914.116 5866362 5876840 5893096 5910998 5923493 5922552 5902970 5865153 
1917.973 5815854 5765552 5723718 5695618 5680242 5671917 5663390 5649593 
1921.831 5629050 5603910 5577731 5553902 5533162 5514403 5496719 5479941 
1925.688 5466486 5459272 5460111 5467660 5477928 5484807 5484035 5475210 
1929.546 5462090 5451018 5447830 5454541 5468767 5483833 5493094 5492155 
1933.403 5481518 5464674 5446153 5429142 5413742 5397370 5377879 5356376 
1937.260 5336652 5325784 5330178 5352049 5388916 5433034 5475713 5509235 
1941.118 5530343 5539438 5539874 5535545 5528900 5520745 5512020 5505007 
1944.975 5502692 5509403 5527457 5555882 5590350 5624721 5653152 5673696 
1948.833 5688030 5699478 5712672 5728619 5745843 5760482 5769817 5772906 
1952.690 5772369 5771831 5774249 5778782 5782173 5779521 5767937 5748294 
1956.548 5725397 5706260 5696154 5696323 5703137 5709348 5710154 5703440 
1960.405 5692865 5684975 5685210 5695651 5713109 5731809 5746918 5756990 
1964.262 5764747 5775055 5792012 5815719 5841510 5862869 5874322 5875228 
1968.120 5869452 5861727 5856286 5851920 5843693 5825928 5795840 5756789 
1971.977 5718212 5692562 5689105 5711463 5756017 5815753 5884431 5960375 
1975.835 6047085 6149337 6268220 6397256 6521891 6624054 6690135 6714227 
1979.692 6700229 6657732 6598183 6530502 6457854 6381117 6299450 6215077 
1983.550 6132904 6060961 6004215 5965414 5941934 5928767 5920605 5914424 
1987.407 5911099 5912879 5921276 5935317 5951642 5966489 5978280 5989064 
1991.264 6004551 6030958 6070907 6122218 6176963 6225597 6261329 6281734 
1995.122 6290575 6294475 6299685 6308729 6319083 6325202 6321202 6304157 
1998.979 6275447 6239883 6202876 6169233 6140398 6115968 6095503 6079542 
2002.837 6071008 6073494 6089320 6117916 6155723 6197397 6237765 6273532 
2006.694 6303821 6327556 6343290 6346922 6333877 6301333 6249765 6185533 
2010.552 6117849 6057232 6011606 5984294 5973947 5977037 5990576 6013790 
2014.409 6046514 6089388 6140096 6192289 6239614 6275750 6299887 6317167 
2018.266 6336869 6367230 6413834 6474939 6544091 6612581 6673546 6724221 
2022.124 6766792 6804251 6839256 6871402 6898030 6916883 6928060 6934289 
2025.981 6940416 6949338 6960280 6968024 6964388 6943042 6902777 6849556 
2029.839 6794491 6749326 6723481 6719712 6735697 6766186 6806574 6855447 
2033.696 6913988 6983513 7062849 7147489 7229685 7303406 7364568 7413875 
2037.553 7454558 7490694 7523968 7553063 7575012 7587488 7591366 7590287 
2041.411 7590590 7597232 7611900 7631695 7650579 7662045 7661809 7649938 
2045.268 7629637 7605831 7584116 7567224 7556806 7553367 7556401 7563886 
2049.126 7572214 7575653 7567258 7540083 7492245 7427357 7354660 7286592 
2052.983 7235278 7208326 7204384 7215670 7230696 7238546 7233627 7217860 
2056.841 7197681 7181814 7175952 7181275 7194413 7209775 7222307 7229011 
2060.698 7229719 7225474 7217119 7204485 7187170 7165847 7142975 7122563 
2064.555 7108687 7103432 7105184 7108855 7108619 7100199 7083359 7062243 
2068.413 7043283 7031969 7029948 7033955 7037659 7034528 7020654 6996611 
2072.270 6967284 6939069 6916614 6901632 6893115 6887493 6882074 6875577 
2076.128 6867902 6860160 6852653 6843766 6832019 6816065 6796779 6777091 
2079.985 6761004 6751985 6750975 6756056 6763763 6770090 6773489 6774364 
2083.843 6775475 6779514 6787759 6798899 6810040 6817142 6817782 6811454 
2087.700 6799102 6782341 6761643 6736942 6706858 6670854 6630278 6588259 
2091.557 6549103 6517451 6496060 6485735 6485869 6494950 6512574 6538373 
2095.415 6572145 6612548 6655747 6696528 6728899 6748586 6754206 6747542 
2099.272 6733173 6715270 6697503 6681857 6668936 6659414 6654939 6658203 
2103.130 6672065 6697503 6733206 6775913 6821214 6866521 6910385 6954523 
2106.987 7001292 7051938 7105958 7159682 7209236 7251281 7285109 7312436 
2110.844 7337237 7362984 7391799 7423582 7456210 7487593 7516686 7543219 
2114.702 7568067 7591298 7612440 7630008 7643497 7653985 7664372 7679885 
2118.559 7705180 7742281 7789742 7842269 7893553 7937757 7972684 7999278 
2122.417 8021960 8044911 8070903 8099966 8129438 8156076 8177110 8191966 
2126.274 8201353 8206891 8209322 8209086 8205472 8198584 8189772 8181634 
2130.132 8177751 8181027 8192946 8213239 8241030 8274833 8314956 8361196 
2133.989 8413758 8470414 8527315 8579627 8623461 8657767 8685824 8712361 
2137.846 8742888 8779232 8818996 8856159 8883754 8897146 8896808 8886764 
2141.704 8874488 8864410 8857985 8850748 8836140 8808277 8764863 8709690 
2145.561 8650264 8596187 8554247 8527552 8514272 8510419 8511703 8513934 
2149.419 8515150 8512718 8503358 8483591 8449568 8398388 8330695 8248628 
2153.276 8156279 8057467 7955406 7853368 7757460 7677693 7628896 7628086 
2157.134 7690137 7820845 8012070 8241772 8480618 8700799 8881556 9014822 
2160.991 9101804 9149110 9163661 9151816 9118350 9067834 9006702 8943516 
2164.848 8884938 8835903 8795530 8759082 8719020 8668449 8603284 8525118 
2168.706 8437373 8346232 8257644 8175794 8103579 8042954 7994722 7959287 
2172.563 7935327 7919400 7906611 7891563 7870508 7842032 7808060 7771492 
2176.421 7734017 7694826 7650343 7596356 7531284 7458536 7386979 7329285 
2180.278 7295453 7292084 7316682 7360692 7411145 7457120 7491402 7512741 
2184.135 7523934 7528553 7529868 7528621 7524912 7519248 7513214 7509809 
2187.993 7511123 7517293 7525283 7530542 7529193 7519720 7505561 7491908 
2191.850 7485166 7488908 7502527 7521271 7539510 7552591 7558963 7560380 
2195.708 7559806 7559840 7560110 7558559 7551917 7539105 7521035 7501414 
2199.565 7484424 7472289 7463861 7455839 7442828 7421593 7393080 7361468 
2203.423 7333497 7314896 7308055 7311830 7321500 7330936 7335384 7332654 
2207.280 7322714 7307853 7290433 7273080 7257480 7245789 7239961 7241173 
2211.137 7250371 7266173 7286255 7307416 7327465 7345292 7362613 7381284 
2214.995 7402753 7426649 7450075 7469356 7481188 7484256 7480446 7473671 
2218.852 7467806 7465884 7467839 7472221 7476839 7479503 7480817 7481255 
2222.710 7482166 7483177 7482604 7477581 7466120 7448019 7425470 7401842 
2226.567 7380879 7363928 7350313 7337305 7322612 7305259 7287131 7271631 
2230.425 7262433 7261625 7268498 7279145 7288950 7293903 7292118 7283795 
2234.282 7271598 7258154 7246227 7237804 7234536 7238377 7250641 7272406 
2238.139 7303170 7339462 7376094 7407033 7427525 7435682 7432952 7423413 
2241.997 7412190 7403562 7399483 7399955 7404101 7411246 7421458 7435750 
2245.854 7454524 7476974 7501280 7523529 7540892 7551850 7557008 7558862 
2249.712 7559671 7561560 7564190 7566550 7567123 7565707 7563818 7564392 
2253.569 7570191 7582768 7600706 7620668 7637832 7648084 7649129 7641136 
2257.427 7625557 7604752 7580610 7554142 7525856 7496695 7467974 7441615 
2261.284 7419841 7403899 7394260 7390047 7389979 7393383 7400191 7411010 
2265.141 7426818 7447412 7471547 7496493 7518979 7536442 7547197 7551613 
2268.999 7550872 7547163 7542005 7537015 7532632 7529328 7527036 7526092 
2272.856 7526261 7527373 7528958 7530407 7531385 7532228 7533340 7535666 
2276.714 7539442 7544534 7550332 7555525 7558963 7559941 7558761 7556604 
2280.571 7554783 7555288 7559436 7568235 7582430 7601313 7624175 7649027 
2284.428 7674017 7696141 7713882 7725889 7732061 7733241 7730341 7724472 
2288.286 7716479 7706799 7695770 7684607 7674961 7668486 7666833 7670476 
2292.143 7678772 7690104 7702414 7714590 7726631 7739819 7756009 7776046 
2296.001 7799626 7825029 7849590 7870778 7887480 7900031 7910290 7920041 
2299.858 7930536 7941368 7950783 7957093 7959152 7957363 7953888 7951795 
2303.716 7953820 7961582 7975081 7993170 8014129 8036743 8060472 8085519 
2307.573 8112592 8141997 8173497 8206317 8239477 8271930 8303405 8334039 
2311.430 8363561 8392205 8419805 8446291 8471800 8497275 8524070 8553301 
2315.288 8586183 8622582 8662196 8703571 8745457 8786874 8827550 8867792 
2319.145 8908273 8950078 8994254 9040668 9088575 9135811 9178280 9210939 
2323.003 9228098 9225288 9200379 9154863 9093887 9025478 8958771 8902084 
2326.860 8861400 8839014 8833671 8841448 8857207 8876145 8894509 8910167 
2330.718 8922174 8930663 8936346 8940438 8944632 8951059 8961882 8978727 
2334.575 9002203 9031432 9064823 9100012 9135067 9169177 9202342 9235138 
2338.432 9268072 9301346 9333980 9364855 9392822 9417099 9437281 9453534 
2342.290 9465184 9470907 9468502 9454923 9427968 9386761 9333100 9271828 
2346.147 9210769 9158754 9124915 9117099 9140345 9196792 9285166 9401456 
2350.005 9539014 9689117 9843204 9993175 10132819 10259176 10371791 10472249 
2353.862 10562920 10646207 10724110 10798086 10869799 10940470 11011221 
2357.237 11082425 11153437 11223135 11290292 11354093 11415013 11474376 
2360.613 11532930 11590437 11645433 11694685 11734920 11763788 11781491 
2363.988 11790616 11795280 11799876 11807264 11817751 11829225 11838112 
2367.363 11840223 11832153 11812065 11779312 11734613 11679572 11616778 
2370.738 11549603 11481826 11417190 11358753 11308487 11266829 11232723 
2374.114 11204944 11182369 11164961 11153811 11150751 11157312 11174651 
2377.489 11202258 11239422 11284885 11337667 11397563 11465088 11541130 
2380.864 11626171 11720384 11822823 11932065 12046410 12163579 12280983 
2384.239 12395590 12504054 12602449 12687561 12756993 12809749 12846265 
2387.615 12868313 12878347 12878313 12870224 12855241 12834013 12807019 
2390.990 12774908 12738090 12696806 12650990 12600710 12545865 12487038 
2394.365 12425286 12362725 12301741 12244889 12194656 12152675 12120441 
2397.740 12098976 12089096 12091413 12105824 12131821 12168144 12212887 
2401.115 12264384 12321374 12383725 12452359 12528881 12614866 12711648 
2404.491 12819816 12939105 13068979 13208625 13357132 13513927 13678233 
2407.866 13849512 14026984 14210656 14400537 14597286 14801289 15012316 
2411.241 15228731 15447726 15665457 15877798 16080856 16271763 16448747 
2414.616 16610829 16756646 16885222 16995090 17084822 17153650 17201840 
2417.992 17230386 17241350 17237040 17219526 17190810 17152410 17105708 
2421.367 17052738 16995398 16936070 16877470 16821704 16770869 16726550 
2424.742 16689602 16660819 16640643 16629349 16627559 16636029 16656376 
2428.117 16690532 16741220 16810580 16900654 17012146 17144206 17295514 
2431.493 17463982 17648010 17846442 18058644 18284152 18522120 18771220 
2434.868 19029810 19296418 19570780 19853638 20147128 20453702 20775300 
2438.243 21112614 21465334 21831998 22211736 22604092 23009904 23430748 
2441.618 23868278 24323804 24797314 25288340 25795674 26318386 26855580 
2444.994 27405684 27967656 28538952 29117058 29699486 30284576 30871382 
2448.369 31459838 32049696 32639928 33228424 33811524 34385008 34945352 
2451.744 35489156 36014564 36519852 37003356 37463056 37896084 38298896 
2455.119 38667924 38999460 39289536 39533708 39727116 39864564 39941348 
2458.495 39954024 39900480 39780780 39596132 39348228 39038864 38669664 
2461.870 38242520 37760128 37226824 36649040 36034008 35390864 34727932 
2465.245 34053676 33376246 32702800 32040778 31397500 30779858 30194454 
2468.620 29647086 29142252 28683132 28271810 27909352 27595846 27330308 
2471.996 27111094 26934364 26795418 26688996 26608810 26549774 26507544 
2475.371 26478664 26460704 26451090 26447040 26445420 26443344 26437814 
2478.746 26427040 26409504 26384680 26352114 26311240 26261922 26203706 
2482.121 26136878 26062386 25981790 25896774 25808966 25719556 25629532 
2485.497 25539596 25450628 25363646 25279348 25198334 25120110 25043408 
2488.872 24966860 24888746 24808648 24726352 24642600 24558200 24472972 
2492.247 24385904 24295490 24199770 24097138 23987384 23870588 23747418 
2495.622 23618232 23482542 23339274 23187316 23026150 22856314 22679598 
2498.998 22498484 22315426 22131884 21948736 21765524 21582008 21398046 
2502.373 21214372 21031886 20852434 20676774 20505526 20338998 20177048 
2505.748 20020256 19869386 19725326 19588490 19458698 19335076 19215436 
2509.123 19097942 18981070 18863986 18746968 18630776 18516240 18403982 
2512.499 18294174 18186740 18081582 17978794 17878518 17781024 17686764 
2515.874 17595804 17508516 17425350 17347512 17276136 17212424 17157236 
2519.249 17110568 17071762 17040090 17014764 16995950 16983890 16979444 
2522.624 16982890 16993676 17010456 17031028 17053082 17074794 17095230 
2526.000 17114014 17131384 17147722 17163096 17177264 17190154 17201600 
2529.375 17211874 17221042 17229214 17236040 17240798 17242694 17241418 
2532.750 17237212 17231006 17224180 17217870 17213080 17209908 17208254 
2536.125 17207910 17208944 17211942 17217354 17225732 17237212 17250830 
2539.500 17265862 17281170 17296238 17310962 17325616 17340892 17357100 
2542.876 17374412 17393208 17413418 17435492 17459706 17486232 17515104 
2546.251 17545670 17576756 17607604 17636794 17663748 17687972 17709164 
2549.626 17726834 17740950 17751478 17758898 17764630 17770498 17778196 
2553.001 17789034 17803016 17819376 17835982 17851034 17863050 17871750 
2556.377 17877930 17882488 17885838 17887632 17886078 17879310 17865328 
2559.752 17842474 17810780 17770842 17723554 17670130 17611294 17547810 
2563.127 17480574 17410658 17339686 17269310 17201256 17136418 17075414 
2566.502 17018174 16964664 16915296 16870788 16831934 16799558 16774038 
2569.878 16755579 16743975 16739083 16741082 16750000 16765911 16788366 
2573.253 16815986 16846814 16878676 16910092 16940202 16969352 16998878 
2576.628 17030338 17065316 17104606 17148240 17195980 17247176 17301168 
2580.003 17357066 17414348 17472432 17531250 17590730 17651668 17715306 
2583.379 17782958 17855386 17932796 18014366 18098334 18182976 18266526 
2586.754 18347952 18426870 18503932 18579522 18654156 18728252 18801528 
2590.129 18874298 18946562 19018732 19090984 19163282 19235074 19305838 
2593.504 19374640 19440610 19503436 19563258 19620244 19675018 19728586 
2596.880 19781604 19835534 19892068 19952776 20019390 20092780 20173020 
2600.255 20259212 20350178 20444532 20541374 20640670 20742976 20849376 
2603.630 20960806 21077726 21200418 21328472 21461294 21598652 21739780 
2607.005 21884404 22031760 22181224 22332062 22483724 22636136 22788810 
2610.381 22941014 23091838 23239150 23380638 23513602 23635864 23746088 
2613.756 23843564 23928352 24000516 24059908 24106524 24140078 24160922 
2617.131 24170624 24171360 24166352 24158610 24150588 24143336 24136962 
2620.506 24130832 24123826 24115456 24105508 24094546 24083232 24072024 
2623.882 24061170 24050522 24040540 24031646 24024818 24021560 24023522 
2627.257 24031786 24047020 24069084 24097312 24130762 24168594 24210316 
2630.632 24256142 24305828 24359900 24418430 24481036 24546768 24614476 
2634.007 24683000 24751116 24818364 24884570 24950086 25015888 25082722 
2637.383 25151040 25220984 25292310 25364630 25437946 25512222 25587706 
2640.758 25665102 25744692 25826196 25908910 25991814 26074102 26154858 
2644.133 26234398 26313034 26392146 26472676 26555620 26641748 26731140 
2647.508 26824352 26921074 27021486 27125590 27233140 27343788 27457108 
2650.884 27572968 27690906 27811700 27935606 28063112 28194690 28330552 
2654.259 28470488 28614186 28761364 28911888 29065970 29223898 29385820 
2657.634 29552200 29723150 29898784 30079420 30264718 30454714 30648952 
2661.009 30846872 31047194 31248962 31451214 31653028 31854082 32054118 
2664.385 32253466 32452438 32651182 32850374 33050298 33251818 33455652 
2667.760 33662372 33872596 34086144 34303316 34523568 34746988 34973468 
2671.135 35203188 35436092 35672100 35910684 36150736 36390952 36630148 
2674.510 36867028 37100860 37331168 37557660 37780296 37999104 38214368 
2677.885 38426804 38637248 38847176 39057820 39270928 39487984 39710776 
2681.261 39941092 40180944 40432604 40697840 40977944 41273676 41585004 
2684.636 41911400 42252104 42606456 42974552 43356512 43752512 44162700 
2688.011 44586344 45022352 45469724 45927208 46393800 46868976 47352472 
2691.386 47844124 48343852 48851236 49366604 49889868 50421840 50963032 
2694.762 51513780 52073892 52642732 53219324 53802980 54393132 54989800 
2698.137 55593280 56203480 56819980 57441780 58067500 58695716 59325792 
2701.512 59957276 60590140 61224080 61857648 62488468 63113080 63727036 
2704.887 64326072 64906044 65463336 65994216 66495472 66963912 67396480 
2708.263 67791088 68146128 68461072 68735968 68970864 69165752 69320608 
2711.638 69435288 69509984 69545720 69543544 69504848 69430432 69320416 
2715.013 69174064 68990048 68767600 68506656 68208080 67873744 67506000 
2718.388 67107552 66680908 66228984 65755136 65263472 64758748 64247236 
2721.764 63735208 63228844 62734752 62258500 61805080 61378768 60982504 
2725.139 60618372 60287012 59988436 59721728 59486456 59282420 59110208 
2728.514 58971056 58866204 58796240 58760996 58759480 58789336 58848100 
2731.889 58933708 59043776 59176580 59330236 59502912 59692532 59897144 
2735.265 60114980 60344540 60584732 60834208 61091644 61354384 61619344 
2738.640 61883056 62141804 62392708 62634000 62864244 63083268 63291096 
2742.015 63488512 63676656 63857056 64032272 64205244 64378792 64555832 
2745.390 64738020 64926824 65122404 65324664 65533220 65746696 65963900 
2748.766 66182256 66398868 66610604 66814324 67008056 67191008 67363704 
2752.141 67528216 67686680 67841984 67996528 68152328 68311480 68475704 
2755.516 68646232 68823816 69008112 69197224 69388368 69578152 69762848 
2758.891 69938752 70102536 70250992 70380600 70487840 70569144 70620952 
2762.267 70640952 70627544 70580056 70498600 70383720 70236112 70056976 
2765.642 69848144 69612768 69354624 69078888 68790272 68494208 68194896 
2769.017 67895832 67600608 67312472 67035004 66771708 66525868 66299544 
2772.392 66093548 65907552 65740100 65589712 65454820 65334140 65226196 
2775.768 65129416 65041268 64957760 64874456 64785832 64686520 64570904 
2779.143 64433984 64271056 64078392 63853220 63594832 63304164 62984808 
2782.518 62641656 62280640 61907852 61529012 61148208 60769184 60394644 
2785.893 60026972 59667744 59318272 58978568 58647552 58322920 58001868 
2789.269 57681736 57360364 57037372 56713232 56389628 56068680 55752492 
2792.644 55442368 55140140 54846920 54564004 54292684 54033764 53788316 
2796.019 53555748 53335556 53125960 52925524 52732548 52546276 52365916 
2799.394 52191164 52021824 51857064 51696100 51537656 51380096 51222248 
2802.770 51062640 50900516 50735324 50567072 50395976 50222572 50047712 
2806.145 49872292 49697272 49523736 49352500 49184668 49020904 48861916 
2809.520 48708248 48559784 48416040 48275896 48137912 48000484 47862100 
2812.895 47721696 47578816 47433840 47287404 47140792 46995448 46853400 
2816.271 46716676 46587628 46469460 46364928 46277564 46210632 46167404 
2819.646 46151192 46164236 46209012 46286488 46397116 46540268 46714020 
2823.021 46915708 47142084 47389092 47652024 47926180 48206064 48485760 
2826.396 48759108 49019720 49261744 49479884 49669264 49826728 49949268 
2829.771 50035144 50083256 50093260 50065820 50002352 49905440 49778416 
2833.147 49624760 49448356 49253212 49042608 48820092 48588764 48350964 
2836.522 48108848 47863692 47616012 47365736 47112172 46854728 46593088 
2839.897 46327328 46057348 45783668 45506664 45226348 44943452 44658356 
2843.272 44371864 44085272 43800116 43518036 43240940 42970236 42707928 
2846.648 42455604 42215584 41990152 41781620 41591712 41422040 41273096 
2850.023 41145252 41038208 40951944 40886228 40840796 40815172 40808148 
2853.398 40817680 40841560 40876692 40920632 40971460 41027796 41088540 
2856.773 41152792 41218952 41284864 41348016 41404872 41452260 41486996 
2860.149 41505772 41505916 41484592 41439608 41369156 41272768 41150864 
2863.524 41005180 40838508 40654316 40456316 40248516 40035152 39820360 
2866.899 39608728 39405292 39215184 39043500 38895044 38773336 38680856 
2870.274 38618380 38585280 38579160 38596832 38633988 38685816 38747976 
2873.650 38816848 38889680 38964952 39042160 39121228 39202204 39284748 
2877.025 39368140 39451480 39534036 39615228 39695308 39774860 39854828 
2880.400 39935936 40018908 40104008 40191380 40280656 40371804 40464428 
2883.775 40557652 40650788 40742852 40832756 40919720 41003616 41084900 
2887.151 41164124 41241688 41317768 41391640 41462316 41528156 41588140 
2890.526 41641596 41688788 41731028 41769804 41807048 41844516 41883304 
2893.901 41924392 41967744 42013368 42060564 42108860 42157968 42207664 
2897.276 42258240 42310100 42363868 42420020 42478552 42539244 42601336 
2900.652 42663364 42723792 42780608 42831580 42874552 42907248 42927692 
2904.027 42934244 42926196 42903372 42866580 42817176 42756808 42687088 
2907.402 42609304 42524188 42432368 42334208 42229900 42119740 42003768 
2910.777 41882136 41755136 41622924 41485940 41344992 41200808 41054744 
2914.153 40907416 40759632 40611348 40462320 40312136 40160736 40008300 
2917.528 39855952 39705112 39557916 39416428 39282932 39159628 39048832 
2920.903 38952704 38873664 38813624 38773988 38755512 38757468 38778080 
2924.278 38814132 38861632 38915736 38971296 39023308 39067320 39099984 
2927.654 39119092 39123876 39115320 39095272 39067464 39036068 39006056 
2931.029 38983076 38972892 38981264 39014212 39076892 39173516 39307416 
2934.404 39480292 39692584 39943744 40232088 40555400 40910368 41293464 
2937.779 41700096 42124960 42562888 43008756 43458124 43907988 44355904 
2941.155 44800088 45238624 45668148 46083652 46477720 46840668 47161768 
2944.530 47429484 47632536 47762524 47813900 47785420 47680496 47507360 
2947.905 47278464 47008256 46713020 46408476 46107488 45820636 45554280 
2951.280 45311368 45091748 44893220 44712708 44547320 44394544 44253124 
2954.656 44122572 44002656 43893220 43793664 43703040 43619872 43542688 
2958.031 43470244 43401804 43337364 43277284 43221980 43171948 43127484 
2961.406 43088408 43054816 43026464 43003564 42986108 42974336 42968628 
2964.781 42969212 42976748 42992112 43016400 43050716 43095980 43152076 
2968.156 43217808 43290356 43366320 43441240 43511044 43572652 43624192 
2971.532 43665080 43695932 43717880 43732796 43742800 43750384 43758700 
2974.907 43770724 43789156 43815288 43847764 43881556 43908540 43916864 
2978.282 43892888 43823720 43698460 43510568 43259096 42949020 42590408 
2981.657 42196452 41782568 41364488 40954928 40564820 40201152 39867684 
2985.033 39565576 39293816 39050864 38835076 38645180 38480712 38340372 
2988.408 38221240 38117376 38017872 37908052 37769888 37583708 37333408 
2991.783 37008048 36604988 36130824 35600776 35036140 34459216 33891580 
2995.158 33349842 32843262 32375180 31943050 31541136 31162128 30799420 
2998.534 30447998 30104848 29768428 29438366 29114616 28797442 28486726 
3001.909 28182140 27883594 27591150 27305290 27026318 26754958 26491448 
3005.284 26235980 25988368 25748348 25515560 25289922 25071876 24861694 
3008.659 24660240 24467890 24284874 24110656 23944352 23784692 23630232 
3012.035 23479606 23331966 23186896 23044458 22905176 22769918 22639348 
3015.410 22514466 22395588 22282986 22176482 22075754 21979894 21888202 
3018.785 21799804 21713864 21629646 21546178 21462688 21378102 21291200 
3022.160 21201184 21107152 21009246 20908094 20805608 20704330 20607244 
3025.536 20517650 20437968 20369866 20313686 20268412 20231614 20199920 
3028.911 20169516 20136334 20096008 20045448 19981744 19903272 19809590 
3032.286 19701472 19580346 19448822 19309684 19165708 19019804 18874022 
3035.661 18730328 18589862 18453592 18322204 18196174 18076262 17962908 
3039.037 17856558 17757416 17665128 17578998 17497892 17420696 17346342 
3042.412 17274516 17205358 17139312 17077032 17018588 16963664 16911022 
3045.787 16859350 16807066 16753547 16698485 16642915 16588004 16535064 
3049.162 16484985 16437598 16392004 16346794 16300486 16251950 16200356 
3052.538 16145572 16087733 16027151 15964068 15898831 15831644 15762886 
3055.913 15693145 15622932 15552972 15483880 15416346 15351189 15289132 
3059.288 15231030 15177396 15128538 15084214 15043564 15005731 14969684 
3062.663 14935218 14902469 14872088 14845173 14822510 14804477 14790799 
3066.039 14780616 14773075 14767419 14762928 14758746 14754255 14748154 
3069.414 14738830 14724605 14704348 14677169 14643548 14604722 14562712 
3072.789 14519507 14477198 14437255 14400640 14367828 14338752 14312931 
3076.164 14289817 14268108 14246777 14224693 14200933 14175120 14147529 
3079.540 14118365 14088005 14056450 14023219 13987835 13949752 13908661 
3082.915 13865145 13820470 13776143 13733426 13693895 13658025 13626159 
3086.290 13598465 13574979 13555836 13540829 13529480 13521072 13514201 
3089.665 13507638 13500289 13491437 13481217 13470143 13459070 13448509 
3093.041 13438701 13429473 13420588 13411772 13403501 13396428 13391576 
3096.416 13390004 13392395 13398615 13407910 13419187 13430977 13442289 
3099.791 13452508 13461565 13470041 13478825 13488361 13499298 13511398 
3103.166 13524182 13536897 13548486 13558399 13566399 13572483 13577406 
3106.542 13581646 13585851 13590569 13595799 13601509 13607492 13613440 
3109.917 13619116 13624621 13630057 13635835 13642639 13651221 13662505 
3113.292 13677071 13695023 13715746 13738214 13760957 13782128 13800632 
3116.667 13815887 13827995 13837540 13845168 13851325 13856011 13859125 
3120.042 13860424 13859911 13858475 13856866 13856422 13857858 13861143 
3123.418 13865761 13870687 13875100 13878487 13881053 13883789 13887792 
3126.793 13893539 13901716 13911740 13922757 13933877 13944106 13952900 
3130.168 13960085 13965868 13970966 13976167 13982840 13992011 14004774 
3133.543 14021953 14043341 14068668 14096390 14124868 14152561 14178065 
3136.919 14200625 14220105 14236642 14251056 14263759 14275709 14287729 
3140.294 14300535 14315055 14331834 14351012 14372418 14395502 14419615 
3143.669 14444141 14468976 14494498 14521426 14550206 14581215 14614282 
3147.044 14648928 14684058 14718607 14751650 14782743 14811506 14838316 
3150.420 14863756 14888547 14913647 14939951 14968209 14998528 15030839 
3153.795 15064317 15098382 15132518 15166519 15200901 15236246 15273482 
3157.170 15312952 15354725 15398391 15443708 15490301 15538341 15588585 
3160.545 15641790 15698228 15757699 15819617 15882369 15944958 16005974 
3163.921 16065177 16122429 16177863 16231965 16284972 16336748 16387463 
3167.296 16437151 16486190 16534891 16583839 16632965 16682407 16731612 
3170.671 16779858 16826456 16870788 16912230 16950436 16984958 17015624 
3174.046 17042194 17064972 17084408 17101088 17115530 17128454 17140312 
3177.422 17151548 17162648 17174436 17187812 17203634 17222732 17245588 
3180.797 17271550 17299928 17329306 17358720 17387414 17415210 17442492 
3184.172 17469984 17498374 17528006 17559332 17592420 17627514 17664780 
3187.547 17704608 17747302 17792762 17841058 17891396 17943224 17995716 
3190.923 18048110 18099612 18150084 18199594 18248660 18298148 18348988 
3194.298 18402220 18458466 18517972 18580006 18643712 18707738 18771152 
3197.673 18833362 18894578 18955110 19015790 19077170 19139182 19201688 
3201.048 19264170 19326588 19388846 19451420 19515288 19581038 19649328 
3204.424 19720264 19793430 19868412 19944242 20020118 20095104 20168370 
3207.799 20239390 20307854 20374068 20438524 20502156 20565762 20629864 
3211.174 20694530 20759450 20824102 20888312 20952286 21016898 21083432 
3214.549 21153070 21226410 21303276 21382834 21463384 21543670 21622126 
3217.925 21698398 21772178 21844228 21915140 21985716 22056788 22128712 
3221.300 22202006 22276464 22352086 22428594 22505638 22583184 22661200 
3224.675 22739752 22819052 22899132 22980104 23061334 23142370 23222930 
3228.050 23302844 23382036 23461208 23540360 23619596 23698706 23776852 
3231.426 23853644 23928666 24002092 24074196 24145368 24215782 24285258 
3234.801 24353312 24419482 24483560 24546104 24608094 24670586 24734910 
3238.176 24801666 24871272 24943628 25018662 25096062 25175932 25257822 
3241.551 25340884 25423646 25504456 25581662 25654768 25724162 25791912 
3244.927 25860726 25933072 26011058 26095144 26184596 26278044 26373448 
3248.302 26469790 26566294 26662994 26760316 26858504 26957598 27057384 
3251.677 27157334 27256990 27355608 27453086 27549562 27644856 27739432 
3255.052 27834134 27929564 28026780 28126174 28227786 28330516 28433306 
3258.427 28534704 28633862 28730742 28826050 28921484 29018110 29116952 
3261.803 29218052 29320554 29423474 29525600 29626618 29726416 29825704 
3265.178 29924944 30024348 30124094 30223936 30323978 30424078 30524840 
3268.553 30626304 30728644 30831434 30933714 31034488 31132724 31228098 
3271.928 31321034 31412282 31503442 31595726 31690024 31786770 31885884 
3275.304 31986882 32088972 32191478 32293722 32395348 32496322 32596924 
3278.679 32697622 32799054 32901660 33005786 33111334 33218052 33325404 
3282.054 33433284 33541728 33651164 33762280 33875244 33990356 34106932 
3285.429 34224472 34342080 34459108 34575740 34692648 34810884 34931704 
3288.805 35056004 35183896 35315060 35448708 35583656 35718972 35854292 
3292.180 35990160 36127328 36267064 36411020 36560292 36714948 36874604 
3295.555 37037848 37203112 37368468 37533024 37696048 37858052 38019792 
3298.930 38182312 38346888 38513764 38683572 38856196 39031608 39210108 
3302.306 39391756 39577152 39767200 39962596 40164480 40373296 40589304 
3305.681 40812368 41041304 41274588 41510476 41747516 41984972 42223400 
3309.056 42464008 42708764 42959040 43215976 43479180 43747564 44020072 
3312.431 44295832 44575112 44859052 45149280 45447432 45754656 46070796 
3315.807 46394500 46724536 47059028 47396888 47737668 48081500 48428780 
3319.182 48780016 49135576 49495216 49858724 50225548 50594652 50965380 
3322.557 51336720 51707672 52077928 52447116 52815012 53181420 53545368 
3325.932 53905940 54261860 54611604 54954788 55291736 55623220 55950316 
3329.308 56273744 56593032 56907112 57213860 57511108 57797276 58071400 
3332.683 58332584 58579932 58811752 59025444 59219032 59390524 59540000 
3336.058 59668960 59780700 59878584 59965344 60041812 60106912 60158096 
3339.433 60191776 60205176 60196116 60163804 60108128 60029900 59930120 
3342.809 59809636 59669304 59509904 59331680 59134244 58916632 58677548 
3346.184 58415852 58130904 57823128 57494124 57146092 56780968 56400492 
3349.559 56005272 55595952 55172532 54735916 54287692 53830168 53365676 
3352.934 52896144 52422968 51946644 51467412 50985872 50502784 50019604 
3356.310 49537996 49059484 48584984 48115476 47651432 47193720 46743240 
3359.685 46301120 45867620 45442720 45025368 44613736 44206020 43800996 
3363.060 43399020 43001296 42610400 42229204 41859624 41502892 41158808 
3366.435 40826272 40503708 40189340 39882252 39581324 39286412 38997464 
3369.811 38714796 38438824 38169900 37908232 37653552 37405376 37162356 
3373.186 36922940 36685888 36450008 36214804 35980512 35747860 35518028 
3376.561 35291696 35069832 34852600 34640972 34434896 34234764 34040632 
3379.936 33851964 33667744 33486180 33305298 33123206 32938760 32751210 
3383.312 32560960 32369148 32177314 31986918 31799246 31615396 31435900 
3386.687 31260890 31090366 30924284 30761860 30602802 30445830 30290190 
3390.062 30134324 29977412 29818464 29657658 29495528 29333318 29172796 
3393.437 29015348 28861920 28712478 28565632 28419864 28273260 28124868 
3396.813 27975006 27825266 27678050 27535616 27399474 27269478 27144002 
3400.188 27020676 26896504 26770006 26640270 26507684 26373412 26238480 
3403.563 26103694 25968950 25834072 25698744 25563352 25428284 25294626 
3406.938 25163400 25034738 24908502 24783844 24659820 24535760 24411596 
3410.313 24287258 24163164 24039772 23916834 23794176 23671134 23547426 
3413.689 23423088 23298474 23174138 23050782 22929066 22809412 22691816 
3417.064 22576414 22462578 22350028 22237716 22124878 22010358 21893884 
3420.439 21775036 21654862 21534756 21416704 21302510 21193146 21088822 
3423.814 20988728 20891510 20795564 20699744 20603700 20507470 20411644 
3427.190 20316812 20223318 20130886 20038612 19945838 19851904 19756846 
3430.565 19661220 19565892 19471694 19379144 19287896 19197014 19105110 
3433.940 19010874 18913716 18813604 18711922 18610302 18511088 18416048 
3437.315 18326522 18242614 18163904 18089042 18015920 17942846 17868264 
3440.691 17791070 17711200 17629136 17545878 17462706 17380550 17299308 
3444.066 17218112 17135522 17049362 16958530 16863520 16765842 16668668 
3447.441 16575612 16489116 16410310 16337711 16268667 16200254 16129959 
3450.816 16057270 15983079 15909452 15838586 15771374 15707228 15644297 
3454.192 15580034 15512518 15441236 15367014 15292324 15218882 15148301 
3457.567 15080474 15013860 14946603 14876889 14803586 14726799 14647455 
3460.942 14567372 14488057 14410676 14336321 14265129 14197201 14132091 
3464.317 14068839 14006417 13943764 13879718 13813630 13745704 13676353 
3467.693 13606774 13537752 13469801 13402750 13336392 13270351 13204457 
3471.068 13138983 13074442 13011172 12948970 12886949 12823639 12758188 
3474.443 12689745 12618481 12545797 12473363 12402783 12335317 12271678 
3477.818 12211354 12153355 12096455 12039528 11981281 11920997 11857827 
3481.194 11792181 11724095 11654521 11584925 11516326 11449949 11386440 
3484.569 11325661 11267168 11210384 11155238 11101427 11049286 10998919 
3487.944 10949747 10901056 10851589 10800295 10746627 10690658 10633372 
3491.319 10576025 10519534 10464544 10410580 10356656 10301687 10244994 
3494.695 10186139 10126070 10066213 10008161 9953881 9904657 9861202 9823614 
3498.552 9791316 9762680 9735470 9707176 9675090 9636977 9591515 9538811 
3502.409 9480118 9417810 9354936 9294305 9238150 9187891 9144000 9105763 
3506.267 9071928 9040600 9009848 8977273 8941182 8900529 8855144 8806553 
3510.124 8756681 8707628 8661351 8618459 8578342 8539514 8500114 8458894 
3513.982 8415211 8369674 8323535 8278312 8235323 8195680 8159655 8127683 
3517.839 8099899 8076472 8057805 8043426 8032457 8022669 8011766 7997017 
3521.697 7976026 7947914 7912448 7871352 7826345 7779285 7731859 7684573 
3525.554 7637663 7591231 7545309 7500808 7458199 7418223 7381554 7347887 
3529.411 7316615 7287232 7259165 7232414 7207046 7183363 7161131 7139270 
3533.269 7116197 7089556 7057764 7019509 6975163 6926310 6875779 6826735 
3537.126 6781836 6742461 6709180 6681420 6657934 6637747 6620286 6605080 
3540.984 6592397 6582305 6574197 6567167 6559497 6548767 6532924 6509985 
3544.841 6479008 6439963 6394667 6345745 6296660 6250471 6210001 6176156 
3548.698 6148396 6124604 6101988 6077358 6048026 6012715 5971730 5926684 
3552.556 5880031 5834558 5792583 5755312 5722979 5694980 5670641 5648821 
3556.413 5628816 5610119 5591995 5573670 5554506 5533531 5510779 5485981 
3560.271 5460312 5435483 5413608 5396767 5386300 5382509 5384320 5388849 
3564.128 5392271 5389923 5377142 5350137 5307303 5248910 5178992 5103016 
3567.986 5027623 4958243 4898457 4849636 4810234 4777838 4749632 4722767 
3571.843 4695368 4666396 4636456 4606249 4577283 4550529 4526389 4504593 
3575.700 4483903 4463148 4440953 4416618 4389840 4361258 4332041 4303428 
3579.558 4276992 4254172 4235869 4222620 4214857 4212315 4214724 4221449 
3583.415 4231286 4242662 4253201 4259659 4257852 4243766 4213955 4167518 
3587.273 4106202 4035464 3963600 3898468 3846450 3811017 3791596 3785212 
3591.130 3787352 3792800 3796978 3796243 3788120 3771509 3746710 3714793 
3594.988 3678469 3640243 3603490 3570549 3542989 3520641 3501768 3483731 
3598.845 3463959 3440379 3413462 3384843 3358062 3337026 3324572 3321901 
3602.702 3328278 3341801 3359431 3378765 3396931 3411892 3421243 3422512 
3606.560 3413462 3392857 3360733 3319530 3273524 3228023 3187400 3153989 
3610.417 3127690 3106699 3087978 3069090 3049103 3028549 3009564 2994717 
3614.275 2985809 2984275 2989079 2998421 3008630 3015637 3014602 3001590 
3618.132 2973599 2931398 2878929 2823130 2772441 2733794 2710788 2703853 
3621.990 2710155 2725792 2747132 2772241 2800586 2833035 2869956 2910116 
3625.847 2949646 2981906 2997520 2986977 2943841 2868355 2770474 2667613 
3629.704 2579376 2518784 2489657 2486791 2500921 2521850 2540213 2550579 
3633.562 2550745 2542580 2529848 2516984 2506753 2499688 2493456 2485125 
3637.419 2472462 2454768 2433709 2412551 2394559 2381932 2374569 2371105 
3641.277 2369572 2369139 2370871 2377701 2392627 2418248 2454401 2498355 
3645.134 2544979 2588309 2622475 2642944 2646977 2633109 2601042 2551645 
3648.991 2487591 2414450 2340955 2278064 2236431 2221844 2234799 2269904 
3652.849 2318536 2369939 2414417 2444071 2454001 2443005 2414650 2376801 
3656.706 2339423 2312040 2301747 2311074 2338157 2377934 2423579 2467863 
3660.564 2505853 2536114 2560911 2585242 2614575 2652778 2701053 2758569 
3664.421 2824731 2900910 2991247 3102995 3242811 3415766 3624873 3873728 
3668.279 4171600 4540618 5015355 5640161 6456408 7483784 8719967 10145064 
3672.136 11735873 13471476 15325994 17254726 19147562 20812840 21997810 
3675.511 22442166 22008718 20742838 18842912 16561292 14127812 11733967 
3678.886 9514255 7569449 5967900 4731107 3838026 3230026 2834203 2577743 
3682.744 2404388 2282495 2196600 2140823 2111355 2100234 2096206 2087649 
3686.601 2065776 2027358 1975131 1915954 1856619 1801917 1753409 1710629 
3690.459 1673839 1644304 1624116 1614537 1614870 1622652 1634592 1647497 
3694.316 1660169 1672775 1685980 1700516 1715618 1730122 1742497 1751945 
3698.174 1758499 1762691 1764920 1764122 1758200 1744993 1723768 1696591 
3702.031 1668451 1645268 1632364 1631931 1643007 1662530 1686612 1712758 
3705.888 1740069 1769112 1800486 1833759 1866602 1895121 1914557 1920747 
3709.746 1911661 1887367 1850031 1802982 1751180 1700184 1655812 1623816 
3713.603 1608385 1610646 1628672 1657741 1691003 1722072 1746756 1763989 
3717.461 1776498 1788708 1805410 1828502 1856553 1885470 1909565 1925273 
3721.318 1931363 1930298 1925606 1920980 1917885 1915056 1909565 1898615 
3725.176 1880745 1857617 1833193 1812597 1801118 1801651 1815259 1839582 
3729.033 1871494 1906469 1940150 1968840 1990276 2004423 2013910 2022798 
3732.890 2034482 2049729 2064910 2073400 2067707 2042772 1999330 1944976 
3736.748 1891660 1850031 1826738 1822679 1834325 1856885 1886336 1920647 
3740.605 1958988 2000129 2040042 2070637 2080325 2057220 1994570 1899115 
3744.463 1792601 1705572 1661932 1667619 1712957 1778993 1846503 1898682 
3748.320 1925639 1924408 1899281 1859315 1814660 1773038 1738239 1712092 
3752.177 1695926 1691768 1701215 1723602 1755938 1791869 1824343 1847568 
3756.035 1858383 1856719 1845206 1828269 1809703 1791337 1773371 1756137 
3759.892 1740701 1730056 1727893 1736875 1756936 1784649 1814128 1838617 
3763.750 1852892 1854390 1844806 1828968 1812963 1802017 1797891 1799322 
3767.607 1802915 1804346 1800486 1790472 1775533 1759597 1746789 1740601 
3771.465 1743030 1753675 1770243 1789274 1807240 1821215 1830132 1834591 
3775.322 1836987 1839915 1845272 1852992 1860479 1864106 1860146 1847269 
3779.179 1827071 1804645 1786446 1777796 1780723 1793732 1812497 1831397 
3783.037 1846004 1853458 1853558 1847868 1839349 1830631 1823810 1819718 
3786.894 1818287 1819651 1823245 1828768 1835290 1842344 1848866 1854689 
3790.752 1860146 1866303 1874156 1884339 1896219 1907701 1915788 1917585 
3794.609 1911162 1897085 1878016 1859547 1847768 1847535 1860712 1885404 
3798.467 1916753 1946407 1965812 1967010 1946008 1904805 1853092 1806508 
3802.324 1779559 1780723 1809303 1856553 1909565 1953663 1976729 1971736 
3806.181 1939418 1888765 1834791 1793566 1774502 1779326 1802782 1836953 
3810.039 1874322 1910463 1944177 1976762 2010182 2044869 2078560 2106660 
3813.896 2122975 2121610 2100734 2063079 2018870 1981023 1961085 1964713 
3817.754 1989577 2027492 2065942 2092577 2096239 2071169 2019536 1952664 
3821.611 1888166 1841246 1821148 1827171 1852027 1885104 1916354 1939451 
3825.469 1951533 1954561 1953363 1953929 1960652 1975231 1996134 2020002 
3829.326 2043204 2062447 2076230 2084520 2088548 2090612 2093009 2098004 
3833.183 2106893 2120112 2136827 2154408 2169227 2176686 2172923 2155940 
3837.041 2126938 2090280 2053625 2023930 2006021 2001361 2007452 2019802 
3840.898 2033184 2043171 2047233 2043904 2034183 2019536 2002858 1987414 
3844.756 1976396 1972468 1977461 1991608 2014975 2046234 2084453 2128669 
3848.613 2178384 2233001 2290389 2346851 2395392 2426078 2427345 2388429 
3852.470 2304912 2183712 2046434 1921013 1831264 1787411 1785248 1812630 
3856.328 1856253 1905604 1953929 1998132 2037845 2073799 2107126 2138525 
3860.185 2167795 2194735 2218114 2236697 2248821 2252784 2247055 2230936 
3864.043 2206391 2178218 2153509 2139757 2142021 2161135 2192071 2225607 
3867.900 2251052 2257847 2240494 2200463 2148182 2099069 2066342 2056321 
3871.758 2066308 2087216 2107260 2116582 2110622 2091278 2065975 2044869 
3875.615 2036613 2045235 2069305 2103164 2139357 2170625 2190905 2197532 
3879.472 2190872 2175121 2155973 2139657 2131433 2133397 2144519 2160968 
3883.330 2176985 2185677 2181781 2162533 2131533 2096572 2068706 2057386 
3887.187 2067008 2095040 2133697 2173056 2203161 2216515 2210521 2187675 
3891.045 2155207 2122443 2097171 2083787 2082888 2092610 2110622 2135428 
3894.902 2166762 2204326 2247488 2294019 2339989 2380866 2412284 2431543 
3898.760 2438074 2433775 2422380 2407020 2390328 2372770 2353514 2330795 
3902.617 2303280 2271136 2235565 2199431 2166130 2139524 2122010 2114452 
3906.474 2116949 2127537 2143786 2162866 2181947 2198931 2212718 2223475 
3910.332 2232068 2240328 2249653 2261910 2277698 2297184 2319502 2342787 
3914.189 2364575 2381466 2390628 2389928 2378567 2358545 2333560 2308443 
3918.047 2288090 2275267 2271003 2274267 2282927 2294319 2306611 2318336 
3921.904 2328330 2335858 2339523 2338123 2330795 2317770 2300781 2282694 
3925.761 2266873 2255482 2249753 2249020 2252085 2257380 2264008 2271736 
3929.619 2280896 2291188 2301547 2310175 2314339 2312706 2304845 2292520 
3933.476 2278431 2265807 2256848 2251918 2249887 2249154 2248088 2245823 
3937.334 2243392 2242093 2243592 2248421 2256181 2264741 2272002 2275766 
3941.191 2274734 2269005 2259779 2249653 2240827 2235698 2235898 2241660 
3945.049 2252285 2266307 2281195 2294719 2304679 2309942 2310275 2306644 
3948.906 2300315 2292920 2285192 2277298 2269138 2260345 2251285 2242992 
3952.763 2236464 2233134 2233334 2236864 2242726 2249520 2256048 2261577 
3956.621 2266040 2269738 2273168 2276566 2280030 2283560 2286891 2290289 
3960.478 2293653 2296984 2300448 2303479 2306044 2308409 2311074 2314705 
3964.336 2319968 2326964 2335025 2343154 2350016 2354680 2357079 2357778 
3968.193 2358278 2359311 2361876 2365574 2369006 2371038 2370338 2366407 
3972.051 2359311 2350249 2340056 2330428 2322666 2318236 2318003 2322966 
3975.908 2332927 2346885 2363109 2378967 2392660 2402655 2408586 2411418 
3979.765 2412384 2412817 2413317 2413417 2412618 2409919 2405254 2399357 
3983.623 2393626 2389561 2387796 2388495 2390628 2392993 2394792 2395392 
3987.480 2394892 2393726 2392560 2391161 2389561 2387363 2384731 2381899 
3991.338 2379700 2378834 2379433 2381266 2383298 2384564 2384431 2382898 
3995.195 2380433 2378101 2376435 2375835 2376235 2376935 2377468 2377534 
3999.052 2376835 2375602 2373736 2371238 
##END=
