
##TITLE=Z408_1_b
##JCAMP-DX=5.01  $$ Nicolet v. 1
##DATATYPE=INFRARED SPECTRUM
##ORIGIN=UniL
##OWNER=Nicolet
##LONGDATE=2011/09/16
##TIME=09:44:32
##SPECTROMETER/DATA SYSTEM=Nicolet iS5
##DATA PROCESSING=
Ratio against background
%Transmittance->Absorbance
Truncated
ElementMultiply or ElementDivide
##COMMENTS=
Number of sample scans: 32
Collection length: 51.12 sec
Sample gain: 2.0
Background collected on: Ven Sep 16 09:40:23 2011 (GMT+02:00);
Number of background scans: 32
Background gain: 2.0
Sample spacing:  1.000
Number of scan points: 12415
Resolution points: 8192
Number of FFT points: 65536
Apodization: N-B fort;
Phase correction: Mertz;
Laser frequency: 15798.0 cm-1
Number of rejected sample scans: 0
Number of rejected background scans: 0
Bench serial number: ASB1000141;
##RESOLUTION=4.000
##XUNITS=1/CM
##YUNITS=ABSORBANCE
##FIRSTX=649.893372
##LASTX=4000.122314
##FIRSTY=0.081960
##MAXX=4000.122314
##MINX=649.893372
##MAXY=0.340040
##MINY=-0.001748
##XFACTOR=1.000000
##YFACTOR=1.000000E-009
##NPOINTS=6950
##DELTAX=0.482117
##ZPD=6100
##XYDATA=(X++(Y..Y))
649.893 81959880 82359104 82846464 83460320 84206864 85062176 85986984 
653.268 86952784 87957576 89026520 90195920 91492976 92923208 94469432 
656.643 96109904 97838176 99674216 101659224 103837512 106230392 108828824 
660.018 111600560 114516216 117571864 120800240 124250712 127963200 
662.911 131931496 136096816 140356816 144612688 148797936 152873792 
665.803 156816064 160557600 163927184 166655296 168432432 169047520 
668.696 168496064 166950128 164639600 161743072 158362832 154552528 
671.589 150360480 145877888 141240720 136596448 132082640 127785904 
674.481 123736224 119933216 116369448 113051232 110000912 107241696 
677.374 104779856 102595344 100645032 98876824 97243472 95717912 94288832 
680.749 92953576 91705968 90529848 89400176 88293320 87196136 86113136 
684.124 85063512 84075032 83170496 82360704 81643952 81009424 80443560 
687.498 79934200 79470944 79042296 78629464 78206840 77743120 77206944 
690.873 76575344 75837256 74993832 74054200 73030960 71936656 70782808 
694.248 69583680 68358720 67131024 65926760 64768792 63670828 62639320 
697.623 61673496 60770976 59930880 59155924 58449896 57814724 57246976 
700.998 56737544 56272840 55839980 55429456 55037188 54664364 54314120 
704.373 53988928 53688572 53409704 53147304 52897268 52656872 52425360 
707.747 52203048 51990264 51787248 51594144 51412728 51248908 51112656 
711.122 51019932 50989264 51038524 51178932 51409000 51708080 52032468 
714.497 52322300 52506788 52516476 52303872 51850268 51175724 50333208 
717.872 49407404 48499652 47708860 47131376 46846424 46905668 47330520 
721.247 48096304 49127044 50283020 51381996 52224832 52619208 52439636 
724.621 51650980 50323384 48611516 46721068 44863756 43194272 41803620 
727.996 40709884 39878872 39249452 38759532 38364188 38034256 37752064 
731.371 37505928 37282244 37068232 36855592 36643992 36441072 36257592 
734.746 36102052 35974320 35866024 35763904 35657100 35541544 35421132 
738.121 35303776 35196792 35101228 35012576 34923156 34828012 34727964 
741.496 34630528 34545852 34480664 34435720 34404052 34376256 34343836 
744.870 34304464 34261616 34222032 34190664 34167508 34147256 34123956 
748.245 34093852 34059232 34027052 34004800 33995484 33995624 33994732 
751.620 33982152 33952448 33909204 33864428 33832620 33825776 33847268 
754.995 33892300 33950800 34014796 34082096 34157080 34247380 34358500 
758.370 34490244 34637096 34791104 34947968 35110140 35286956 35490016 
761.744 35727820 36002580 36310828 36648212 37016456 37427332 37902916 
765.119 38474012 39174604 40035076 41082712 42335156 43795684 45443532 
768.494 47226152 49059820 50832608 52441472 53830248 55028876 56168824 
771.869 57467764 59177756 61475144 64384944 67702008 71019368 73757784 
775.244 75309336 75240936 73381800 69910224 65269404 60083324 54973820 
778.619 50411160 46700736 43934716 42047716 40877092 40236668 39965648 
781.993 39940040 40084496 40354752 40721636 41166600 41678576 42256120 
785.368 42907068 43646212 44488840 45445184 46520168 47717072 49042460 
788.743 50512984 52156004 54004800 56096580 58466156 61144008 64162992 
792.118 67558336 71368000 75629840 80364536 85562024 91159936 97041320 
795.493 103026896 108872584 114308928 119040776 122779136 125299912 
798.385 126462088 126255136 124803832 122369672 119307544 115983504 
801.278 112755680 109892536 107532032 105680928 104214064 102920592 
804.171 101538352 99840600 97688200 95060680 92065032 88901224 85814720 
807.546 83008568 80606408 78620016 76959128 75461680 73943120 72260784 
810.920 70330616 68147176 65764620 63274152 60771436 58332284 56013152 
814.295 53846788 51850868 50036296 48409928 46974440 45727376 44660044 
817.670 43758812 43008612 42396488 41914500 41558204 41325824 41214508 
821.045 41220192 41337960 41565568 41906180 42369896 42973196 43735912 
824.420 44674512 45799760 47109804 48588652 50199476 51884320 53565232 
827.794 55140216 56501164 57548784 58206140 58445760 58296620 57848152 
831.169 57228188 56591408 56096656 55871332 56006216 56535888 57431188 
834.544 58594876 59865652 61048928 61920272 62276704 61981340 60979836 
837.919 59323740 57150212 54663948 52080320 49587096 47331040 45392140 
841.294 43795168 42524408 41542484 40804032 40264332 39886100 39635988 
844.669 39484388 39408704 39391756 39424448 39504496 39632540 39808196 
848.043 40027484 40281924 40562380 40863004 41184048 41532352 41918004 
851.418 42350428 42834108 43367788 43946376 44564684 45220940 45918112 
854.793 46662588 47461452 48320816 49245120 50239308 51312668 52479420 
858.168 53761052 55183896 56775232 58564424 60581076 62854244 65413288 
861.543 68279536 71455840 74908312 78554576 82256544 85810888 88985528 
864.917 91540344 93253824 93976808 93642936 92285688 90026624 87064968 
868.292 83648000 80017136 76402504 72988904 69895696 67194448 64907164 
871.667 63022120 61507516 60323140 59429652 58789028 58368740 58140792 
875.042 58079620 58165000 58382612 58723860 59186832 59772716 60482920 
878.417 61314160 62256396 63290328 64390748 65526208 66662832 67770328 
881.792 68820632 69793744 70680336 71481224 72207840 72876616 73506000 
885.166 74109248 74692416 75256016 75799968 76329464 76861392 77423864 
888.541 78051392 78778448 79627264 80603304 81692576 82866952 84088864 
891.916 85318616 86521904 87666776 88723896 89666440 90465984 91095776 
895.291 91534864 91767200 91785416 91589728 91188224 90598056 89846352 
898.666 88975072 88035488 87086224 86187928 85388344 84719616 84194000 
902.040 83806344 83539784 83374912 83296552 83296952 83375360 83535248 
905.415 83781112 84117256 84547736 85077896 85715616 86470064 87350104 
908.790 88360768 89502600 90771616 92162560 93672248 95302224 97058312 
912.165 98948392 100980280 103159152 105489856 107980928 110647976 113517368 
915.540 116625864 120011624 123712208 127754344 132148400 136885040 
918.432 141929520 147219408 152647088 158057584 163253808 167986528 
921.325 172005888 175101712 177144672 178139696 178240896 177757216 
924.218 177084544 176676848 176988112 178371920 181068720 185150944 
927.110 190513552 196858256 203710176 210500448 216553728 221202016 
930.003 223891008 224191168 221891024 217009200 209787744 200657120 
932.896 190170832 178980992 167713232 156919872 147061184 138431616 
935.789 131193552 125396400 121001536 117925968 116070200 115342176 
938.681 115650832 116892800 118940368 121603056 124623816 127708632 
941.574 130519984 132745640 134153592 134607344 134103728 132757472 
944.467 130785792 128449816 126009360 123698432 121676136 120030800 
947.359 118786712 117920264 117381744 117114504 117071080 117214488 
950.252 117516440 117955784 118510344 119157848 119878592 120656688 
953.145 121483648 122357328 123278056 124244448 125251008 126287400 
956.037 127342464 128408584 129483640 130571616 131678400 132808256 
958.930 133960040 135127968 136304112 137483536 138666816 139860112 
961.823 141070448 142303056 143556736 144825184 146099952 147375136 
964.716 148650384 149930976 151223936 152533344 153858176 155192320 
967.608 156528912 157865008 159204016 160555440 161930592 163336896 
970.501 164775152 166240384 167726256 169230544 170758176 172319744 
973.394 173927776 175589936 177305920 179067504 180863504 182686224 
976.286 184534176 186411744 188324560 190273312 192250960 194243664 
979.179 196234544 198211520 200169168 202107456 204026096 205918672 
982.072 207769088 209556624 211261856 212875888 214404160 215865552 
984.964 217284928 218682704 220071536 221455712 222836624 224219568 
987.857 225618064 227050032 228533632 230078080 231681072 233330112 
990.750 235010832 236714736 238442480 240202816 242004288 243848224 
993.643 245725344 247618320 249509648 251391920 253270416 255161520 
996.535 257082224 259042256 261038480 263057952 265085184 267112880 
999.428 269145760 271198784 273288480 275423968 277603104 279815136 
1002.321 282050208 284307296 286598816 288944640 291363840 293862368 
1005.213 296430752 299045344 301683296 304330752 306988224 309666272 
1008.106 312374240 315107584 317843584 320543232 323163776 325672064 
1010.999 328048032 330281472 332361504 334264288 335951232 337377728 
1013.891 338504320 339313984 339815904 340040192 340020896 339783392 
1016.784 339339104 338688160 337832960 336788672 335584992 334260448 
1019.677 332850592 331375136 329839616 328243360 326594624 324922496 
1022.570 323279936 321728992 320331680 319129376 318135712 317341920 
1025.462 316726240 316265088 315935456 315712608 315560352 315419360 
1028.355 315212192 314848512 314236288 313303712 311998688 310287968 
1031.249 308151680 305575136 302550144 299083808 295207968 290984384 
1034.142 286493632 281827584 277064608 272255072 267421216 262562032 
1037.035 257666640 252727456 247747872 242742784 237736224 232756560 
1039.928 227836560 223018080 218347408 213874624 209643136 205671664 
1042.821 201945216 198406768 194971456 191535248 188002400 184312016 
1045.714 180442816 176419424 172297904 168157296 164079296 160135504 
1048.607 156388624 152882464 149642288 146677312 143979008 141524960 
1051.500 139281728 137214512 135291040 133486552 131785840 130180376 
1054.393 128663016 127225472 125855088 124536808 123257112 122005080 
1057.286 120774464 119561728 118362672 117170360 115974720 114764800 
1060.179 113533120 112279296 111010720 109741112 108485760 107259296 
1063.072 106072456 104932048 103843648 102812008 101841624 100934472 
1065.965 100086688 99286544 98513888 97745008 96956192 96130032 95260264 
1069.341 94351336 93417112 92476072 91549840 90659080 89822232 89056536 
1072.716 88375672 87788944 87300400 86907536 86602464 86372712 86204856 
1076.091 86085144 85999104 85931576 85862808 85767648 85619440 85391496 
1079.466 85064952 84634488 84110744 83518984 82892496 82270432 81690056 
1082.842 81183104 80778456 80500584 80370872 80409784 80634536 81058304 
1086.217 81691696 82540824 83608792 84893984 86387744 88067416 89889224 
1089.592 91788320 93673520 95435320 96969072 98180320 99007896 99434408 
1092.967 99485856 99228080 98749200 98156480 97555112 97035776 96676600 
1096.343 96530584 96627768 96976328 97563032 98355408 99299456 100325952 
1099.718 101347760 102259552 102954736 103325152 103277192 102752392 
1102.611 101731880 100245176 98360016 96178160 93814880 91377232 88964376 
1105.986 86652056 84490008 82509168 80720160 79118928 77690456 76412976 
1109.361 75261104 74207784 73228944 72303360 71412832 70542992 69681544 
1112.737 68818072 67945224 67059600 66162848 65261968 64368300 63495724 
1116.112 62656200 61860172 61114144 60421224 59782868 59200008 58673868 
1119.487 58205876 57797048 57447828 57157092 56921844 56736716 56592236 
1122.862 56474300 56361220 56222340 56023068 55725408 55295648 54713292 
1126.238 53973316 53089900 52091412 51017960 49913064 48814828 47755500 
1129.613 46756268 45827704 44971896 44184452 43456288 42775928 42131676 
1132.988 41513136 40912296 40325520 39752892 39197992 38665896 38161832 
1136.363 37690012 37253108 36852816 36490912 36169532 35891680 35660300 
1139.739 35477148 35342664 35255512 35213320 35214076 35256408 35340508 
1143.114 35466684 35634764 35843028 36087828 36364256 36666560 36988780 
1146.489 37325172 37669344 38013716 38349960 38669084 38963032 39226968 
1149.864 39459644 39663652 39843748 40006484 40158012 40303340 40447152 
1153.240 40593960 40747548 40911748 41088688 41278196 41477772 41683136 
1156.615 41889472 42092468 42289172 42477016 42652544 42810812 42944120 
1159.990 43042852 43097664 43100040 43044204 42927072 42747264 42504640 
1163.365 42199116 41831564 41404216 40921032 40388932 39816224 39211956 
1166.740 38585532 37945008 37297984 36652392 36016224 35397908 34806288 
1170.116 34248528 33729724 33252858 32818746 32427802 32080944 31780708 
1173.491 31531018 31336348 31200470 31125782 31113646 31164762 31280868 
1176.866 31465538 31723530 32061004 32483716 32996598 33603944 34310488 
1180.241 35122424 36048620 37099344 38285868 39618748 41105844 42753260 
1183.617 44565492 46545136 48692088 51000032 53454520 56025668 58667800 
1186.992 61323244 63918240 66372572 68607848 70542680 72106000 73240432 
1190.367 73904312 74081544 73783032 73048296 71937952 70529000 68907448 
1193.742 67152408 65335176 63512824 61721616 59981512 58296508 56659620 
1197.118 55058136 53479700 51917852 50374396 48860764 47394632 45999068 
1200.493 44695740 43501888 42429148 41481856 40658100 39951448 39353012 
1203.868 38852248 38436288 38091620 37802128 37549784 37317628 37089852 
1207.243 36854260 36603656 36335148 36049268 35748688 35437456 35120808 
1210.619 34805072 34498820 34212500 33957716 33746808 33590844 33499208 
1213.994 33480060 33540298 33685896 33922892 34256024 34688056 35219216 
1217.369 35846916 36567284 37376156 38271500 39253516 40324496 41487216 
1220.744 42744012 44096128 45545152 47093412 48746800 50512908 52401660 
1224.120 54421072 56575328 58862104 61272648 63791008 66392304 69044616 
1227.495 71705112 74317472 76818120 79135232 81194288 82932080 84295608 
1230.870 85250312 85783560 85906336 85656736 85097368 84322528 83449632 
1234.245 82604664 81925712 81540080 81554632 82060856 83123584 84786792 
1237.621 87078488 90010032 93577416 97754344 102492208 107711560 113297096 
1240.996 119114392 125001296 130777464 136265792 141280528 145643360 
1243.889 149204464 151840544 153476464 154090704 153712992 152416640 
1246.782 150303024 147501872 144153472 140400656 136390016 132244080 
1249.675 128050896 123853520 119641408 115357824 110915888 106232304 
1252.568 101245888 95943080 90364592 84604176 78795840 73080832 67603856 
1255.943 62485636 57805264 53606616 49892804 46636688 43789344 41292408 
1259.319 39088240 37121068 35346260 33729620 32245934 30879174 29619240 
1262.694 28458636 27390192 26406018 25496620 24653052 23867718 23135696 
1266.069 22455042 21825378 21246554 20717674 20235710 19797140 19399066 
1269.444 19039884 18720122 18441352 18205018 18011638 17860252 17749200 
1272.820 17677446 17645456 17655326 17710026 17811852 17961562 18157548 
1276.195 18395030 18666228 18960820 19264170 19557816 19822042 20035834 
1279.570 20182358 20252722 20247028 20174652 20049506 19887526 19699460 
1282.945 19490614 19260462 19005820 18724860 18420266 18099404 17773846 
1286.321 17457154 17160614 16893144 16661230 16468674 16318651 16212773 
1289.696 16150558 16128480 16139656 16175937 16228834 16293263 16367987 
1293.071 16455596 16560260 16685436 16832312 16999498 17185398 17389724 
1296.446 17615022 17866780 18152020 18476514 18844088 19256412 19713884 
1299.822 20216826 20765706 21359342 21992406 22651564 23316688 23959722 
1303.197 24549610 25059202 25466158 25758334 25933282 25997550 25964870 
1306.572 25854292 25690166 25498448 25305408 25135452 25006026 24926818 
1309.947 24898570 24915274 24966964 25042670 25134012 25234328 25338214 
1313.323 25440510 25534502 25612802 25668864 25698110 25698638 25671184 
1316.698 25617160 25537840 25433728 25305830 25156834 24992374 24821276 
1320.073 24653052 24496318 24356326 24234280 24129360 24041032 23971172 
1323.448 23926286 23916204 23951670 24042958 24198088 24422812 24721828 
1326.823 25099292 25556886 26091342 26690230 27331084 27979458 28596668 
1330.199 29146326 29599304 29941308 30173462 30309516 30370526 30380794 
1333.574 30364236 30340286 30326324 30336628 30382322 30472094 30611192 
1336.949 30801518 31044488 31342048 31699076 32123792 32626178 33214082 
1340.324 33891260 34655148 35496276 36399996 37347020 38313552 39267880 
1343.700 40174404 40994000 41688132 42228624 42599692 42800648 42841928 
1347.075 42739696 42508728 42157052 41685400 41089672 40366096 39516436 
1350.450 38552148 37494192 36373476 35225396 34084820 32986372 31959244 
1353.825 31026730 30207632 29513260 28947552 28506294 28179098 27951718 
1357.201 27810218 27745082 27751298 27827386 27972250 28181928 28448660 
1360.576 28763100 29117448 29509784 29946136 30439040 31002746 31646792 
1363.951 32374360 33180964 34057296 34990096 35963812 36957244 37937412 
1367.326 38861596 39675852 40318900 40737068 40887868 40746820 40310212 
1370.702 39591708 38620588 37435496 36089056 34645168 33173810 31754400 
1374.077 30460756 29348348 28448624 27764050 27277276 26962430 26799116 
1377.452 26780544 26916738 27232222 27763554 28557212 29661808 31126032 
1380.827 32987304 35253028 37878768 40745292 43669660 46398552 48650204 
1384.203 50171768 50745864 50240612 48631452 46027544 42672688 38900916 
1387.578 35095840 31576164 28542102 26072028 24139414 22662246 21538864 
1390.953 20679066 20010230 19478208 19047742 18694108 18401772 18163178 
1394.328 17975962 17841714 17763420 17742676 17778366 17865950 17997546 
1397.704 18161554 18344392 18529934 18704520 18859938 18995296 19115672 
1401.079 19228356 19339580 19451248 19561558 19666038 19761596 19847882 
1404.454 19928458 20008702 20093266 20183572 20277994 20374208 20472216 
1407.829 20576150 20694148 20835364 21006326 21208386 21437380 21686382 
1411.205 21949782 22226418 22520854 22840632 23191998 23577790 23995754 
1414.580 24441914 24913520 25412440 25945698 26523216 27153488 27839574 
1417.955 28575506 29346930 30134394 30919412 31687778 32428588 33133182 
1421.330 33792328 34399176 34952960 35466792 35970684 36511600 37140200 
1424.706 37898436 38810760 39880616 41100272 42459696 43953856 45578676 
1428.081 47322392 49158468 51038636 52899996 54682888 56343304 57866812 
1431.456 59266540 60578484 61847944 63119324 64436056 65841304 67384592 
1434.831 69127752 71139488 73478680 76174096 79198368 82477520 85922088 
1438.207 89451592 93002048 96505680 99877920 102987368 105658616 107712456 
1441.582 108973760 109316096 108683512 107084456 104586784 101298184 
1444.475 97365968 92953904 88222760 83339792 78458112 73723112 69285832 
1447.850 65279492 61802864 58897316 56538000 54650384 53139964 51931148 
1451.225 50982408 50292172 49882288 49778272 49987744 50496496 51270720 
1454.601 52270388 53462988 54815488 56292112 57844668 59414036 60945444 
1457.976 62405944 63795536 65130912 66433496 67721216 69004376 70285736 
1461.351 71557248 72802560 73987400 75055344 75937792 76558072 76859928 
1464.726 76831776 76516816 75997832 75361280 74678760 73992352 73319344 
1468.102 72664896 72026048 71391664 70736752 70016648 69169368 68126128 
1471.477 66844432 65340532 63708812 62094552 60643516 59450512 58541072 
1474.852 57893652 57471620 57250680 57228944 57424308 57857008 58539892 
1478.227 59468100 60623816 61982488 63524836 65243528 67143088 69236784 
1481.603 71539392 74063424 76816976 79809072 83056784 86589680 90445944 
1484.978 94657208 99230408 104114928 109174968 114196848 118871704 122824856 
1488.353 125679848 127080752 126781496 124717808 121043128 116110584 
1491.246 110366184 104260776 98131600 92169976 86465656 81024680 75826280 
1494.621 70874312 66209264 61919892 58123744 54925536 52381432 50483580 
1497.997 49180064 48395480 48056700 48107408 48502056 49202292 50171916 
1501.372 51368868 52745120 54251196 55822644 57382596 58836076 60039872 
1504.747 60802724 60888144 60053112 58163408 55298960 51762540 47933396 
1508.122 44107208 40428752 36924348 33574516 30364412 27297632 24408898 
1511.498 21746226 19347790 17236590 15410990 13850059 12522811 11394399 
1514.873 10430231 9592667 8846555 8164888 7534048 6959674 6460141 6054275 
1518.730 5748059 5527759 5358926 5197870 5005400 4767018 4503086 4257384 
1522.588 4070548 3957314 3905121 3884159 3864201 3824187 3760780 3685019 
1526.445 3615017 3562966 3529092 3504140 3477452 3445823 3416868 3404645 
1530.302 3422679 3474780 3551440 3630353 3683214 3689296 3645021 3568912 
1534.160 3491113 3439244 3425985 3448161 3494587 3553979 3619962 3691067 
1538.017 3766896 3842338 3902012 3923543 3889073 3799986 3680106 3563500 
1541.875 3477419 3428924 3405814 3384342 3342502 3268817 3169109 3061582 
1545.732 2969562 2909616 2884632 2886834 2902277 2918922 2930197 2937103 
1549.590 2944508 2957352 2975734 2994817 3007095 3007362 2994851 2974633 
1553.447 2954783 2943541 2946210 2963991 2995785 3040227 3096754 3161799 
1557.304 3223516 3258200 3230259 3111671 2908548 2666446 2444838 2283294 
1561.162 2194335 2167428 2181348 2212152 2240394 2255515 2256581 2252085 
1565.019 2254416 2273601 2312107 2365308 2423679 2478160 2522050 2552545 
1568.877 2569110 2573176 2567243 2555711 2546512 2550312 2578009 2638310 
1572.734 2734061 2860951 3006828 3154357 3286544 3391621 3470471 3537276 
1576.592 3613647 3716164 3851531 4018274 4211981 4431480 4680329 4965180 
1580.449 5292611 5666277 6084818 6543250 7034966 7553872 8092371 8638975 
1584.306 9176047 9676648 10110639 10451206 10680436 10796490 10814051 
1587.682 10763372 10683798 10618669 10612999 10705363 10928510 11306922 
1591.057 11851119 12554016 13383579 14285468 15180142 15974520 16582118 
1594.432 16927766 16966766 16691703 16132468 15350194 14421088 13429849 
1597.807 12450927 11542049 10747171 10092088 9588331 9235984 9027271 8950078 
1601.665 8992461 9146504 9407144 9770677 10231459 10777841 11391134 12048181 
1605.522 12720211 13374866 13979349 14495662 14885873 15116667 15161407 
1608.897 15007137 14656982 14130380 13461120 12693532 11880948 11072942 
1612.273 10311086 9623967 9022332 8504236 8057164 7664102 7306169 6967318 
1616.130 6640707 6329741 6048463 5814410 5641403 5534639 5489538 5494403 
1619.988 5534169 5593404 5658053 5719286 5774182 5825894 5880971 5946267 
1623.845 6026422 6122991 6235278 6362993 6506016 6662981 6829865 6999507 
1627.702 7161265 7305562 7427222 7528553 7618206 7707440 7806137 7919366 
1631.560 8046092 8180082 8312051 8431798 8527484 8587501 8599904 8556140 
1635.417 8455920 8311241 8145103 7981324 7836871 7717828 7619791 7532262 
1639.275 7442862 7342326 7227327 7102254 6977014 6862987 6768778 6696157 
1643.132 6640674 6592700 6540728 6472854 6379200 6253598 6094630 5908076 
1646.990 5706998 5511953 5343763 5219969 5151128 5138555 5175907 5248072 
1650.847 5333298 5399048 5405254 5318271 5130508 4878787 4624767 4418526 
1654.704 4274884 4182974 4123496 4079946 4042989 4008442 3976106 3947049 
1658.562 3921738 3899504 3878609 3856545 3830571 3797446 3752959 3693707 
1662.419 3618492 3530963 3440079 3358830 3299631 3270052 3271087 3297061 
1666.277 3337594 3379099 3408352 3415566 3395128 3347978 3279433 3198782 
1670.134 3115810 3039827 2979103 2938837 2920891 2921758 2932532 2938170 
1673.991 2921124 2867655 2775009 2655678 2532714 2430243 2361543 2326697 
1677.849 2315971 2316537 2319169 2321134 2327897 2348784 2392160 2458799 
1681.706 2539047 2611675 2648344 2620509 2512785 2336258 2129169 1937754 
1685.564 1791270 1696757 1644836 1620623 1609549 1600170 1585006 1559200 
1689.421 1521593 1474845 1425975 1385221 1363018 1367638 1401343 1459352 
1693.279 1529440 1594849 1637751 1644370 1613739 1560797 1511751 1489042 
1697.136 1502807 1546963 1605292 1653217 1665158 1622619 1523654 1390373 
1700.993 1257732 1156724 1100349 1084637 1096861 1121775 1144697 1153202 
1704.851 1140678 1107358 1061153 1013526 975400 953085 947141 953749 967231 
1709.190 983404 1001138 1022958 1053381 1097359 1157621 1233408 1321372 
1713.048 1416268 1513646 1609615 1702046 1788109 1862642 1916953 1940982 
1716.905 1926837 1874389 1794764 1707502 1632131 1582013 1561428 1566849 
1720.763 1590925 1625712 1665491 1706337 1746423 1784849 1821148 1854889 
1724.620 1886003 1915854 1947073 1982487 2024263 2072234 2123641 2173722 
1728.478 2218247 2254982 2286225 2316271 2350649 2391227 2433809 2466064 
1732.335 2468396 2419614 2304345 2125439 1908633 1694629 1519265 1398916 
1736.192 1331775 1303924 1298640 1299271 1293256 1273450 1239190 1196327 
1740.050 1154431 1123602 1110281 1116194 1138718 1172903 1213106 1255273 
1743.907 1298474 1344537 1397055 1459452 1532599 1613972 1698520 1779126 
1747.765 1849299 1905105 1944676 1967476 1973001 1960120 1928235 1879181 
1751.622 1819252 1758067 1706138 1671478 1656244 1656776 1663927 1667054 
1755.479 1656011 1625945 1578554 1522723 1469659 1428003 1401509 1387249 
1759.337 1378706 1367405 1346066 1309973 1257798 1192074 1117889 1043118 
1763.194 975002 920411 884286 868183 870408 885348 905203 921706 929044 
1767.534 927118 920709 918219 925923 944750 969489 989647 992968 971183 
1771.874 924296 862539 801755 755947 732714 731386 746156 770618 800194 
1776.213 833789 871968 915762 963811 1012396 1056105 1089686 1110481 1119550 
1780.553 1121310 1122340 1127356 1138884 1156026 1175927 1194665 1209318 
1784.410 1218322 1221712 1221080 1218821 1218422 1223240 1237262 1263348 
1788.268 1303126 1355140 1414307 1472684 1520130 1546431 1544503 1512549 
1792.125 1455197 1382595 1306915 1238392 1182871 1142073 1114201 1096662 
1795.982 1085933 1078957 1073410 1067431 1060057 1050957 1040295 1028039 
1799.840 1014123 997784 978522 956140 931966 908225 888170 874956 869976 
1804.179 873661 884053 898895 916061 934523 954480 976961 1002367 1030331 
1808.519 1058563 1084072 1103970 1116560 1122074 1122141 1119483 1116460 
1812.376 1114666 1115032 1117922 1124167 1134499 1149947 1171408 1198819 
1816.234 1231414 1267967 1307414 1349024 1392401 1437411 1483323 1529373 
1820.091 1574198 1617730 1660402 1703177 1746589 1789440 1828236 1857651 
1823.949 1872525 1870762 1854855 1832827 1814494 1808771 1819385 1843875 
1827.806 1874289 1899647 1910696 1902043 1875554 1838850 1802782 1776598 
1831.664 1765120 1768646 1784449 1809237 1839981 1875720 1916021 1961118 
1835.521 2010981 2065343 2123575 2186110 2253583 2327430 2409386 2500821 
1839.378 2602608 2715323 2839239 2973966 3118313 3269284 3421844 3569848 
1843.236 3707408 3830872 3941398 4044360 4146644 4253201 4364939 4478413 
1847.093 4587764 4685789 4767955 4831878 4878050 4907873 4922518 4921378 
1850.951 4902478 4863273 4802596 4721226 4622524 4511121 4391615 4267188 
1854.808 4139753 4010047 3879579 3750587 3625876 3508315 3398467 3295057 
1858.666 3194576 3093250 2988912 2881497 2773308 2667513 2567177 2473495 
1862.523 2386663 2306677 2234632 2173123 2125772 2094941 2080524 2078460 
1866.380 2082023 2083255 2075863 2057986 2032152 2003957 1979558 1963049 
1870.238 1954994 1953430 1955127 1957857 1960186 1961052 1959754 1955061 
1874.095 1945209 1929067 1906836 1879813 1850130 1818919 1785847 1748785 
1877.953 1704142 1649027 1583542 1510155 1433920 1360226 1292857 1232511 
1881.810 1177289 1123669 1068527 1011566 954181 899990 852546 814369 785921 
1886.150 766901 755118 749741 748513 749409 749641 746488 738157 726076 
1890.489 714327 709150 716517 739352 776195 821075 865361 901651 925358 
1894.829 936913 940832 943057 948735 959261 973707 989747 1005787 1022393 
1899.168 1041723 1066036 1096363 1131143 1166591 1199350 1226762 1249291 
1903.026 1270027 1291993 1317484 1347296 1380036 1414207 1448780 1483789 
1906.883 1519631 1555676 1589329 1615868 1630069 1628705 1612010 1584041 
1910.741 1551087 1519531 1493430 1473781 1459086 1447816 1439439 1435184 
1914.598 1436813 1444392 1454632 1462012 1458854 1439738 1404035 1356636 
1918.456 1306649 1262716 1230683 1210348 1197589 1186359 1172471 1154166 
1922.313 1132638 1110846 1089753 1068727 1045244 1017777 986658 956306 
1926.170 932530 920743 923067 936681 954314 967929 971083 961287 940699 
1930.510 913737 885249 858124 833225 809987 788012 768760 753956 745127 
1934.850 741841 740613 737593 729163 715256 699260 687412 685520 696870 
1939.189 719770 749077 778386 801921 816991 824892 827714 828378 828013 
1943.529 826685 824428 822602 824361 832760 850554 877114 908391 939404 
1947.868 965206 983836 996754 1007016 1017079 1027375 1035246 1036841 
1951.726 1029268 1012230 988584 963678 941363 923167 906996 888602 863867 
1956.065 831731 793987 755782 722027 696074 678087 667401 663020 665708 
1960.405 678385 703906 742405 790601 841889 888370 925823 952819 972312 
1964.745 987754 1000573 1007813 1003297 980614 938175 880368 818419 765241 
1969.084 731088 718808 723587 736929 748479 752894 749143 740215 730258 
1973.424 721894 716352 715555 724284 751135 806966 898994 1026644 1177555 
1977.763 1330744 1460981 1550654 1591524 1587300 1549225 1491569 1424845 
1981.621 1355273 1285314 1216130 1149647 1090616 1042753 1009507 989880 
1985.478 979917 974570 971316 970054 975434 992138 1022493 1064242 1111012 
1989.818 1154099 1187755 1210514 1225633 1239721 1258596 1283153 1311601 
1993.675 1338488 1358663 1370064 1373521 1371394 1366009 1358231 1346731 
1997.533 1330611 1310604 1289601 1273284 1265607 1267734 1276474 1284450 
2001.390 1283918 1269761 1241981 1204999 1165827 1129748 1098788 1071849 
2005.248 1045908 1020135 996057 978223 971083 975068 985861 993798 990942 
2009.587 970917 935021 889665 844147 806501 780344 764345 755815 753657 
2013.927 759001 777689 814336 870375 940666 1016116 1084770 1138884 1177189 
2018.266 1204932 1231780 1265341 1309009 1360026 1411382 1454432 1484853 
2022.124 1501078 1506530 1505566 1503106 1501244 1501377 1504236 1510221 
2025.981 1519265 1530770 1540679 1544835 1538484 1519731 1491037 1459951 
2029.839 1435350 1425909 1435449 1463674 1505899 1556939 1613240 1675003 
2033.696 1743795 1821148 1906236 1994836 2081323 2161168 2232901 2297350 
2037.553 2358245 2417315 2473528 2524249 2565977 2597275 2620442 2640543 
2041.411 2662079 2687383 2714589 2737262 2748132 2743097 2721924 2691784 
2045.268 2661045 2638743 2631276 2640443 2665013 2702786 2751667 2809790 
2049.126 2873158 2935068 2985242 3012634 3010131 2976868 2920090 2853080 
2052.983 2791649 2748566 2728926 2729660 2742297 2755968 2763371 2762937 
2056.841 2758436 2756002 2759970 2771407 2787047 2802687 2813726 2819161 
2060.698 2820395 2820162 2820596 2822030 2822463 2819428 2811324 2798185 
2064.555 2782478 2766472 2752134 2739630 2728560 2717890 2708388 2701253 
2068.413 2698219 2700286 2706521 2713022 2716656 2714156 2705454 2692351 
2072.270 2678782 2667613 2660345 2656112 2652344 2646810 2638810 2628609 
2076.128 2617709 2607242 2596775 2585109 2570676 2553078 2534281 2517284 
2079.985 2504753 2497722 2495122 2492990 2488291 2479293 2467530 2457667 
2083.843 2454534 2460899 2476294 2495922 2513451 2523283 2522583 2511918 
2087.700 2494722 2474328 2452202 2427744 2398624 2362709 2320401 2275100 
2091.557 2232401 2198631 2177585 2170525 2175653 2189174 2207490 2227638 
2095.415 2247588 2265607 2279563 2287591 2287691 2280063 2266640 2251385 
2099.272 2238796 2231735 2230936 2235398 2243059 2252784 2265840 2285526 
2103.130 2315271 2356879 2408919 2466597 2523683 2574643 2617275 2652845 
2106.987 2685383 2719424 2758503 2803021 2851579 2901877 2951514 2999922 
2110.844 3047101 3093217 3137803 3178855 3213736 3240808 3259803 3272522 
2114.702 3282204 3292253 3305441 3322836 3345006 3371385 3401840 3436572 
2118.559 3475014 3516299 3558289 3598379 3634028 3664802 3691501 3716632 
2122.417 3742732 3770941 3800721 3829435 3853369 3870285 3878777 3879846 
2126.274 3875300 3867176 3856846 3845213 3833045 3820944 3810849 3804632 
2130.132 3802560 3804465 3808409 3812320 3814961 3817969 3824053 3837090 
2133.989 3859353 3889876 3924781 3958149 3985135 4004630 4018843 4032487 
2137.846 4049778 4072320 4096937 4118144 4130921 4133464 4128312 4121321 
2141.704 4118244 4122760 4132929 4143299 4146510 4138381 4118512 4091753 
2145.561 4064092 4040714 4024160 4011753 3998912 3981256 3957013 3925850 
2149.419 3888304 3844043 3789892 3722112 3637737 3537945 3428123 3316025 
2153.276 3208929 3110136 3016671 2922191 2820929 2714389 2614508 2542513 
2157.134 2524316 2581509 2721791 2932999 3189502 3456076 3699421 3896295 
2160.991 4035330 4114932 4141626 4125737 4080515 4019511 3957514 3906057 
2164.848 3871589 3855275 3850829 3849124 3840533 3818972 3784477 3741095 
2168.706 3694810 3649432 3605394 3557988 3502804 3436672 3361001 3282037 
2172.563 3210064 3154056 3120148 3109235 3116577 3134432 3153289 3164069 
2176.421 3159730 3135533 3088578 3021509 2939871 2853146 2773875 2714189 
2180.278 2681449 2677681 2697952 2731727 2767939 2797685 2816927 2826599 
2184.135 2830167 2830868 2831334 2831001 2830501 2829900 2831535 2838238 
2187.993 2852779 2875193 2902911 2931431 2956318 2975133 2988011 2997119 
2191.850 3004826 3012734 3020308 3025513 3027848 3027948 3028782 3033921 
2195.708 3045566 3062417 3080035 3091682 3091515 3077533 3051438 3019106 
2199.565 2987577 2961989 2944508 2933600 2925260 2916020 2903278 2886600 
2203.423 2866488 2843708 2818728 2792516 2765938 2742030 2724625 2717657 
2207.280 2723225 2739896 2764038 2789581 2811358 2827432 2838171 2846843 
2211.137 2856782 2869723 2884932 2900042 2911917 2920290 2926761 2935235 
2214.995 2949746 2972898 3003725 3039226 3074263 3104663 3127690 3142809 
2218.852 3150452 3152054 3148382 3139872 3127790 3113874 3099958 3088612 
2222.710 3081103 3076532 3073495 3069758 3063551 3055309 3046767 3040194 
2226.567 3037391 3038392 3040828 3042696 3041762 3037891 3032319 3027181 
2230.425 3023644 3021776 3020274 3017305 3011833 3005193 2999622 2998387 
2234.282 3003125 3013501 3027548 3042096 3055509 3067789 3081170 3098456 
2238.139 3121817 3150452 3181392 3210298 3233831 3250456 3261773 3270753 
2241.997 3280434 3292754 3307177 3321868 3334822 3345374 3354022 3363238 
2245.854 3374892 3389852 3407617 3426085 3443151 3457446 3468701 3477586 
2249.712 3484800 3490144 3493151 3492950 3489677 3484600 3480725 3480492 
2253.569 3485869 3496825 3511121 3525585 3537310 3544525 3547298 3546329 
2257.427 3542588 3536074 3526186 3511455 3492316 3470104 3448194 3430160 
2261.284 3419406 3416868 3422044 3432364 3445422 3459717 3475381 3493318 
2265.141 3515029 3540918 3569747 3599347 3626811 3649599 3666473 3677099 
2268.999 3681911 3682212 3679104 3673590 3667041 3660859 3655747 3652472 
2272.856 3650501 3648095 3643818 3636233 3625241 3612444 3600216 3591262 
2276.714 3588122 3591329 3600884 3615317 3633260 3653508 3674994 3697316 
2280.571 3719505 3741061 3761148 3779864 3797780 3816265 3836154 3858351 
2284.428 3882187 3905890 3927321 3944942 3958216 3967713 3974969 3981155 
2288.286 3986806 3991354 3994130 3994698 3993595 3992792 3995066 4002657 
2292.143 4016970 4037504 4062086 4087973 4112591 4134467 4152766 4168287 
2296.001 4181536 4193747 4205289 4217133 4230282 4245673 4263942 4284688 
2299.858 4306874 4328058 4345728 4358078 4364571 4366378 4365843 4365943 
2303.716 4368788 4375884 4387196 4402359 4420735 4441790 4465759 4492541 
2307.573 4521701 4552907 4585253 4618204 4651928 4686425 4722331 4759648 
2311.430 4797939 4836066 4873024 4908376 4942458 4977078 5014249 5055513 
2315.288 5101742 5152302 5205717 5259911 5313608 5365903 5417131 5467660 
2319.145 5518061 5568937 5620592 5673159 5726370 5778782 5827607 5868276 
2323.003 5894775 5902097 5886278 5847118 5788385 5717910 5644793 5578737 
2326.860 5527222 5494336 5480511 5483229 5498497 5521416 5547928 5574979 
2330.718 5600050 5621901 5640094 5654897 5668258 5682525 5700284 5723785 
2334.575 5753666 5789124 5828144 5868276 5907169 5943983 5978280 6010464 
2338.432 6040836 6069429 6095402 6118454 6138113 6154580 6168561 6180256 
2342.290 6189499 6194675 6193431 6182340 6159218 6122419 6073427 6015503 
2346.147 5955169 5900452 5860216 5843021 5855413 5901493 5982009 6094293 
2350.005 6232421 6387505 6550449 6712275 6865815 7007319 7135699 7251584 
2353.862 7356244 7451019 7536779 7614193 7684977 7751388 7816021 7881237 
2357.719 7948184 8016931 8086059 8154017 8219925 8283749 8344915 8404062 
2361.577 8460414 8512616 8559248 8599735 8634074 8663750 8690759 8715640 
2365.434 8738696 8758507 8772910 8779740 8777948 8767162 8748027 8721386 
2369.292 8687311 8646039 8597403 8541811 8480854 8416326 8350995 8287025 
2373.149 8226070 8169041 8116914 8070328 8030938 8000730 7981358 7973798 
2377.007 7978624 7995229 8023309 8062835 8114314 8179170 8258489 8352380 
2380.864 8459670 8577396 8702252 8830154 8958026 9083297 9204102 9318408 
2384.721 9424312 9519471 9602152 9671567 9728116 9773219 9808871 9836595 
2388.579 9856728 9868455 9870116 9860456 9838561 9804905 9760749 9708125 
2392.436 9648597 9583487 9513781 9440769 9366278 9292511 9222141 9157604 
2396.294 9100722 9052475 9013265 8983497 8963472 8954340 8957012 8972470 
2400.151 9000748 9041242 9093075 9155031 9226270 9306424 9395530 9493597 
2404.009 9600594 9716697 9841814 9976561 10121525 10276953 10442890 10618228 
2407.866 10801143 10989335 11181485 11377154 11577608 11784895 12000117 
2411.241 12223827 12454132 12687186 12918419 13142945 13356278 13555460 
2414.616 13737598 13900314 14040912 14157080 14246640 14309576 14347588 
2417.992 14363718 14362862 14349231 14326423 14296837 14261225 14219865 
2421.367 14172724 14120008 14061788 13998786 13931755 13861929 13791328 
2424.742 13722996 13660726 13609440 13573133 13555425 13558399 13582637 
2428.117 13627731 13692971 13777682 13881464 14004740 14147152 14308171 
2431.493 14486996 14682207 14892525 15116598 15353008 15600572 15858071 
2434.868 16124181 16398473 16681064 16973312 17277240 17594698 17927306 
2438.243 18275444 18638732 19016344 19407970 19814032 20235954 20675140 
2441.618 21132650 21608716 22101970 22611108 23134926 23673198 24226536 
2444.994 24795386 25380086 25978836 26588696 27205446 27825302 28445618 
2448.369 29064800 29682704 30299392 30914394 31526316 32132890 32731418 
2451.744 33318930 33892332 34448560 34983848 35493540 35972776 36416500 
2455.119 36820572 37181416 37496252 37762044 37975384 38131880 38226528 
2458.495 38254460 38211908 38096792 37908992 37649612 37321092 36926544 
2461.870 36469148 35953048 35383316 34766264 34108940 33419974 32708016 
2465.245 31982352 31252380 30526620 29813992 29123048 28460936 27834344 
2468.620 27248946 26708692 26216694 25774400 25382404 25040108 24746134 
2471.996 24498038 24292686 24126314 23994738 23893412 23818328 23765442 
2475.371 23730866 23710466 23700140 23695416 23692792 23689434 23683590 
2478.746 23674458 23661650 23644228 23620716 23588636 23545294 23488838 
2482.121 23418648 23336056 23243414 23143908 23040264 22934378 22827396 
2485.497 22720128 22613692 22509372 22409474 22315600 22228824 22148936 
2488.872 22074186 22002306 21930822 21857572 21780992 21700280 21614742 
2492.247 21523648 21426066 21321510 21209674 21091256 20967204 20838458 
2495.622 20705548 20568228 20425292 20275738 20118704 19953886 19782126 
2498.998 19604644 19422384 19236010 19045630 18851250 18653328 18453178 
2502.373 18252498 18054224 17860910 17674618 17496994 17328652 17169610 
2505.748 17019932 16878744 16745213 16617749 16494278 16372563 16250882 
2509.123 16128549 16005734 15883915 15764879 15650067 15540196 15435022 
2512.499 15332757 15232265 15132038 15031078 14929114 14826556 14723646 
2515.874 14621136 14520158 14422116 14328821 14242359 14164302 14095638 
2519.249 14036395 13985338 13941506 13903769 13871782 13846262 13828132 
2522.624 13818589 13818556 13828132 13846844 13874074 13908080 13946980 
2526.000 13988281 14028900 14065827 14096699 14120247 14136507 14147392 
2529.375 14154991 14161085 14166562 14170601 14171834 14168582 14160640 
2532.750 14148933 14135617 14123431 14114326 14109123 14107035 14106864 
2536.125 14107446 14108200 14109876 14113813 14121274 14132879 14148590 
2539.500 14167315 14188712 14211820 14236744 14263622 14292043 14320979 
2542.876 14349129 14375192 14398310 14418964 14438831 14460069 14484289 
2546.251 14512450 14543970 14577514 14611095 14643103 14672439 14698933 
2549.626 14722308 14742635 14759946 14774104 14785588 14794947 14803826 
2553.001 14813082 14823813 14835573 14847881 14859334 14869071 14876751 
2556.377 14882786 14887895 14892833 14897565 14901269 14902503 14899349 
2559.752 14889679 14872226 14846099 14810923 14766699 14713877 14653418 
2563.127 14586938 14516115 14443079 14369712 14296905 14225206 14154923 
2566.502 14086020 14019592 13957040 13900245 13851256 13811303 13781136 
2569.878 13760136 13747551 13742797 13745020 13754220 13770157 13792320 
2573.253 13819924 13851325 13885192 13920533 13956835 13994304 14033520 
2576.628 14074896 14118399 14163550 14209971 14257322 14305637 14355225 
2580.003 14406394 14459624 14514917 14571997 14631245 14693243 14759089 
2583.379 14829745 14906138 14988136 15074780 15163912 15253851 15343054 
2586.754 15430971 15518149 15605243 15692972 15781578 15870305 15957985 
2590.129 16043482 16125763 16204312 16278917 16349958 16417708 16482679 
2593.504 16545940 16608590 16671905 16737225 16805000 16875024 16946474 
2596.880 17018072 17088924 17158614 17227834 17297652 17369722 17444770 
2600.255 17523488 17606050 17692390 17783062 17879138 17981832 18092946 
2603.630 18213104 18342560 18480420 18625518 18775994 18930190 19086794 
2607.005 19244460 19402496 19559652 19715652 19870320 20023866 20176804 
2610.381 20329694 20482010 20632504 20779366 20919602 21050492 21169978 
2613.756 21276864 21370826 21451932 21521004 21578246 21624144 21658796 
2617.131 21682900 21697110 21702370 21700140 21691780 21678476 21661792 
2620.506 21642984 21623274 21603982 21585732 21568984 21553384 21539074 
2623.882 21525634 21513518 21503700 21497780 21497154 21503144 21515886 
2627.257 21534860 21558990 21586814 21617666 21651344 21688506 21730306 
2630.632 21777858 21831580 21891618 21957100 22026356 22097892 22169856 
2634.007 22240822 22309878 22376820 22441958 22506372 22571354 22638298 
2637.383 22708294 22782036 22859770 22941398 23026640 23114796 23205210 
2640.758 23297146 23389554 23481248 23571074 23658468 23743500 23827288 
2644.133 23911058 23996490 24084704 24176054 24269912 24365928 24463052 
2647.508 24561460 24661572 24764726 24871728 24983496 25099960 25220386 
2650.884 25344114 25470478 25599376 25731404 25867446 26008278 26154472 
2654.259 26306136 26462992 26624910 26791294 26962324 27137936 27317852 
2657.634 27502114 27690340 27882288 28078276 28278212 28481950 28689646 
2661.009 28900590 29113622 29327396 29540852 29753098 29964134 30173960 
2664.385 30383390 30592528 30801696 31010824 31220124 31429738 31640414 
2667.760 31853546 32069922 32290652 32516174 32746352 32980870 33219196 
2671.135 33461128 33705804 33953240 34202784 34453800 34705712 34957596 
2674.510 35209044 35459096 35706740 35951032 36190492 36423776 36650160 
2677.885 36869480 37082852 37292244 37500728 37711480 37927612 38152140 
2681.261 38387748 38636448 38900264 39180444 39477788 39792292 40123452 
2684.636 40470320 40831732 41207112 41596160 41998732 42415156 42844896 
2688.011 43287208 43740708 44204332 44676976 45158288 45648748 46148720 
2691.386 46658600 47178648 47708748 48248272 48797364 49356360 49925624 
2694.762 50505804 51097264 51699496 52311724 52932972 53562272 54198904 
2698.137 54842408 55492252 56147748 56807440 57470144 58134540 58800184 
2701.512 59466624 60134120 60802304 61469840 62134268 62792024 63438700 
2704.887 64070016 64681828 65270132 65831244 66361652 66857496 67315376 
2708.263 67732408 68106824 68437848 68725368 68969392 69170608 69328656 
2711.638 69443768 69516672 69548440 69540400 69494584 69411736 69291776 
2715.013 69133504 68935256 68695176 68412984 68088920 67724824 67323616 
2718.388 66888608 66423304 65931620 65418100 64888156 64347476 63802824 
2721.764 63260392 62725872 62204848 61701260 61219348 60762592 60333992 
2725.139 59936436 59571848 59241476 58945700 58684224 58457096 58264264 
2728.514 58106588 57984488 57898728 57849208 57835164 57854964 57906564 
2731.889 57987968 58097232 58232324 58391140 58571364 58770328 58985132 
2735.265 59213220 59452680 59702072 59960056 60225232 60495752 60768536 
2738.640 61040772 61309012 61570512 61823452 62066264 62298576 62519804 
2742.015 62729964 62929696 63120200 63303860 63483836 63663764 63847116 
2745.390 64036572 64233140 64437212 64647876 64863728 65083416 65304988 
2748.766 65526440 65745504 65959848 66167088 66365628 66554756 66735000 
2752.141 66907668 67074752 67238776 67402128 67567352 67736904 67913536 
2755.516 68098720 68293608 68497704 68708752 68923136 69136840 69345448 
2758.891 69544744 69731992 69904112 70058336 70191280 70299024 70377208 
2762.267 70422256 70430784 70400984 70332168 70224624 70079640 69899056 
2765.642 69685392 69442600 69174696 68887096 68584992 68273680 67957976 
2769.017 67641992 67329688 67024760 66730788 66451184 66188968 65946236 
2772.392 65724260 65523236 65342880 65182804 65041924 64918972 64811944 
2775.768 64717712 64632148 64549796 64464956 64371952 64265372 64140216 
2779.143 63992412 63817680 63612096 63372792 63098252 62789076 62448372 
2782.518 62081704 61695532 61297028 60892984 60488556 60087884 59693824 
2785.893 59308204 58932268 58566472 58210084 57861360 57517916 57177048 
2789.269 56836444 56494712 56152084 55809832 55469776 55133972 54804440 
2792.644 54482108 54168160 53863440 53569132 53286332 53016184 52759488 
2796.019 52516064 52285188 52065748 51856352 51655680 51462560 51275788 
2799.394 51094356 50916868 50741956 50568448 50395416 50222312 50048568 
2802.770 49873964 49697460 49518796 49336576 49149976 48959264 48764668 
2806.145 48567752 48370628 48175152 47983384 47796512 47615604 47440828 
2809.520 47272516 47110136 46952920 46799956 46649712 46501068 46352768 
2812.895 46204220 46054876 45905480 45756276 45608008 45461484 45317764 
2816.271 45178032 45044480 44920044 44808536 44714468 44642564 44597104 
2819.646 44581832 44599568 44651856 44739148 44861108 45016328 45202592 
2823.021 45417188 45657032 45918444 46197256 46488640 46786564 47084472 
2826.396 47375380 47651988 47908348 48138984 48340000 48508728 48643128 
2829.771 48740980 48800928 48821316 48801036 48740756 48642348 48509468 
2833.147 48346444 48158712 47951488 47729088 47495528 47254116 47007188 
2836.522 46756712 46503536 46247596 45987872 45723180 45452104 45174392 
2839.897 44890576 44602284 44311940 44021572 43732356 43444976 43158516 
2843.272 42872176 42585364 42298740 42013296 41731612 41456048 41188972 
2846.648 40932940 40689796 40461516 40250264 40058260 39888024 39741600 
2850.023 39620272 39524564 39454272 39408336 39384864 39381748 39396220 
2853.398 39425172 39465376 39513420 39566480 39622776 39681152 39741056 
2856.773 39802496 39864452 39925328 39982216 40031372 40068832 40090672 
2860.149 40093252 40074172 40031588 39964232 39871936 39754672 39613264 
2863.524 39449228 39265160 39064204 38849964 38626636 38398968 38171096 
2866.899 37948116 37735224 37536924 37358500 37204264 37077688 36980916 
2870.274 36915004 36879004 36870344 36885460 36920088 36969188 37028648 
2873.650 37095156 37166112 37240400 37317696 37397900 37481260 37567632 
2877.025 37656372 37747332 37839936 37934196 38030096 38128080 38227972 
2880.400 38329188 38430752 38531508 38630328 38727076 38821960 38915664 
2883.775 39009248 39103428 39198428 39293740 39388676 39482032 39573196 
2887.151 39661692 39747448 39830676 39911488 39989592 40064984 40137224 
2890.526 40205700 40270112 40330244 40385984 40437768 40486212 40532152 
2893.901 40576860 40620916 40665236 40710100 40755700 40802324 40850660 
2897.276 40901916 40957696 41019128 41087048 41160628 41238008 41315692 
2900.652 41390148 41458308 41517840 41568012 41608664 41640392 41663260 
2904.027 41676536 41678976 41668912 41645168 41607244 41555796 41492248 
2907.402 41418284 41335660 41245764 41149004 41045640 40936144 40820268 
2910.777 40698748 40572060 40440496 40304284 40163536 40018036 39867904 
2914.153 39713828 39556864 39398760 39241656 39087696 38938568 38795908 
2917.528 38660572 38533064 38413920 38303420 38202680 38112960 38035664 
2920.903 37972996 37926820 37898652 37889140 37898036 37923780 37963556 
2924.278 38013424 38069084 38125368 38177280 38220484 38251600 38268392 
2927.654 38270196 38257676 38232676 38197328 38154820 38108692 38062576 
2931.029 38021744 37991832 37979180 37991040 38033680 38112348 38231048 
2934.404 38391404 38593680 38836776 39119092 39438308 39791748 40176148 
2937.779 40587264 41020004 41468920 41928476 42393716 42860728 43326416 
2941.155 43788352 44243516 44687808 45115936 45520536 45892072 46220364 
2944.530 46494132 46702360 46835608 46887468 46855208 46741432 46553988 
2947.905 46305984 46013028 45693140 45363632 45038488 44728904 44441488 
2951.280 44179168 43941828 43727516 43533716 43357168 43195592 43046916 
2954.656 42909700 42782876 42665740 42557224 42456552 42362588 42273872 
2958.031 42189440 42108788 42031872 41959024 41891260 41829044 41772792 
2961.406 41722672 41678284 41639556 41606372 41578984 41558092 41544016 
2964.781 41537052 41537272 41544380 41558676 41580516 41611328 41651808 
2968.156 41702828 41763308 41831312 41902972 41973696 42039136 42095792 
2971.532 42141792 42176736 42201456 42217740 42227676 42233916 42239324 
2974.907 42246988 42260064 42280260 42307252 42336620 42359924 42364856 
2978.282 42336364 42260104 42123904 41920816 41650204 41317768 40934944 
2981.657 40515784 40076172 39631816 39195600 38778624 38388724 38030676 
2985.033 37707216 37418668 37163872 36940832 36747760 36582784 36443488 
2988.408 36326284 36224348 36126500 36017196 35877252 35685372 35423832 
2991.783 35080500 34652452 34147220 33581928 32980726 32368216 31767766 
2995.158 31196768 30664384 30172894 29718398 29294396 28893048 28507496 
2998.534 28133280 27767334 27408896 27057560 26713944 26378448 26051690 
3001.909 25733722 25424700 25124252 24831592 24546104 24267214 23994632 
3005.284 23728626 23470196 23220450 22980594 22751342 22532928 22325016 
3008.659 22126690 21936746 21754202 21577758 21406574 21239980 21076788 
3012.035 20916646 20759068 20604188 20452140 20303860 20160108 20021818 
3015.410 19889432 19763366 19643954 19531266 19425364 19326104 19232998 
3018.785 19144792 19060170 18977020 18893262 18807202 18717562 18623686 
3022.160 18525404 18423376 18317950 18210340 18102170 17995474 17893122 
3025.536 17798388 17714030 17642178 17583346 17536872 17500030 17469468 
3028.911 17441010 17410590 17373928 17327790 17268966 17195016 17104468 
3032.286 16996536 16872510 16733885 16584115 16427033 16266327 16105784 
3035.661 15948361 15796250 15650926 15513651 15384727 15264524 15152863 
3039.037 15049293 14953393 14864511 14781679 14704245 14631280 14561718 
3042.412 14494601 14428898 14363787 14298857 14234383 14170739 14108781 
3045.787 14049126 13991908 13936682 13883379 13831177 13780076 13730315 
3049.162 13682132 13635732 13590876 13546810 13502100 13455549 13405723 
3052.538 13351938 13293992 13232433 13167536 13099814 13029507 12956890 
3055.913 12882546 12807019 12731744 12657847 12586589 12518820 12455018 
3059.288 12395078 12338999 12286096 12236233 12188829 12143747 12100407 
3062.663 12059048 12019873 11983665 11951512 11924539 11903458 11888440 
3066.039 11878428 11872061 11867429 11862628 11856533 11848327 11837907 
3069.414 11824799 11808830 11789287 11765490 11737303 11704794 11669055 
3072.789 11631922 11595235 11560560 11529017 11500607 11474784 11450595 
3076.164 11426953 11402802 11377631 11350624 11321512 11290055 11256219 
3079.540 11220040 11182233 11143476 11104451 11066042 11028792 10992802 
3082.915 10958344 10925315 10893479 10863106 10833958 10805933 10778725 
3086.290 10751858 10724992 10698231 10671913 10646581 10623117 10602269 
3089.665 10584071 10568487 10554806 10542347 10530839 10520213 10510776 
3093.041 10503274 10498319 10495942 10495841 10497232 10498930 10500321 
3096.416 10501102 10501781 10503546 10507721 10515054 10526188 10540616 
3099.791 10556945 10573988 10590284 10604884 10617481 10628177 10637514 
3103.166 10645867 10653270 10660062 10665936 10671234 10676327 10681591 
3106.542 10687839 10695174 10703597 10712529 10721087 10728593 10734570 
3109.917 10739359 10743740 10749073 10756545 10767482 10782122 10800634 
3113.292 10821865 10844965 10868678 10891883 10913730 10934252 10953519 
3116.667 10971868 10989913 11007721 11024951 11041061 11054927 11065668 
3120.042 11072670 11075695 11075254 11072602 11068761 11064818 11061828 
3123.418 11059720 11058531 11058224 11058395 11059312 11061113 11064138 
3126.793 11068863 11075559 11084431 11095240 11107544 11120666 11133822 
3130.168 11145992 11156531 11165097 11172033 11178017 11184612 11193282 
3133.543 11205080 11220721 11239727 11261252 11284137 11307534 11330558 
3136.919 11353210 11375453 11397563 11419197 11440118 11459474 11477131 
3140.294 11492917 11507411 11521498 11536366 11553346 11572810 11595372 
3143.669 11620691 11648463 11678312 11709696 11742477 11776078 11809953 
3147.044 11843560 11876590 11908600 11939353 11968916 11997630 12025902 
3150.420 12054619 12084224 12115705 12149267 12185250 12223179 12262441 
3153.795 12301980 12340873 12378407 12414342 12449154 12483355 12517968 
3157.170 12553675 12591057 12630386 12672175 12716595 12764091 12814867 
3160.545 12868996 12925827 12984543 13044257 13103980 13163608 13223483 
3163.921 13284256 13346915 13411874 13479030 13547495 13616210 13684218 
3167.296 13750765 13815990 13880368 13944243 14007648 14069763 14129661 
3170.671 14185630 14236162 14279922 14316732 14346526 14370466 14389543 
3174.046 14405298 14419376 14432426 14445169 14457877 14470140 14481925 
3177.422 14492990 14503405 14513820 14525092 14537905 14553015 14570422 
3180.797 14589987 14611232 14633953 14657942 14683509 14710860 14740441 
3184.172 14772081 14805849 14841230 14878329 14917145 14958092 15001443 
3187.547 15047234 15095260 15144664 15194690 15244997 15295379 15346453 
3190.923 15399352 15454764 15513205 15574332 15637152 15700804 15764192 
3194.298 15826970 15889002 15950458 16011406 16071882 16131334 16189935 
3197.673 16247753 16305510 16363962 16423868 16485503 16548695 16612826 
3201.048 16677206 16741632 16806688 16873302 16942408 17014972 17090612 
3204.424 17168542 17247278 17325376 17401796 17475850 17547500 17617022 
3207.799 17684488 17749994 17813542 17875376 17936008 17996544 18058264 
3211.174 18122134 18189022 18258994 18331846 18407026 18484292 18562994 
3214.549 18642778 18722958 18802600 18881080 18957082 19030434 19101060 
3217.925 19169586 19236944 19304142 19371972 19440784 19510992 19582668 
3221.300 19656088 19731846 19810112 19891098 19974596 20059952 20146608 
3224.675 20233454 20320248 20406262 20491284 20574620 20655576 20733802 
3228.050 20809016 20881776 20953120 21024652 21097760 21173596 21251776 
3231.426 21331430 21411030 21488764 21563378 21634384 21702266 21767824 
3234.801 21832416 21897088 21962640 22029808 22099112 22170692 22244832 
3238.176 22321076 22398834 22477338 22555892 22634076 22711714 22789054 
3241.551 22866302 22943808 23021502 23099142 23176444 23253622 23331164 
3244.927 23410362 23492162 23577580 23666480 23758304 23851686 23944984 
3248.302 24037424 24128450 24218584 24308632 24399644 24492638 24587616 
3251.677 24684648 24782966 24881764 24980406 25078298 25175020 25270852 
3255.052 25365928 25461028 25556638 25653678 25752884 25854222 25957870 
3258.427 26063054 26168900 26274490 26379012 26481834 26582812 26681808 
3261.803 26779276 26875636 26971312 27066870 27162554 27258542 27355114 
3265.178 27452344 27550196 27648988 27748720 27849820 27952000 28055516 
3268.553 28159654 28263748 28367088 28468932 28569348 28668620 28767454 
3271.928 28866418 28966182 29066678 29167694 29268662 29369088 29468790 
3275.304 29568162 29668122 29769492 29872836 29978548 30086558 30196550 
3278.679 30307742 30419742 30531808 30643334 30753930 30863128 30971148 
3282.054 31078336 31185588 31293970 31404446 31517622 31633142 31750656 
3285.429 31868808 31987276 32105632 32224130 32343946 32466006 32591100 
3288.805 32719556 32851014 32984768 33119988 33256288 33393566 33532314 
3292.180 33673044 33816540 33962948 34112416 34264628 34419040 34575056 
3295.555 34732200 34890264 35049284 35209656 35372140 35537124 35705084 
3298.930 35876280 36050280 36226360 36403960 36582280 36761392 36941772 
3302.306 37124788 37311816 37504304 37703420 37909500 38122296 38341164 
3305.681 38565036 38792756 39023744 39257288 39493680 39733068 39976112 
3309.056 40223656 40476392 40734920 40999572 41270288 41546932 41829484 
3312.431 42118024 42412640 42713520 43020900 43334360 43653428 43977132 
3315.807 44304712 44634996 44967852 45303092 45641096 45982272 46327032 
3319.182 46676016 47029192 47387244 47750428 48118624 48491688 48869184 
3322.557 49249388 49631260 50013024 50393112 50770592 51144636 51515160 
3325.932 51881856 52245012 52604692 52961232 53314912 53665660 54013280 
3329.308 54356628 54693448 55021204 55337124 55639000 55925332 56195864 
3332.683 56450528 56689896 56914176 57122584 57314572 57489204 57646240 
3336.058 57785808 57909100 58017088 58110640 58189852 58253916 58301740 
3339.433 58331828 58342820 58334140 58304804 58254072 58181440 58086324 
3342.809 57968392 57827784 57664780 57480016 57273816 57046064 56796072 
3346.184 56523128 56226564 55906452 55563380 55199396 54816692 54417804 
3349.559 54005364 53581616 53148240 52706548 52257268 51800728 51336572 
3352.934 50864640 50385112 49898420 49405736 48909344 48411336 47914008 
3356.310 47419428 46928624 46442248 45961056 45485400 45015888 44553452 
3359.685 44098476 43651012 43210524 42776368 42347720 41924536 41507416 
3363.060 41097720 40697148 40307232 39928960 39562888 39208620 38865328 
3366.435 38532192 38208288 37892544 37583996 37281736 36984736 36692700 
3369.811 36405580 36123980 35848676 35580456 35319552 35065232 34816664 
3373.186 34572292 34331068 34092488 33856620 33623956 33394926 33169876 
3376.561 32948374 32730062 32514032 32300326 32088582 31879254 31672630 
3379.936 31468492 31266802 31066520 30867362 30668580 30470458 30273386 
3383.312 30078108 29885436 29696008 29510138 29327894 29149198 28974080 
3386.687 28802222 28633262 28466984 28302576 28139292 27976384 27812866 
3390.062 27648000 27481430 27312594 27141884 26970220 26798694 26629102 
3393.437 26463238 26302580 26147398 25997198 25850248 25704650 25558292 
3396.813 25410262 25260912 25111228 24963350 24819032 24679740 24545648 
3400.188 24415872 24289148 24163372 24036724 23907730 23775486 23639784 
3403.563 23500940 23360184 23219330 23080308 22945032 22814546 22688986 
3406.938 22567270 22447120 22325820 22201484 22072478 21938942 21801756 
3410.313 21662802 21524242 21387570 21254140 21124370 20998292 20875344 
3413.689 20755002 20636708 20519662 20403344 20287542 20172326 20057592 
3417.064 19944068 19831822 19720888 19610676 19500422 19389470 19277158 
3420.439 19163596 19049300 18935278 18822392 18711300 18602174 18494770 
3423.814 18388602 18283080 18177930 18073186 17969192 17866226 17764044 
3427.190 17662744 17561748 17460636 17359100 17257174 17155064 17053082 
3430.565 16951470 16850532 16750379 16650731 16551552 16452292 16352987 
3433.940 16253669 16154168 16054966 15956301 15858518 15761994 15667208 
3437.315 15574332 15483743 15395781 15310755 15228868 15150222 15074369 
3440.691 15001066 14929765 14860019 14791621 14723851 14656571 14588822 
3444.066 14519268 14445957 14367040 14280777 14186589 14085541 13980034 
3447.441 13873492 13770021 13672489 13582261 13499298 13421716 13347326 
3450.816 13273631 13199608 13124538 13048969 12973823 12900123 12828416 
3454.192 12758699 12690734 12623836 12557427 12490823 12423649 12355771 
3457.567 12286982 12217455 12146984 12075264 12002330 11927365 11850438 
3460.942 11771175 11690021 11608100 11527044 11448555 11374229 11305153 
3464.317 11241257 11181382 11124168 11067639 11010202 10950699 10888417 
3467.693 10823189 10754983 10684070 10611132 10536949 10462678 10389777 
3471.068 10319535 10252526 10188852 10127427 10066891 10005686 9942998 
3474.443 9878217 9811650 9744076 9676412 9608893 9542299 9476461 9411648 
3478.301 9347826 9284489 9221667 9158213 9093278 9025951 8955828 8883551 
3482.158 8810373 8738662 8670106 8606461 8547860 8493525 8441562 8390009 
3486.015 8336910 8281047 8221444 8158203 8092000 8022972 7952166 7880428 
3489.873 7809106 7739448 7673039 7611057 7554142 7502224 7454558 7409931 
3493.730 7366590 7322983 7277629 7229955 7179624 7127481 7074906 7023718 
3497.588 6976173 6933817 6897020 6865545 6837371 6809804 6779615 6744009 
3501.445 6700902 6649153 6589604 6523438 6453516 6383335 6315991 6254640 
3505.302 6201633 6158176 6123965 6096948 6073796 6050512 6022995 5988258 
3509.160 5944957 5894238 5839025 5783013 5729862 5682055 5640597 5604850 
3513.017 5572730 5542022 5510879 5478431 5444274 5409045 5373753 5338799 
3516.875 5304854 5271515 5238649 5205918 5173325 5141103 5109721 5079515 
3520.732 5050250 5021456 4992094 4961225 4928215 4892694 4855265 4816600 
3524.590 4777403 4737941 4698215 4657956 4616831 4575039 4532918 4491235 
3528.447 4450996 4412133 4374879 4338299 4301721 4264812 4228040 4192141 
3532.304 4158118 4126305 4096803 4068608 4040179 4010248 3977979 3943705 
3536.162 3908197 3872893 3839095 3807173 3777224 3748514 3721043 3694810 
3540.019 3670215 3648362 3629885 3615284 3604058 3595004 3586385 3576228 
3543.877 3562264 3542655 3515798 3481160 3439110 3391688 3342135 3294323 
3547.734 3252091 3217842 3191705 3171812 3154090 3133664 3105965 3068223 
3551.592 3020074 2964157 2904279 2845876 2793316 2749533 2715823 2691717 
3555.449 2675648 2665379 2658112 2651511 2643043 2630843 2613842 2591675 
3559.306 2565343 2536680 2507886 2481826 2461032 2447470 2442172 2445438 
3563.164 2455967 2471162 2486924 2497722 2497088 2479027 2438773 2375236 
3567.021 2290855 2192670 2089447 1990642 1902975 1830199 1772639 1727860 
3570.879 1692866 1663894 1637785 1612542 1586835 1560331 1533629 1507029 
3574.736 1481129 1456427 1432790 1409786 1386684 1363018 1337657 1310604 
3578.594 1281724 1251617 1221114 1191808 1164963 1142007 1124400 1113072 
3582.451 1109318 1113636 1126160 1146093 1171076 1197257 1218655 1228822 
3586.308 1220981 1190745 1137887 1066999 987157 909088 842421 793290 763084 
3590.648 749641 747716 751533 755051 753724 744862 727370 702014 670122 
3594.988 634118 596723 560260 526852 498024 473743 452714 432448 409862 
3599.327 382601 349605 312268 273972 239161 212640 197324 194805 204485 
3603.667 224209 250963 281432 311803 338165 356237 362074 352623 326725 
3608.006 286040 235149 180916 129772 86256 51957 25116 2385 -20708 -46650 
3612.828 -76201 -106678 -133874 -152754 -159113 -151098 -129866 -99556 
3616.686 -66627 -39825 -27997 -37936 -72590 -129269 -199884 -273071 -338034 
3621.025 -387296 -417486 -429602 -427152 -413812 -391567 -360944 -320983 
3624.883 -270422 -210151 -144473 -81270 -32735 -13253 -34789 -102604 -210184 
3629.222 -339689 -466674 -571484 -644707 -687616 -708589 -718347 -727213 
3633.080 -741039 -761712 -786056 -808380 -822965 -826106 -818302 -803055 
3636.937 -785923 -771999 -764821 -764921 -771040 -781094 -793100 -806792 
3640.794 -821972 -838144 -852926 -861723 -858349 -837383 -795845 -734788 
3644.652 -659132 -577275 -497454 -427616 -373789 -339093 -325784 -336345 
3648.509 -373061 -438241 -530582 -643086 -762407 -871808 -957048 -1008753 
3652.367 -1025644 -1013248 -981612 -942765 -907586 -885696 -881761 -896476 
3656.224 -924184 -956321 -982571 -994637 -988554 -964520 -927160 -882853 
3660.082 -838971 -801170 -771403 -747985 -725856 -699393 -663763 -617212 
3663.939 -559968 -493052 -415831 -325155 -215152 -79812 85593 283521 516800 
3668.279 792792 1130412 1560597 2124807 2864286 3803262 4946010 6279683 
3672.136 7787414 9451164 11247412 13132700 15001341 16667601 17885354 
3675.511 18397520 18061512 16909748 15124695 12946240 10598704 8271288 
3678.886 6100073 4187892 2606375 1380368 492219 -113734 -508574 -764425 
3682.744 -936847 -1057509 -1141622 -1193767 -1217161 -1219441 -1211908 
3686.119 -1207645 -1217822 -1247988 -1297940 -1361693 -1431051 -1498912 
3689.494 -1560655 -1614301 -1659128 -1694544 -1720320 -1736623 -1744841 
3692.870 -1747547 -1747316 -1745501 -1742035 -1735699 -1724808 -1708472 
3696.245 -1687085 -1662330 -1635758 -1608986 -1582774 -1557551 -1535265 
3699.620 -1518856 -1512945 -1522124 -1547845 -1588057 -1635131 -1679493 
3702.995 -1711871 -1726426 -1722201 -1702135 -1671308 -1634272 -1594230 
3706.371 -1552302 -1508455 -1462820 -1417213 -1374707 -1339793 -1317727 
3709.746 -1312045 -1324995 -1356210 -1403639 -1462424 -1526648 -1589707 
3713.121 -1643944 -1684015 -1706624 -1710782 -1698999 -1674641 -1643086 
3716.496 -1608359 -1574158 -1542199 -1513242 -1487190 -1464240 -1444921 
3719.872 -1429598 -1418600 -1410575 -1403177 -1394094 -1380883 -1363642 
3723.247 -1344517 -1327373 -1317133 -1317628 -1330874 -1355813 -1388480 
3726.622 -1422729 -1451163 -1467542 -1467212 -1449049 -1414934 -1369983 
3729.997 -1320337 -1273130 -1233417 -1203118 -1180748 -1161813 -1142250 
3733.373 -1121628 -1104971 -1101138 -1119976 -1166869 -1239265 -1325721 
3736.748 -1410047 -1477944 -1521596 -1540119 -1537478 -1518558 -1485836 
3740.123 -1439241 -1377283 -1300682 -1214485 -1131245 -1069574 -1049246 
3743.498 -1084976 -1174602 -1295330 -1408197 -1479496 -1494785 -1460772 
3746.874 -1396274 -1323343 -1261302 -1222778 -1211908 -1226247 -1258659 
3750.249 -1302135 -1351982 -1406678 -1464372 -1520936 -1568843 -1600271 
3753.624 -1610274 -1599380 -1572771 -1538930 -1505714 -1479463 -1462952 
3756.999 -1455522 -1455555 -1461895 -1474708 -1495643 -1525525 -1562207 
3760.375 -1599743 -1630608 -1647212 -1646123 -1628628 -1600469 -1569833 
3763.750 -1543949 -1527572 -1520672 -1519747 -1518294 -1511129 -1495841 
3767.125 -1474179 -1450700 -1431348 -1421870 -1425635 -1442973 -1470778 
3770.500 -1503700 -1536256 -1563164 -1581949 -1592216 -1595253 -1593141 
3773.875 -1587925 -1581025 -1572045 -1560094 -1544081 -1523907 -1501323 
3777.251 -1479859 -1463976 -1457503 -1462126 -1475335 -1491945 -1505615 
3780.626 -1511129 -1507035 -1495610 -1481312 -1469854 -1465528 -1469490 
3784.001 -1480982 -1496832 -1513242 -1527209 -1537279 -1542760 -1543850 
3787.376 -1540416 -1532063 -1518757 -1501124 -1480982 -1461037 -1443732 
3790.752 -1430985 -1422795 -1417543 -1413250 -1407768 -1401129 -1395118 
3794.127 -1392773 -1397001 -1409122 -1426824 -1444426 -1453507 -1446011 
3797.502 -1417841 -1369488 -1307355 -1242338 -1188414 -1158542 -1162276 
3800.877 -1200706 -1264275 -1333451 -1387224 -1411235 -1401228 -1364798 
3804.253 -1314820 -1268306 -1240488 -1241842 -1275541 -1335268 -1407173 
3807.628 -1474444 -1524733 -1553226 -1561744 -1556000 -1541241 -1520209 
3811.003 -1492671 -1455984 -1407669 -1348216 -1281488 -1216038 -1162342 
3814.378 -1131642 -1130816 -1159071 -1205398 -1250763 -1276730 -1270288 
3817.754 -1229651 -1163763 -1089008 -1024851 -990571 -1000257 -1056947 
3821.129 -1149322 -1254133 -1346069 -1406744 -1430027 -1421143 -1392047 
3824.504 -1356210 -1324235 -1303225 -1294735 -1295825 -1300318 -1302631 
3827.879 -1298666 -1287633 -1271379 -1252976 -1236060 -1223109 -1214782 
3831.255 -1210388 -1207315 -1201863 -1190529 -1170703 -1141688 -1105434 
3834.630 -1065673 -1028124 -998571 -981876 -980488 -993348 -1016422 -1043726 
3838.487 -1069739 -1091222 -1107450 -1120141 -1131609 -1144464 -1160095 
3841.863 -1179459 -1202920 -1230477 -1261930 -1295528 -1329388 -1359843 
3845.238 -1382898 -1394986 -1393962 -1378670 -1349504 -1307288 -1252117 
3848.613 -1183590 -1100774 -1004819 -898923 -791579 -696746 -632300 -618238 
3852.470 -668627 -784269 -944848 -1115712 -1261203 -1359315 -1407470 
3855.846 -1415727 -1399709 -1372427 -1343328 -1316571 -1292489 -1268934 
3859.221 -1243527 -1214782 -1182731 -1148958 -1116076 -1087157 -1065144 
3862.596 -1052551 -1051130 -1060947 -1079919 -1102129 -1119976 -1124801 
3865.971 -1110127 -1074796 -1023727 -967363 -918596 -891384 -895451 -932185 
3869.829 -992125 -1057245 -1110226 -1139342 -1143671 -1131510 -1116010 
3873.204 -1109698 -1120405 -1148595 -1187159 -1224034 -1247162 -1248615 
3876.579 -1227172 -1187225 -1136566 -1084910 -1041842 -1014207 -1005182 
3879.955 -1013480 -1033545 -1056815 -1074168 -1079555 -1070268 -1048882 
3883.330 -1021711 -998604 -989315 -1000852 -1034008 -1081605 -1130320 
3886.705 -1165019 -1175428 -1159236 -1121893 -1074333 -1029545 -1000389 
3890.080 -994373 -1013447 -1052022 -1100113 -1146017 -1181012 -1201367 
3893.456 -1207149 -1201004 -1185308 -1161384 -1129692 -1089933 -1042470 
3896.831 -989480 -934500 -882522 -839037 -807619 -789925 -784633 -788437 
3900.688 -797168 -808016 -819459 -832787 -850413 -874751 -907321 -947262 
3904.546 -991430 -1034867 -1073044 -1102360 -1121595 -1131510 -1134352 
3907.921 -1132964 -1129758 -1126552 -1123842 -1121595 -1118753 -1114357 
3911.296 -1107285 -1096478 -1080580 -1058732 -1030371 -996290 -958536 
3914.671 -921275 -889268 -867311 -858779 -864037 -880571 -903354 -927226 
3918.529 -947328 -961478 -968752 -970041 -966537 -958734 -947427 -933839 
3922.386 -920084 -909404 -905999 -912777 -931094 -959263 -992587 -1024587 
3926.244 -1049609 -1063426 -1064583 -1053973 -1033842 -1007496 -977546 
3929.619 -947163 -919225 -897071 -884241 -883415 -895980 -919985 -951362 
3933.476 -984719 -1014174 -1035859 -1048618 -1053741 -1053873 -1051989 
3936.852 -1050072 -1048056 -1044949 -1039098 -1029413 -1016124 -1001216 
3940.227 -987199 -977645 -975066 -980785 -994538 -1014207 -1036487 -1057278 
3944.084 -1072978 -1080679 -1079456 -1069739 -1053741 -1034603 -1015860 
3947.459 -1000389 -989678 -983728 -981480 -981215 -981843 -982769 -984521 
3951.317 -987662 -992984 -1000422 -1009612 -1019265 -1028619 -1036883 
3954.692 -1043594 -1048254 -1050568 -1049973 -1045874 -1038239 -1027595 
3958.067 -1015100 -1002604 -991959 -984521 -981050 -981215 -984686 -990571 
3961.925 -998141 -1006769 -1016223 -1025413 -1033280 -1038404 -1039627 
3965.300 -1036057 -1028157 -1016918 -1003695 -990306 -978537 -969347 -963396 
3969.157 -960751 -961544 -964983 -970471 -976719 -982042 -985182 -984819 
3973.015 -980488 -972289 -961082 -948518 -935690 -924217 -915092 -908942 
3976.872 -906164 -906197 -908677 -912347 -915588 -917406 -916646 -913174 
3980.730 -908049 -902692 -898923 -897931 -900576 -906197 -913604 -921440 
3984.587 -928615 -934301 -938335 -940650 -941377 -940650 -938864 -936054 
3988.445 -933177 -930896 -929904 -930466 -932252 -934202 -935095 -934301 
3992.302 -931458 -927391 -923060 -919787 -918431 -918960 -920878 -923556 
3996.159 -926003 -928020 -929540 -930995 -932483 -934467 -937145 -940914 
4000.017 -946435 -954106 
##END=
