
##TITLE=Z408_3_d
##JCAMP-DX=5.01  $$ Nicolet v. 1
##DATATYPE=INFRARED SPECTRUM
##ORIGIN=UniL
##OWNER=Nicolet
##LONGDATE=2011/09/16
##TIME=11:03:57
##SPECTROMETER/DATA SYSTEM=Nicolet iS5
##DATA PROCESSING=
Ratio against background
%Transmittance->Absorbance
Truncated
ElementMultiply or ElementDivide
##COMMENTS=
Number of sample scans: 32
Collection length: 51.14 sec
Sample gain: 2.0
Background collected on: Ven Sep 16 11:02:21 2011 (GMT+02:00);
Number of background scans: 32
Background gain: 2.0
Sample spacing:  1.000
Number of scan points: 12415
Resolution points: 8192
Number of FFT points: 65536
Apodization: N-B fort;
Phase correction: Mertz;
Laser frequency: 15798.0 cm-1
Number of rejected sample scans: 0
Number of rejected background scans: 0
Bench serial number: ASB1000141;
##RESOLUTION=4.000
##XUNITS=1/CM
##YUNITS=ABSORBANCE
##FIRSTX=649.893372
##LASTX=4000.122314
##FIRSTY=0.091762
##MAXX=4000.122314
##MINX=649.893372
##MAXY=0.312974
##MINY=0.001107
##XFACTOR=1.000000
##YFACTOR=1.000000E-009
##NPOINTS=6950
##DELTAX=0.482117
##ZPD=6100
##XYDATA=(X++(Y..Y))
649.893 91762488 92165264 92689600 93377384 94230504 95213512 96272736 
653.268 97369168 98498584 99693056 100999224 102453696 104060944 105795344 
656.643 107618112 109505824 111467304 113540608 115772152 118187864 
659.536 120781072 123515296 126354632 129287304 132339520 135558160 
662.428 138982080 142601984 146354400 150127456 153809680 157321312 
665.321 160610048 163643632 166363360 168637920 170267232 171049200 
668.214 170893552 169883408 168215088 166069392 163539808 160637536 
671.107 157342352 153654976 149639728 145426000 141166416 137012384 
673.999 133060712 129345536 125863936 122601048 119555536 116743376 
676.892 114184440 111883416 109820256 107954592 106238224 104632136 
679.785 103118736 101695784 100366896 99127408 97958808 96832192 95723160 
683.159 94620536 93536272 92496608 91533104 90666272 89898112 89212632 
686.534 88586216 87998640 87438360 86903688 86395544 85906664 85418240 
689.909 84900152 84317936 83644856 82869240 81993936 81033104 80004152 
693.284 78922192 77797336 76639496 75462184 74284208 73129648 72020816 
696.659 70972464 69990368 69071232 68208464 67396624 66635712 65929072 
700.034 65281496 64694100 64162308 63676312 63225588 62801212 62399976 
703.408 62022920 61673800 61354572 61063840 60795560 60540852 60292000 
706.783 60043752 59794464 59546080 59302356 59066744 58843248 58636548 
710.158 58454516 58307836 58212392 58184508 58238232 58380112 58602380 
713.533 58880472 59168340 59408188 59534680 59486760 59225412 58738652 
716.908 58049360 57209476 56299204 55414964 54650984 54101204 53843260 
720.282 53927512 54372700 55149736 56178176 57315140 58378672 59174152 
723.657 59518032 59295024 58478136 57143296 55444852 53583452 51762164 
727.032 50126876 48760036 47674952 46836276 46184764 45662588 45230024 
730.407 44862064 44545336 44269932 44023152 43791648 43566204 43344720 
733.782 43132828 42939984 42772892 42630720 42504676 42381728 42251812 
737.156 42112296 41968620 41831016 41708484 41603964 41514380 41431952 
740.531 41350564 41269232 41192936 41129192 41082460 41052048 41030852 
743.906 41009840 40982276 40948268 40913900 40888340 40877744 40881388 
747.281 40891144 40895476 40884516 40854520 40808584 40754824 40701148 
750.656 40652244 40607892 40566348 40527424 40494760 40475848 40477668 
754.031 40503308 40548668 40604944 40661488 40712212 40758792 40810440 
757.405 40878656 40972004 41092800 41235820 41392880 41557616 41729784 
760.780 41915412 42123428 42361020 42630904 42931244 43259572 43618628 
764.155 44020548 44485648 45043412 45726824 46566052 47589536 48815720 
767.530 50247756 51863224 53606916 55392340 57105468 58642464 59943660 
770.905 61030892 62021084 63109288 64521232 66414156 68808712 71524280 
774.279 74206408 76358496 77469256 77185104 75381456 72230024 68120968 
777.654 63591728 59170808 55253728 52092008 49755604 48181040 47222456 
781.029 46716420 46522272 46531748 46680000 46931024 47263836 47668772 
784.404 48142720 48689380 49317012 50035740 50852868 51770936 52789192 
787.779 53909016 55138108 56496264 58013232 59722448 61658412 63850916 
791.154 66323436 69099904 72206120 75670264 79520368 83770736 88410000 
794.528 93383088 98590592 103881736 109052800 113879760 118117712 121526520 
797.903 123920328 125182760 125305968 124394752 122666832 120414888 
800.796 117938096 115523752 113379640 111602616 110178176 108984440 
803.689 107835224 106509936 104827768 102690904 100108928 97200320 94159544 
807.063 91213360 88542136 86247408 84326264 82684216 81164328 79595696 
810.438 77851480 75864432 73641880 71245312 68768952 66307800 63935092 
813.813 61703248 59640644 57759316 56064536 54556824 53233292 52087264 
817.188 51108068 50282464 49596940 49041788 48610812 48300744 48109296 
820.563 48032460 48064472 48200360 48438192 48782276 49243412 49837652 
823.938 50582036 51489308 52564640 53802044 55182692 56670416 58212316 
827.312 59739860 61165104 62396612 63352464 63972256 64239664 64187460 
830.687 63901008 63496260 63110240 62880404 62913916 63283660 64010420 
834.062 65057276 66324324 67653064 68855728 69718648 70051288 69728960 
837.437 68707784 67045292 64880192 62413940 59856332 57389400 55155940 
840.812 53234344 51651092 50393672 49427492 48708804 48192328 47838796 
844.186 47612200 47480856 47421276 47416808 47459456 47548540 47686300 
847.561 47874348 48111036 48391000 48707840 49057184 49438816 49855788 
850.936 50312448 50811040 51349776 51923152 52524776 53151124 53803316 
854.311 54487516 55212000 55985184 56813900 57703380 58660480 59696332 
857.686 60826964 62073792 63461400 65013252 66753544 68706352 70895064 
861.060 73344024 76070304 79072464 82314608 85715176 89142120 92405520 
864.435 95293104 97589336 99099800 99697480 99330432 98036160 95929320 
867.810 93193000 90053048 86729160 83430920 80326064 77522952 75085632 
871.185 73033272 71355344 70023336 69002480 68258632 67758288 67470696 
874.560 67367608 67421120 67608240 67912368 68324280 68842992 69472424 
877.935 70216912 71076536 72043296 73099528 74220048 75372984 76522744 
881.309 77636608 78683872 79641752 80498720 81255216 81923752 82523872 
884.684 83079096 83608832 84124936 84633488 85137712 85644264 86168608 
888.059 86734456 87370440 88103336 88948760 89906912 90961216 92084528 
891.434 93242896 94402056 95533248 96609880 97606304 98498296 99259888 
894.809 99866832 100301232 100551088 100612992 100490368 100193808 99740624 
898.183 99156088 98477888 97751192 97026416 96354216 95773312 95307136 
901.558 94961880 94729024 94592600 94535712 94547488 94624120 94767552 
904.933 94982168 95272512 95642872 96097416 96643320 97290808 98050992 
908.308 98934160 99945736 101085192 102347616 103727648 105222496 106834872 
911.683 108571352 110439968 112446632 114594416 116885080 119324280 
914.575 121925184 124712160 127718464 130978328 134522160 138367728 
917.468 142516352 146948848 151622832 156472512 161391984 166235952 
920.361 170825392 174940928 178370112 180943648 182571696 183286128 
923.254 183249440 182757040 182171776 181899040 182334416 183776608 
926.146 186415152 190281888 195247600 201007504 207102992 213005136 
929.039 218108816 221840496 223749024 223511760 221001232 216280832 
931.932 209593568 201324672 191949856 182021248 172066064 162550992 
934.824 153867616 146268272 139893440 134787392 130919424 128221752 
937.717 126613112 126018080 126359728 127545400 129456104 131912424 
940.610 134674608 137472496 140001456 141985648 143225200 143607696 
943.502 143138256 141923216 140157680 138072960 135898544 133841472 
946.395 132043080 130582408 129481808 128720952 128256112 128037376 
949.288 128023448 128181784 128487584 128921224 129461232 130085456 
952.181 130774272 131512288 132292032 133112792 133976504 134883248 
955.073 135828240 136802016 137793920 138797072 139810240 140837760 
957.966 141885504 142956688 144048624 145153360 146261584 147367920 
960.859 148473728 149586416 150715360 151866912 153040608 154229952 
963.751 155425408 156620128 157813488 159010064 160216480 161436400 
966.644 162667776 163903792 165137456 166366320 167595424 168836160 
969.537 170101840 171400816 172734112 174095552 175477456 176875808 
972.429 178294336 179742768 181232752 182771408 184357600 185982960 
975.322 187636976 189313232 191012928 192743472 194513008 196323904 
978.215 198168176 200030096 201888448 203726768 205535616 207311680 
981.108 209053280 210754288 212400352 213973056 215455856 216842016 
984.000 218138864 219365776 220547312 221703008 222844544 223975248 
986.893 225096144 226212560 227337568 228489040 229684192 230931472 
989.786 232227712 233560400 234915488 236285408 237672624 239086928 
992.678 240538352 242029392 243551712 245089152 246624720 248150752 
995.571 249671408 251200192 252750576 254328048 255925712 257528208 
998.464 259119120 260691680 262251680 263816032 265403088 267022464 
1001.356 268672096 270340480 272015712 273694336 275384992 277104864 
1004.249 278870944 280689728 282552736 284440704 286334240 288222624 
1007.142 290108704 292004224 293919680 295853632 297788992 299694688 
1010.035 301537408 303293184 304949216 306501344 307944032 309259040 
1012.927 310415104 311376064 312110944 312609888 312886592 312974016 
1015.820 312908128 312715744 312409472 311989600 311455680 310816288 
1018.713 310091424 309308768 308493344 307657312 306800768 305918944 
1021.605 305015104 304111392 303250304 302482976 301860000 301412928 
1024.498 301149472 301056448 301109984 301286240 301562112 301914112 
1027.391 302308192 302688480 302981792 303102688 302963840 302497248 
1030.284 301654144 300403744 298728224 296613344 294050112 291041792 
1033.177 287613472 283817792 279725856 275420896 270977280 266445392 
1036.070 261854000 257212544 252523488 247793968 243040480 238287296 
1038.963 233565680 228906448 224342048 219910240 215650976 211606160 
1041.856 207810240 204273696 200973936 197848576 194809168 191750000 
1044.750 188574672 185222448 181671936 177947440 174104112 170220480 
1047.643 166378480 162651296 159104448 155786064 152726240 149938928 
1050.536 147418960 145146176 143087680 141207824 139473136 137857088 
1053.429 136343392 134921648 133583576 132319392 131115168 129954400 
1056.322 128822176 127706720 126600608 125499504 124398064 123288568 
1059.215 122160672 121004120 119813224 118590016 117345016 116094048 
1062.108 114854184 113640752 112464360 111332328 110250896 109226392 
1065.001 108265176 107370488 106539024 105758064 105005216 104254712 
1067.894 103480872 102665344 101801656 100894584 99957872 99009648 98070136 
1071.269 97159088 96294072 95492616 94769992 94137072 93600136 93157768 
1074.645 92802448 92521128 92299536 92123072 91977264 91847264 91715224 
1078.020 91558344 91353064 91076688 90714528 90264688 89740136 89166208 
1081.395 88574192 87999048 87472600 87020672 86666944 86431856 86334064 
1084.770 86392152 86621352 87033224 87635672 88432336 89424392 90609120 
1088.146 91978736 93513792 95176056 96909016 98632872 100252360 101677232 
1091.521 102828304 103656464 104150384 104336152 104271608 104031096 
1094.414 103702400 103369672 103104528 102968008 103001608 103228952 
1097.307 103657592 104278512 105067584 105982744 106968336 107950424 
1100.200 108836016 109527152 109920496 109923528 109475264 108551864 
1103.093 107175576 105407824 103342808 101089664 98750232 96420320 94174528 
1106.468 92063960 90122640 88365280 86791472 85388432 84133864 83000552 
1109.844 81957768 80978560 80039880 79123704 78217624 77312248 76400256 
1113.219 75477128 74540928 73594776 72645856 71706208 70789480 69908072 
1116.594 69071968 68287400 67557096 66882580 66264884 65705180 65204912 
1119.969 64764172 64381672 64053616 63774736 63537948 63333452 63148716 
1123.344 62964856 62755652 62490112 62134004 61655892 61035888 60268476 
1126.720 59366060 58354604 57271736 56158416 55050652 53979812 52966620 
1130.095 52021900 51148664 50343068 49596752 48898072 48235316 47598080 
1133.470 46979280 46376252 45790884 45228404 44694308 44193620 43728984 
1136.845 43300752 42908456 42552288 42233956 41957164 41726140 41544312 
1140.221 41412964 41331104 41296196 41305308 41356400 41448756 41582012 
1143.596 41755648 41967528 42213652 42488780 42787632 43104908 43436260 
1146.971 43776588 44120040 44459548 44786716 45094248 45376912 45633180 
1150.346 45864856 46076244 46272736 46459576 46640820 46820848 47003348 
1153.722 47192760 47393156 47607584 47836688 48078240 48327888 48579792 
1157.097 48827508 49065532 49288320 49489796 49663240 49800528 49892732 
1160.472 49932724 49914812 49835608 49693892 49488904 49219696 48885316 
1163.847 48485128 48020428 47495420 46917664 46296880 45643524 44968216 
1167.223 44279760 43586024 42894776 42213468 41550108 40912984 40309084 
1170.598 39743928 39221132 38742688 38310476 37926564 37594004 37316328 
1173.973 37097288 36938812 36841960 36806940 36834168 36925752 37085808 
1177.348 37320080 37634728 38035160 38525244 39108180 39787536 40568600 
1180.724 41459732 42470292 43610496 44889328 46312176 47882488 49601288 
1184.099 51468716 53482024 55633424 57907356 60274372 62689996 65098852 
1187.474 67430720 69610984 71566736 73225096 74523704 75414448 75865344 
1190.849 75868224 75439440 74621664 73474600 72071344 70491816 68806848 
1194.225 67079284 65357940 63672744 62039204 60459304 58926688 57430392 
1197.600 55961136 54514976 53095596 51714276 50387608 49135096 47974468 
1200.975 46918736 45975128 45145164 44425080 43807736 43284716 42846212 
1204.350 42480632 42175384 41915452 41684120 41466292 41248172 41019856 
1207.726 40776408 40516404 40240992 39953080 39655920 39354316 39054268 
1211.101 38764932 38497328 38263724 38077116 37948332 37885744 37896156 
1214.476 37984420 38155036 38412108 38759316 39198428 39729004 40348060 
1217.851 41051428 41834920 42696228 43635664 44655232 45757304 46943948 
1221.227 48215916 49573576 51018888 52556076 54191768 55934000 57789252 
1224.602 59759824 61841832 64024784 66291472 68616000 70965832 73299232 
1227.977 75563080 77699728 79647008 81344392 82744024 83811160 84529216 
1231.352 84900552 84947368 84712408 84255744 83661296 83029024 82463696 
1234.728 82078424 81976216 82242608 82949328 84146608 85866480 88127408 
1238.103 90932984 94271664 98110296 102395096 107044304 111946184 116976552 
1241.478 121992664 126843784 131388608 135484544 138999360 141825072 
1244.371 143875216 145099888 145488944 145069120 143898608 142054592 
1247.264 139634976 136745920 133496600 130000960 126355784 122631856 
1250.157 118864472 115046400 111134008 107060032 102761928 98197728 93365584 
1253.532 88308144 83111272 77891880 72770696 67869952 63290060 59096428 
1256.908 55325116 51977748 49030996 46442800 44163136 42142484 40332824 
1260.283 38695780 37202640 35832196 34571324 33411778 32346480 31368688 
1263.658 30470742 29643540 28879308 28171638 27516306 26911802 26357216 
1267.033 25851198 25391222 24973668 24594946 24253024 23947818 23681002 
1270.409 23454844 23270472 23127134 23022376 22953380 22918622 22918902 
1273.784 22957398 23037994 23164456 23337806 23556450 23814966 24104632 
1277.159 24414154 24727860 25026700 25290342 25497674 25632202 25685596 
1280.534 25658986 25562824 25412440 25224706 25012450 24781950 24534218 
1283.910 24266758 23978454 23671588 23353154 23033870 22726030 22440386 
1287.285 22185128 21966300 21787472 21650926 21558014 21507668 21496282 
1290.660 21517172 21562404 21624108 21696832 21779182 21872696 21980904 
1294.035 22106606 22251212 22414812 22597006 22799076 23024578 23278792 
1297.411 23568030 23897264 24269702 24686754 25149250 25658424 26214934 
1300.786 26817726 27460638 28129746 28804310 29456486 30056198 30577418 
1304.161 30999152 31309638 31506612 31595904 31590272 31508036 31373068 
1307.536 31211150 31048084 30907776 30806746 30753468 30747670 30782844 
1310.912 30848864 30934960 31033208 31137104 31241448 31340692 31428240 
1314.287 31496604 31539496 31552326 31533688 31484418 31406298 31301734 
1317.662 31172416 31021108 30851782 30670750 30486418 30306640 30137450 
1321.037 29981744 29839190 29708320 29589548 29486556 29407412 29363520 
1324.413 29366038 29424858 29546952 29736564 29996724 30330020 30737000 
1327.788 31213964 31749480 32324136 32908450 33469930 33978572 34410360 
1331.163 34753736 35008412 35184292 35295868 35360132 35394244 35412936 
1334.538 35429944 35457696 35506340 35583764 35695156 35843424 36031484 
1337.914 36264148 36549300 36898048 37321888 37827792 38417140 39083488 
1341.289 39814552 40593740 41402756 42221172 43023608 43782564 44467696 
1344.664 45048964 45505116 45824796 46008980 46067808 46014760 45861472 
1348.039 45612352 45264552 44810372 44242304 43557596 42762548 41872172 
1351.415 40911168 39909020 38896816 37906820 36968432 36106876 35344064 
1354.790 34694336 34164680 33753036 33450748 33244948 33122420 33073504 
1358.165 33092384 33175706 33320398 33520646 33768224 34054860 34375468 
1361.540 34732200 35134496 35597288 36134420 36752776 37450556 38217588 
1364.916 39039188 39897720 40774336 41646776 42483264 43245112 43885116 
1368.291 44353112 44606468 44614548 44363060 43854396 43105312 42144528 
1371.666 41007400 39741204 38403604 37057336 35773440 34617288 33635772 
1375.041 32852266 32264098 31851050 31587138 31453568 31445660 31574770 
1378.417 31864848 32349478 33069820 34067328 35383316 37049072 39070256 
1381.792 41407060 43953704 46548384 48966828 50959644 52302452 52800868 
1385.167 52334184 50875852 48517288 45472372 42039612 38565796 35342016 
1388.542 32552530 30271220 28475724 27092684 26029880 25205358 24552624 
1391.917 24021806 23581008 23209336 22895640 22637670 22437594 22299414 
1395.293 22225370 22212888 22255190 22343190 22466346 22614318 22778090 
1398.668 22948348 23118362 23283616 23442568 23595352 23742554 23883122 
1402.043 24014524 24133354 24237188 24326854 24407284 24486714 24572330 
1405.418 24668376 24773916 24884010 24993602 25100908 25209642 25328168 
1408.794 25466510 25632062 25827566 26050320 26294518 26555478 26832352 
1412.169 27128906 27451180 27803788 28187372 28598154 29030722 29481238 
1415.544 29950396 30444976 30975666 31554748 32191548 32889936 33645472 
1418.919 34443900 35264568 36082572 36872908 37613120 38285980 38883556 
1422.295 39409248 39884172 40346496 40849900 41447008 42176440 43055036 
1425.670 44077572 45228884 46494280 47867652 49346784 50924360 52581132 
1429.045 54278416 55964376 57589980 59119588 60542640 61870864 63132660 
1432.420 64362152 65591596 66853016 68181600 69622376 71235288 73088008 
1435.796 75238528 77711736 80475072 83448352 86536624 89658784 92753384 
1439.171 95760048 98606720 101180880 103334352 104917408 105786680 105843672 
1442.546 105050744 103425208 101033552 97973632 94376240 90384824 86139640 
1445.921 81786448 77458720 73283224 69389728 65890820 62866844 60345488 
1449.297 58297720 56652672 55325568 54251196 53396700 52764764 52377208 
1452.672 52256780 52406964 52810408 53430984 54227880 55169372 56228144 
1456.047 57381876 58603748 59860784 61118380 62350860 63551792 64726100 
1459.422 65882140 67027040 68163808 69289752 70393696 71458536 72452728 
1462.798 73326920 74023232 74478856 74650976 74536008 74177208 73650088 
1466.173 73029944 72377416 71726568 71089688 70469168 69861336 69255832 
1469.548 68632376 67955568 67178208 66250444 65146736 63889912 62565380 
1472.923 61293520 60188884 59320512 58701100 58308672 58112420 58093936 
1476.299 58252516 58600944 59151024 59905816 60854332 61977176 63252612 
1479.674 64666608 66217600 67914464 69772848 71807208 74027600 76438024 
1483.049 79042416 81850976 84884680 88171728 91733512 95569328 99628576 
1486.424 103788488 107862536 111587632 114650632 116742728 117578416 
1489.317 116968872 114879352 111456856 107010512 101919456 96558888 91203224 
1492.693 86002536 81023160 76264064 71705896 67354880 63252724 59485280 
1496.068 56164524 53388420 51209392 49620116 48572460 47997224 47826888 
1499.443 48008736 48498648 49257444 50247120 51422984 52734940 54132392 
1502.818 55550876 56915420 58134616 59074868 59561812 59386228 58345696 
1506.194 56349108 53506724 50125092 46560036 43070076 39764948 36647744 
1509.569 33685180 30854058 28153396 25612168 23272288 21165804 19310204 
1512.944 17699708 16312012 15116873 14083693 13184920 12394226 11688966 
1516.319 11053432 10480362 9973374 9541994 9192630 8921159 8709758 8527517 
1520.177 8342179 8131194 7895577 7662281 7469794 7344382 7286423 7273990 
1524.034 7275068 7263444 7225238 7164870 7099189 7048974 7026075 7028971 
1527.892 7045472 7062647 7073963 7082349 7096393 7123540 7163354 7205732 
1531.749 7233256 7228809 7186564 7118218 7051231 7013750 7021058 7069080 
1535.606 7140752 7214626 7273821 7310380 7323859 7318603 7298991 7264724 
1539.464 7210954 7134723 7042812 6953311 6886888 6856120 6857500 6874701 
1543.321 6885878 6874802 6836631 6782105 6729269 6696561 6691783 6710223 
1547.179 6738153 6760162 6766960 6758547 6743571 6734048 6738187 6755249 
1551.036 6775643 6786379 6777730 6747677 6703325 6657160 6621632 6604037 
1554.894 6603364 6612178 6620084 6618066 6597948 6551895 6472652 6356739 
1558.751 6214304 6071276 5961484 5907908 5913618 5966187 6045774 6131761 
1562.608 6205800 6256791 6282608 6290306 6293702 6306409 6336197 6381016 
1566.466 6431052 6473324 6498683 6504536 6496329 6484255 6480051 6491721 
1570.323 6521521 6568378 6630547 6707867 6800380 6906211 7020216 7132230 
1574.181 7230561 7305933 7358030 7398843 7450277 7535464 7665485 7837444 
1578.038 8039679 8260751 8494708 8742651 9010830 9306762 9635452 9997922 
1581.896 10390931 10809262 11247548 11699518 12155537 12601733 13016328 
1585.271 13374968 13656350 13846570 13945680 13967613 13940138 13897542 
1588.646 13877392 13916906 14046525 14290194 14664043 15171769 15802057 
1592.021 16523397 17286584 18023656 18657686 19119756 19353436 19329118 
1595.396 19048090 18542210 17867088 17087234 16272519 15482370 14761934 
1598.772 14144927 13650571 13286955 13053033 12941495 12941836 13043949 
1602.147 13241349 13530369 13907635 14367315 14897394 15478661 16087733 
1605.522 16696248 17273446 17789104 18210616 18506940 18652808 18630086 
1608.897 18433368 18070250 17562612 16942924 16251503 15534255 14832282 
1612.273 14177209 13588654 13070412 12615412 12209105 11834979 11478628 
1615.648 11131850 10798154 10491292 10231459 10035559 9911200 9854388 
1619.023 9852558 9887607 9941303 9997685 10045494 10080863 10108231 10138755 
1622.881 10185630 10258226 10358896 10483078 10623083 10771966 10926675 
1626.256 11086131 11249962 11415863 11579344 11734204 11876215 12004919 
1629.631 12124019 12239232 12355429 12473500 12590136 12697626 12785384 
1633.006 12843091 12860701 12831283 12752967 12632330 12485128 12334022 
1636.382 12201403 12100748 12033669 11992214 11963262 11932167 11885852 
1639.757 11817035 11724708 11615348 11499450 11387970 11287606 11197736 
1643.132 11111590 11017780 10904012 10760281 10582204 10372911 10144928 
1646.507 9917505 9712428 9549073 9438127 9381175 9371865 9398544 9444933 
1650.365 9489668 9508024 9469552 9346981 9130836 8850613 8573307 8364877 
1654.222 8253930 8225429 8246163 8284425 8320022 8343496 8352684 8350184 
1658.080 8339713 8324007 8303743 8277400 8242212 8195073 8134030 8058278 
1661.937 7970019 7874523 7780634 7698603 7637731 7603437 7595681 7608933 
1665.794 7633279 7657222 7668520 7657222 7618038 7551445 7464401 7368477 
1669.652 7277157 7201117 7147051 7116298 7106464 7110977 7120307 7122799 
1673.509 7105655 7058572 6978260 6873759 6764470 6671729 6610496 6582204 
1677.367 6577528 6581497 6580992 6569622 6548800 6526566 6512742 6512843 
1681.224 6523438 6532251 6518998 6463269 6352604 6194171 6016545 5859914 
1685.082 5754069 5704380 5697397 5712169 5732044 5745474 5747320 5736644 
1688.939 5715224 5686352 5654696 5626667 5609213 5608038 5625459 5658489 
1692.796 5698337 5730802 5740303 5714452 5651104 5562460 5475143 5417903 
1696.654 5405624 5433671 5481451 5523296 5532994 5492659 5400893 5278592 
1700.511 5164238 5092322 5077370 5110995 5173325 5242639 5302506 5342153 
1704.369 5356947 5348862 5326086 5300594 5282616 5278424 5288386 5308979 
1708.226 5334606 5360737 5385159 5408576 5433638 5462996 5498296 5538230 
1712.083 5579912 5619518 5654226 5683364 5708341 5731372 5752894 5770085 
1715.941 5777002 5767466 5738725 5695819 5651574 5622236 5618913 5644324 
1719.798 5692663 5754170 5818372 5877042 5926953 5967967 6003140 6036266 
1723.656 6070403 6107163 6146683 6188424 6231883 6276321 6320428 6361413 
1727.513 6395441 6419215 6430816 6432161 6428328 6425301 6427050 6431825 
1731.371 6431287 6410404 6351360 6241295 6079744 5887487 5700250 5555781 
1735.228 5473465 5449474 5464841 5496551 5525813 5538968 5529806 5499303 
1739.085 5454507 5406160 5364595 5337088 5325650 5328736 5342656 5363588 
1742.943 5388682 5415890 5444911 5476082 5510343 5548230 5589343 5631702 
1746.800 5672924 5709516 5738322 5757461 5765619 5762631 5748596 5724926 
1750.658 5694039 5660872 5632306 5614617 5612033 5624620 5647747 5673293 
1754.515 5691220 5692697 5672555 5632038 5578469 5523095 5476284 5442864 
1758.373 5420654 5402537 5379188 5342891 5289928 5222182 5146199 5071469 
1762.230 5006775 4958008 4927377 4912799 4910688 4915849 4922887 4926036 
1766.087 4920641 4904589 4879357 4850339 4825412 4810804 4808492 4814154 
1769.945 4818476 4810938 4783768 4735596 4675205 4617702 4578857 4567740 
1773.802 4583846 4619410 4664688 4711546 4756432 4798977 4840791 4882674 
1777.660 4923322 4959047 4986094 5002417 5009355 5011031 5013881 5022696 
1781.517 5038987 5060541 5082533 5100032 5110593 5114214 5113543 5112906 
1785.375 5115924 5124506 5139091 5159142 5184055 5212793 5244115 5275305 
1789.232 5301500 5317231 5316627 5296200 5256423 5203102 5145562 5093897 
1793.089 5055278 5032148 5022092 5020886 5023902 5027925 5030942 5031646 
1796.947 5029065 5021925 5009221 4990686 4967057 4940380 4913604 4889778 
1800.804 4870913 4858481 4852685 4853020 4859152 4870712 4886796 4906231 
1804.662 4927511 4948792 4968766 4987468 5005333 5023165 5041300 5058932 
1808.519 5074084 5084913 5090142 5090276 5088064 5087092 5090981 5101910 
1812.376 5119645 5142243 5167088 5192002 5216314 5240493 5266082 5294959 
1816.234 5327998 5365601 5406764 5450648 5495309 5539102 5580717 5618679 
1820.091 5652447 5682290 5709416 5734931 5759307 5781669 5799332 5809440 
1823.949 5809641 5800541 5786404 5774249 5770287 5778345 5796814 5819782 
1827.806 5838756 5845842 5837446 5816089 5790601 5771798 5769615 5788184 
1831.664 5825088 5873683 5926449 5977105 6022626 6062507 6098326 6132703 
1835.521 6167653 6205329 6247816 6297433 6356437 6426882 6509749 6603868 
1839.378 6706622 6814921 6925367 7035504 7143345 7247204 7345494 7436997 
1843.236 7522349 7604853 7690239 7785897 7896320 8022027 8158203 8296144 
1847.093 8426325 8540190 8633161 8704280 8755837 8790492 8809832 8812368 
1850.951 8794989 8753672 8686771 8595916 8486294 8365046 8238430 8111040 
1854.808 7984463 7858429 7732769 7608562 7487795 7373263 7266544 7167194 
1858.666 7072751 6980651 6889042 6798832 6712309 6632835 6561986 6499693 
1862.523 6443629 6391069 6340836 6294004 6253362 6221799 6199952 6185466 
1866.380 6172896 6155521 6128872 6092042 6049336 6008146 5975862 5957789 
1870.238 5954698 5963903 5981438 6003375 6026926 6049537 6068622 6081323 
1874.095 6084751 6076820 6057971 6030723 5998470 5964474 5930446 5894977 
1877.953 5855447 5809271 5755480 5695987 5634455 5574374 5518061 5464774 
1881.810 5412233 5357550 5299856 5241164 5186369 5140533 5106938 5085147 
1885.667 5071838 5060742 5046395 5025746 4998462 4966856 4934080 4903986 
1889.525 4879457 4862938 4856907 4863206 4883679 4917659 4962064 5011266 
1893.382 5058228 5097619 5126551 5146400 5161287 5176343 5194953 5217991 
1897.240 5243578 5269201 5293785 5317935 5343998 5374156 5408878 5446085 
1901.097 5482223 5513699 5539270 5560043 5579543 5601057 5626063 5652950 
1904.955 5677724 5696792 5707368 5710154 5708073 5704581 5702197 5701258 
1908.812 5700082 5697095 5691656 5685143 5680679 5680947 5686990 5698068 
1912.669 5711564 5725698 5739296 5753163 5768071 5783785 5797116 5803026 
1916.527 5796243 5774081 5738356 5696054 5656508 5626332 5607770 5596627 
1920.384 5585920 5569038 5542995 5509705 5475613 5448132 5431188 5424311 
1924.242 5422432 5419178 5410421 5395995 5379792 5367547 5363018 5366842 
1928.099 5376168 5386635 5394754 5400021 5404550 5411025 5421191 5433604 
1931.957 5444274 5449038 5446085 5436691 5425049 5416326 5414044 5418238 
1935.814 5426861 5436456 5444743 5452159 5460782 5472525 5486585 5499168 
1939.671 5504403 5496953 5475076 5441254 5402906 5369023 5347084 5339839 
1943.529 5346481 5363186 5386199 5413440 5444844 5479941 5517591 5555211 
1947.386 5589746 5619451 5645733 5673058 5706394 5748798 5798929 5850510 
1951.244 5895884 5927692 5943680 5945897 5940724 5933167 5926113 5916742 
1955.101 5900720 5872978 5833349 5786102 5741378 5708979 5696490 5704279 
1958.958 5727377 5756487 5783214 5802724 5814174 5819312 5821495 5821999 
1962.816 5821864 5821394 5822603 5827909 5838924 5855615 5874053 5887286 
1966.673 5889670 5877814 5854473 5826935 5804604 5793926 5796109 5806082 
1970.531 5816861 5821965 5820420 5816021 5817163 5830730 5860350 5905221 
1974.388 5961686 6026993 6101887 6190810 6296458 6418676 6548901 6671527 
1978.246 6769148 6829158 6846358 6825523 6776316 6710795 6638521 6564106 
1982.103 6490140 6417500 6349712 6291886 6249026 6224388 6216219 6219379 
1985.960 6225732 6229833 6229934 6228891 6231211 6240925 6257396 6275817 
1989.818 6290306 6295450 6290743 6280725 6272523 6273329 6285263 6306241 
1993.675 6330380 6351931 6367667 6378225 6386833 6396987 6409698 6423216 
1997.533 6433574 6437912 6435760 6429605 6423183 6419954 6419047 6416525 
2001.390 6406436 6383605 6346484 6298845 6247648 6201195 6165973 6145439 
2005.248 6138886 6144397 6158983 6180256 6205329 6230875 6251211 6261161 
2009.105 6256253 6236925 6208186 6177501 6154412 6145607 6152833 6174678 
2012.962 6206237 6243648 6284423 6328564 6375703 6423821 6468549 6504468 
2016.820 6528147 6540357 6547959 6561246 6589873 6639261 6707531 6787490 
2020.677 6868070 6939911 6998665 7043620 7077971 7104578 7123944 7134790 
2024.535 7135598 7126066 7109596 7091308 7077364 7071336 7072784 7078510 
2028.392 7083460 7085515 7085010 7085447 7091409 7105453 7128256 7157695 
2032.250 7191987 7230561 7275944 7330667 7396956 7471379 7547399 7616048 
2036.107 7670004 7706866 7730071 7747678 7768828 7799862 7843044 7895004 
2039.964 7950108 8002215 8046227 8080219 8102836 8113133 8110735 8095612 
2043.822 8069384 8036304 8002046 7973023 7954798 7949230 7955676 7970862 
2047.679 7990369 8010214 8027123 8037046 8035899 8018719 7982640 7927499 
2051.537 7858699 7785998 7720695 7673781 7650613 7649534 7662652 7678739 
2055.394 7688788 7688552 7679750 7668149 7660898 7661101 7668689 7679211 
2059.251 7688182 7692364 7693005 7693038 7696242 7704235 7715062 7724304 
2063.109 7726934 7720323 7704741 7684101 7662854 7644104 7628289 7613114 
2066.966 7595917 7575282 7552086 7529463 7511326 7500066 7495751 7496223 
2070.824 7498077 7499189 7499055 7498751 7500302 7504111 7508966 7511629 
2074.681 7508932 7498751 7480716 7456479 7428908 7400427 7372252 7344752 
2078.539 7317255 7289927 7263377 7239051 7218028 7201184 7188484 7179692 
2082.396 7174571 7174504 7180467 7193705 7213649 7238209 7263107 7284199 
2086.253 7298183 7303439 7300507 7290635 7275034 7253471 7225170 7189730 
2090.111 7148061 7103735 7061805 7028096 7006982 6999979 7005939 7021731 
2093.968 7043755 7069753 7098077 7128121 7157796 7183936 7202565 7210347 
2097.826 7206540 7194008 7178142 7165442 7160558 7165240 7177165 7192728 
2101.683 7208158 7221801 7234873 7250304 7270553 7297239 7328914 7363523 
2105.541 7398573 7433997 7470367 7510011 7554074 7601785 7650444 7696849 
2109.398 7738807 7776654 7813255 7852660 7897906 7949467 8004645 8058176 
2113.255 8105267 8142605 8169750 8188624 8202265 8213509 8224145 8234681 
2117.113 8245521 8257577 8272503 8291922 8316341 8344814 8374066 8400651 
2120.970 8421663 8436765 8447372 8457069 8469164 8485517 8505824 8527822 
2124.828 8549448 8569082 8586926 8603959 8621704 8640631 8659391 8675547 
2128.685 8687142 8692922 8693903 8692415 8692382 8697385 8710366 8733490 
2132.542 8767974 8813923 8870328 8933572 8998449 9057415 9103598 9132495 
2136.400 9144372 9143729 9139262 9140041 9152832 9179634 9217978 9261641 
2140.257 9304325 9340649 9368513 9387100 9397528 9399662 9393770 9379719 
2144.115 9358627 9332457 9304765 9278531 9255209 9233446 9211108 9185049 
2147.972 9153374 9116963 9077748 9036980 8995641 8950889 8899176 8837188 
2151.830 8764322 8682815 8596761 8509744 8423353 8335728 8245656 8154354 
2155.687 8071037 8013556 8005084 8068742 8218507 8449771 8739439 9050749 
2159.544 9343493 9584944 9757258 9857303 9894725 9883743 9841001 9782539 
2163.402 9719747 9662623 9617158 9585790 9566212 9552223 9535728 9508736 
2167.259 9465996 9406636 9333405 9251893 9166673 9081368 8996960 8913448 
2171.117 8830019 8749007 8673012 8606562 8553436 8514880 8489978 8475381 
2174.974 8466022 8456495 8441798 8418217 8382713 8334715 8275880 8211618 
2178.832 8149357 8098144 8065501 8055004 8064624 8087510 8113943 8134908 
2182.689 8144361 8141896 8129843 8112491 8092810 8072422 8050649 8027563 
2186.546 8004375 7984294 7971200 7968905 7977814 7995735 8018112 8040253 
2190.404 8058446 8071206 8078868 8082649 8082176 8076539 8064995 8046667 
2194.261 8024356 8002553 7986015 7978861 7981661 7992293 8005388 8017133 
2198.119 8025098 8029486 8032625 8036676 8042110 8046700 8047004 8039679 
2201.976 8023411 8000292 7973933 7948758 7927330 7910019 7895712 7881912 
2205.833 7868213 7855291 7844866 7838996 7837815 7840143 7843820 7846958 
2209.691 7850095 7855291 7865649 7883161 7907556 7935934 7963472 7985982 
2213.548 8001776 8011969 8020137 8030364 8045113 8063645 8083797 8101385 
2217.406 8114044 8120323 8120965 8117319 8111073 8102735 8092304 8079915 
2221.263 8066176 8052540 8040557 8030330 8020778 8009572 7994115 7973495 
2225.121 7948926 7923956 7902292 7887176 7878943 7875467 7872937 7867640 
2228.978 7858665 7846621 7834407 7825265 7820575 7820103 7821521 7822600 
2232.835 7821284 7817472 7812580 7807419 7803472 7800908 7799559 7799829 
2236.693 7802662 7809375 7821284 7837883 7856979 7875265 7889099 7897265 
2240.550 7900605 7902494 7907016 7917206 7933235 7952942 7972449 7988580 
2244.408 7999683 8007514 8014568 8024187 8037925 8055273 8073906 8090920 
2248.265 8104490 8114179 8120830 8125522 8128999 8131532 8132646 8132983 
2252.123 8134233 8138959 8149931 8168332 8193115 8220566 8246061 8265209 
2255.980 8275239 8275745 8268282 8255078 8237518 8216075 8190414 8160229 
2259.837 8126569 8091628 8058581 8031140 8011699 8001810 8001338 8009910 
2263.695 8026887 8051493 8082581 8117926 8153780 8186530 8212023 8228367 
2267.552 8235357 8235390 8231372 8225834 8219857 8212733 8202974 8188927 
2271.410 8170358 8148378 8125353 8103680 8085012 8070294 8059088 8051763 
2275.267 8047915 8048725 8054497 8065434 8079882 8096051 8111512 8124510 
2279.125 8134773 8143347 8151923 8161917 8173734 8187037 8200441 8213408 
2282.982 8225699 8238058 8251127 8264804 8278143 8288782 8294252 8292969 
2286.839 8284830 8271321 8255010 8238530 8223538 8210673 8199564 8189400 
2290.697 8180014 8171607 8165597 8162524 8163267 8167555 8174442 8183120 
2294.554 8192676 8203210 8214387 8226104 8237822 8248594 8257239 8263216 
2298.412 8266492 8267911 8268181 8267843 8266695 8263723 8257814 8248256 
2302.269 8234918 8219047 8202298 8186565 8173362 8163605 8157595 8155299 
2306.126 8156447 8161107 8168906 8178832 8189907 8200576 8210065 8217629 
2309.984 8223808 8229514 8235863 8243562 8252511 8261764 8270275 8277299 
2313.841 8283007 8287971 8292936 8298947 8305939 8313706 8321339 8328770 
2317.699 8336100 8344341 8354913 8369269 8388456 8412508 8440819 8471157 
2321.556 8500181 8523530 8535425 8530322 8503729 8453454 8380957 8291214 
2325.414 8192676 8094228 8004915 7931683 7877560 7842707 7824320 7819024 
2329.271 7823005 7833396 7848375 7866190 7885388 7903945 7920446 7933943 
2333.128 7944742 7954191 7964181 7976161 7991078 8008593 8027866 8047814 
2336.986 8067999 8088253 8109081 8130586 8152396 8173869 8194330 8213408 
2340.843 8231574 8249675 8268553 8287937 8306411 8321609 8331370 8334850 
2344.701 8334073 8333363 8338768 8356703 8391564 8445278 8516705 8602371 
2348.558 8697418 8796104 8893291 8984275 9064891 9132968 9187655 9229790 
2352.416 9261708 9286519 9307439 9326939 9346439 9367091 9389199 9413544 
2356.273 9441243 9473006 9509413 9550089 9593886 9639619 9686068 9732928 
2360.130 9780403 9828867 9878149 9927200 9974392 10017689 10056107 10089477 
2363.988 10119525 10148522 10178270 10209816 10242620 10275393 10306030 
2367.363 10332835 10354722 10371180 10382413 10388114 10388894 10385535 
2370.738 10379868 10374641 10373047 10377933 10391236 10413296 10442721 
2374.114 10478325 10518482 10563361 10614119 10672965 10742042 10822781 
2377.489 10915428 11018834 11131204 11250914 11376304 11506561 11640805 
2380.864 11778222 11917932 12058401 12197825 12334464 12466578 12592115 
2384.239 12709226 12816233 12911251 12993522 13062593 13119347 13164940 
2387.615 13200940 13228505 13248044 13259625 13262767 13257131 13243091 
2390.990 13221161 13192161 13156982 13116035 13069866 13019059 12964674 
2394.365 12908760 12853535 12801524 12754741 12714753 12682546 12658939 
2397.740 12645055 12642359 12652354 12675961 12712911 12761395 12818553 
2401.115 12881043 12946377 13013426 13083115 13157562 13239675 13331745 
2404.491 13435180 13549990 13675567 13810448 13953174 14102449 14257014 
2407.866 14416053 14579159 14746097 14917694 15094917 15278870 15470008 
2411.241 15667139 15867831 16068581 16264917 16452981 16629487 16792222 
2414.616 16939274 17069350 17181124 17273446 17345754 17398760 17434250 
2417.992 17455082 17464776 17466052 17461120 17450634 17434836 17413556 
2421.367 17386792 17355410 17320582 17283930 17246796 17210598 17176814 
2424.742 17146930 17122734 17106292 17099194 17103158 17119218 17148342 
2428.117 17191742 17250968 17328098 17424904 17542912 17681380 17838710 
2431.493 18011534 18196174 18389672 18590244 18798138 19014474 19241066 
2434.868 19479456 19730284 19993194 20267406 20551552 20844926 21146738 
2438.243 21456944 21775976 22104550 22443772 22795096 23159460 23537492 
2441.618 23929228 24333862 24750626 25178252 25616632 26066116 26527548 
2444.994 27001282 27487290 27983628 28488108 28997458 29509074 30020656 
2448.369 30531026 31038794 31543094 32042098 32533816 33016120 33487718 
2451.744 33947112 34393256 34824816 35239192 35633000 36001896 36341596 
2455.119 36648972 36921712 37158100 37356660 37515068 37629668 37696300 
2458.495 37710540 37668908 37570052 37413936 37202788 36939392 36627444 
2461.870 36270844 35873224 35439508 34974436 34483320 33971796 33444986 
2465.245 32908376 32367148 31826664 31293008 30772958 30273528 29801678 
2468.620 29363662 28963986 28606046 28291258 28019924 27791460 27604250 
2471.996 27456122 27343540 27262846 27208694 27176098 27159344 27154372 
2475.371 27157122 27164566 27174406 27184494 27192960 27198286 27199558 
2478.746 27195994 27187174 27172500 27151020 27121180 27081540 27030618 
2482.121 26968034 26894424 26811804 26722574 26629524 26535016 26440490 
2485.497 26347182 26255516 26165908 26078818 25994382 25912498 25832560 
2488.872 25753130 25672872 25590728 25505476 25416514 25323532 25226322 
2492.247 25124358 25017294 24904676 24786334 24662240 24532360 24396980 
2495.622 24255582 24107504 23952020 23788820 23617776 23439840 23256908 
2498.998 23070174 22881530 22691570 22500682 22308624 22115568 21921448 
2502.373 21727170 21534268 21344270 21159192 20980834 20810580 20649462 
2505.748 20497882 20355076 20219986 20090246 19963358 19837128 19710278 
2509.123 19582738 19455960 19331924 19212390 19098220 18988928 18883158 
2512.499 18779142 18675568 18572432 18470636 18371732 18277206 18188122 
2515.874 18104312 18025488 17951270 17881694 17817514 17760038 17710128 
2519.249 17668232 17633966 17606672 17585658 17571236 17563992 17565164 
2522.624 17575444 17594630 17621268 17653084 17687282 17721624 17754998 
2526.000 17786652 17817168 17846960 17876100 17904412 17930654 17954032 
2529.375 17973612 17988258 17997546 18001000 17998790 17991158 17979172 
2532.750 17964290 17947990 17931450 17915428 17899820 17883732 17866674 
2536.125 17848582 17830080 17812956 17799250 17791002 17789172 17793554 
2539.500 17803498 17817582 17834154 17852312 17871266 17890774 17910214 
2542.876 17929516 17948198 17966500 17984526 18002554 18021238 18040234 
2546.251 18059302 18077678 18095052 18111150 18126592 18142104 18158582 
2549.626 18176272 18194446 18211584 18226442 18237778 18245482 18250494 
2553.001 18254260 18258372 18263970 18271330 18279868 18288850 18297388 
2556.377 18304714 18310210 18313114 18312698 18307826 18297422 18280972 
2559.752 18258130 18229070 18193998 18153124 18105864 18051944 17991400 
2563.127 17924854 17853866 17781440 17710646 17643904 17583070 17528248 
2566.502 17479194 17435078 17395312 17360340 17330994 17308342 17292928 
2569.878 17284826 17283170 17286758 17294722 17306030 17321066 17339892 
2573.253 17362754 17389690 17420006 17452910 17487508 17523108 17559264 
2576.628 17596148 17633586 17671926 17711130 17751546 17793554 17837604 
2580.003 17884248 17933694 17986010 18040960 18098092 18157098 18218114 
2583.379 18281560 18348090 18418054 18491796 18568526 18647274 18726486 
2586.754 18804850 18881358 18955698 19028010 19099398 19170416 19242070 
2590.129 19314846 19388360 19462406 19535876 19607800 19677132 19743844 
2593.504 19807928 19870424 19932274 19994338 20057316 20121132 20185274 
2596.880 20248868 20311500 20372888 20433454 20494132 20556348 20621142 
2600.255 20690082 20764178 20844228 20930520 21022948 21121170 21224008 
2603.630 21330664 21440234 21552374 21667226 21785522 21907926 22034896 
2607.005 22166334 22301404 22439096 22578192 22718104 22858338 22998656 
2610.381 23138456 23276624 23411340 23539904 23660112 23770062 23868664 
2613.756 23955626 24031368 24096402 24150868 24195392 24230180 24256212 
2617.131 24274994 24287994 24297068 24303620 24308142 24310874 24311506 
2620.506 24310102 24307056 24303200 24299626 24297314 24296578 24297454 
2623.882 24299626 24302746 24306878 24312592 24320404 24330918 24344690 
2627.257 24361548 24381734 24404970 24431714 24462456 24497932 24538424 
2630.632 24583794 24633448 24686578 24741960 24799280 24857974 24917836 
2634.007 24978932 25040566 25101888 25162100 25220492 25276856 25331716 
2637.383 25385812 25440334 25496304 25554462 25614874 25677582 25742442 
2640.758 25809248 25877608 25947424 26018128 26089374 26160910 26232532 
2644.133 26304092 26375982 26448660 26522476 26597714 26674972 26754396 
2647.508 26836476 26921568 27010062 27102030 27197404 27295904 27397038 
2650.884 27500492 27606474 27715238 27827634 27944296 28065730 28191828 
2654.259 28322312 28456548 28593978 28734142 28876828 29021970 29169714 
2657.634 29319848 29472160 29626936 29784076 29943900 30106800 30272924 
2661.009 30442276 30614392 30788536 30963960 31140022 31316298 31492468 
2664.385 31668674 31844560 32020484 32196474 32373004 32550674 32730490 
2667.760 32913204 33099428 33289380 33482778 33679164 33878184 34079336 
2671.135 34282516 34487912 34695344 34904628 35115200 35326348 35537448 
2674.510 35748004 35957584 36166004 36372904 36577664 36779568 36978172 
2677.885 37173184 37365324 37555600 37745632 37937412 38132896 38334040 
2681.261 38542624 38760768 38989784 39231976 39487948 39758484 40043400 
2684.636 40341660 40652208 40974008 41306620 41649692 42003588 42368032 
2688.011 42742220 43125512 43516316 43913380 44316160 44724348 45138696 
2691.386 45559320 45987096 46422372 46865580 47316924 47777096 48246496 
2694.762 48725336 49213168 49708752 50210744 50717896 51228888 51743464 
2698.137 52262200 52785488 53314016 53847536 54385172 54925276 55466276 
2701.512 56006596 56544872 57080300 57611660 58137232 58655208 59163252 
2704.887 59658548 60138916 60601876 61044848 61465180 61859900 62225728 
2708.263 62559948 62860304 63125564 63355728 63551792 63714832 63846232 
2711.638 63947380 64018904 64061872 64076468 64063260 64022324 63953832 
2715.013 63856980 63731492 63576572 63391572 63176380 62931260 62657008 
2718.388 62355224 62028424 61679948 61314316 60936484 60551744 60165212 
2721.764 59781684 59404804 59038004 58684148 58345924 58026484 57728508 
2725.139 57455016 57207964 56988860 56798300 56636552 56503356 56398496 
2728.514 56321876 56273176 56252092 56257600 56288080 56341640 56416228 
2731.889 56510148 56621756 56750232 56894912 57054792 57228792 57415228 
2735.265 57612264 57817716 58029400 58245204 58463008 58680924 58897052 
2738.640 59109716 59317552 59519288 59714352 59902048 60081988 60254240 
2742.015 60419016 60577152 60730468 60880904 61030968 61182996 61338584 
2745.390 61498968 61664484 61835220 62010808 62191084 62375496 62562704 
2748.766 62750980 62937320 63118672 63291780 63454112 63604692 63743772 
2752.141 63872984 63994452 64110876 64224608 64337520 64451352 64567520 
2755.516 64686872 64809868 64935716 65063356 65190160 65313300 65429352 
2758.891 65534764 65626436 65701552 65757028 65790720 65800168 65784128 
2762.267 65741376 65671684 65575296 65452352 65303324 65128832 64929552 
2765.642 64707176 64464076 64203748 63931024 63650416 63366616 63083956 
2769.017 62805540 62534348 62273144 62024412 61790636 61574252 61377356 
2772.392 61200736 61045040 60909452 60792052 60690992 60603248 60525616 
2775.768 60454928 60387980 60321124 60250848 60173472 60085184 59981816 
2779.143 59859112 59713020 59540076 59338252 59107100 58848292 58565488 
2782.518 58263656 57947908 57623920 57296840 56970424 56648180 56332212 
2785.893 56024124 55724052 55431452 55144692 54861956 54581136 54300720 
2789.269 54020180 53739680 53460256 53182732 52907820 52635884 52366892 
2792.644 52101160 51839368 51583064 51334148 51094952 50867136 50652100 
2796.019 50450124 50260924 50083780 49917636 49761100 49613656 49473904 
2799.394 49340808 49213500 49091132 48973020 48858728 48747432 48638496 
2802.770 48530516 48422152 48312224 48199364 48083644 47965292 47845604 
2806.145 47725944 47607800 47492132 47379484 47270188 47163912 47060692 
2809.520 46959784 46860448 46761396 46661000 46557492 46449624 46336768 
2812.895 46218704 46096584 45971444 45844640 45717104 45589976 45464096 
2816.271 45341012 45222852 45112592 45013900 44930588 44866548 44825068 
2819.646 44808868 44820292 44861036 44931728 45032536 45162664 45319604 
2823.021 45500520 45701644 45918880 46147912 46385100 46626396 46868016 
2826.396 47105744 47334436 47549388 47744992 47916264 48058732 48168968 
2829.771 48244460 48284452 48289416 48261232 48202844 48117960 48010512 
2833.147 47883928 47741184 47584732 47416212 47237088 47048876 46853032 
2836.522 46651112 46444388 46233816 46019732 45802444 45582320 45359844 
2839.897 45136156 44912584 44690304 44469972 44251840 44035328 43819576 
2843.272 43603864 43388036 43173120 42960832 42753552 42553460 42363576 
2846.648 42185824 42022492 41875056 41744888 41632956 41540228 41466476 
2850.023 41410884 41372472 41349400 41339780 41341528 41352972 41372216 
2853.398 41397544 41427616 41461480 41498044 41537272 41578764 41622484 
2856.773 41667744 41713228 41757328 41797200 41830032 41852912 41863124 
2860.149 41858308 41836420 41795556 41734272 41651480 41546208 41418428 
2863.524 41268980 41099580 40913204 40713632 40505308 40293560 40083296 
2866.899 39879996 39688484 39513168 39358200 39226680 39121228 39043500 
2870.274 38993952 38971984 38975356 39000364 39042848 39097700 39159992 
2873.650 39225664 39291748 39356748 39420164 39482468 39544416 39606480 
2877.025 39668988 39732052 39795304 39858820 39922348 39985556 40048628 
2880.400 40111204 40172988 40234376 40295160 40356168 40418348 40482540 
2883.775 40549432 40619464 40692416 40767384 40843420 40919540 40994768 
2887.151 41068292 41139864 41209044 41275496 41339232 41399548 41456376 
2890.526 41509784 41559804 41607352 41653268 41698640 41744776 41792312 
2893.901 41841816 41892936 41945264 41998004 42050636 42103168 42155632 
2897.276 42209048 42263828 42320656 42378916 42438140 42497072 42554772 
2900.652 42610620 42663800 42713996 42760536 42802148 42837068 42863068 
2904.027 42877732 42879784 42868556 42844380 42808216 42761304 42704600 
2907.402 42638688 42563836 42480232 42388524 42290052 42186408 42079436 
2910.777 41970736 41861336 41751672 41641340 41529728 41416172 41300348 
2914.153 41182376 41062792 40942548 40822708 40704424 40588684 40476028 
2917.528 40366640 40260916 40158956 40061200 39968920 39883920 39808560 
2920.903 39745520 39697232 39665540 39651092 39653412 39671060 39701516 
2924.278 39741816 39788768 39838848 39888352 39933972 39972368 40000708 
2927.654 40016876 40019564 40008480 39984540 39949520 39906584 39859876 
2931.029 39814732 39777148 39753804 39750860 39773808 39826792 39912216 
2934.404 40031628 40184832 40371476 40590504 40840544 41119280 41424116 
2937.779 41750832 42094696 42450888 42814760 43182304 43550892 43918732 
2941.155 44283944 44644728 44997548 45337556 45658136 45950668 46205696 
2944.530 46413304 46563468 46648532 46663032 46606036 46480452 46294116 
2947.905 46059116 45788748 45498312 45201784 44910344 44632760 44374436 
2951.280 44137608 43922544 43727776 43551408 43391184 43245512 43112812 
2954.656 42991928 42881904 42781448 42689320 42604368 42525208 42451108 
2958.031 42382316 42319304 42263060 42214600 42174140 42140952 42113756 
2961.406 42090496 42069544 42050088 42031984 42016508 42005080 41999352 
2964.781 42000448 42008988 42024756 42047460 42076336 42110980 42150520 
2968.156 42194264 42241112 42289540 42337860 42384108 42426372 42462800 
2971.532 42491592 42511324 42521340 42521956 42515124 42503832 42492616 
2974.907 42485564 42486256 42495796 42512348 42530328 42541544 42535884 
2978.282 42502192 42430796 42314192 42147744 41931072 41667272 41363472 
2981.657 41029284 40676516 40317408 39963000 39622888 39303464 39008376 
2985.033 38738524 38493200 38270956 38070460 37891060 37732372 37593788 
2988.408 37472916 37364820 37259820 37145104 37004728 36821328 36580368 
2991.783 36271888 35893736 35451692 34959748 34438088 33907308 33387732 
2995.158 32894582 32435764 32013242 31623378 31259358 30913114 30578128 
2998.534 30249584 29925086 29604164 29287058 28974646 28667558 28366062 
3001.909 28070326 27780334 27496324 27218782 26948644 26686706 26434082 
3005.284 26191458 25959066 25736534 25523606 25319528 25123796 24936328 
3008.659 24756764 24584918 24420288 24261678 24107190 23955348 23804362 
3012.035 23653324 23502654 23353504 23207586 23066786 22932282 22804210 
3015.410 22682250 22565804 22454272 22347690 22246366 22150888 22061460 
3018.785 21977524 21897926 21820814 21744308 21666808 21586882 21503768 
3022.160 21417156 21326626 21232290 21134738 21035538 20936744 20841692 
3025.536 20753888 20676530 20611412 20559230 20518830 20487776 20462524 
3028.911 20439218 20413936 20382334 20341046 20287090 20218318 20133800 
3032.286 20034310 19921518 19797974 19666766 19530954 19392620 19253950 
3035.661 19116296 18981210 18850318 18724896 18606152 18494702 18390710 
3039.037 18293622 18202602 18116954 18036090 17959662 17887424 17818858 
3042.412 17753654 17690700 17629204 17568684 17508654 17449426 17391312 
3045.787 17334376 17278688 17224110 17170196 17116840 17064214 17012422 
3049.162 16962046 16913296 16866208 16820360 16775485 16730854 16685884 
3052.538 16639989 16592480 16542636 16489839 16433641 16374147 16312322 
3055.913 16249714 16188182 16129477 16074736 16023885 15976239 15930898 
3059.288 15886595 15842848 15799548 15757389 15716849 15678681 15643267 
3062.663 15611013 15582438 15557882 15538170 15523747 15514613 15510286 
3066.039 15509633 15511178 15513549 15515403 15516020 15514853 15511385 
3069.414 15505066 15494972 15480481 15461116 15436910 15408312 15376420 
3072.789 15342162 15306327 15269913 15233261 15196920 15161681 15128332 
3076.164 15097490 15069772 15045176 15022949 15002061 14980934 14958950 
3079.540 14935081 14909156 14881141 14851482 14820316 14788056 14755112 
3082.915 14722275 14690227 14659792 14631314 14605133 14581147 14558772 
3086.290 14537905 14518686 14500973 14485557 14472710 14462433 14454588 
3089.665 14448628 14443935 14440064 14436468 14432837 14428863 14424171 
3093.041 14418348 14411121 14402900 14394235 14386563 14381460 14380227 
3096.416 14383617 14391838 14404031 14418690 14434652 14450375 14465174 
3099.791 14478705 14490935 14502069 14512690 14523139 14533862 14545238 
3103.166 14557196 14569634 14582106 14594133 14605098 14614933 14623775 
3106.542 14632239 14640875 14650642 14661746 14674633 14688993 14704657 
3109.917 14721178 14738110 14755387 14772629 14789736 14806465 14822681 
3113.292 14838384 14853504 14868317 14882855 14897325 14911590 14925650 
3116.667 14939813 14954114 14969067 14984740 15001443 15018696 15036018 
3120.042 15052277 15066856 15079137 15089016 15097249 15104625 15111933 
3123.418 15119755 15128092 15136669 15144870 15152005 15157838 15162436 
3126.793 15166485 15170500 15175544 15182131 15190709 15201141 15213323 
3130.168 15226877 15241290 15256597 15272520 15289579 15308283 15328637 
3133.543 15350880 15374669 15399489 15424516 15449442 15474061 15498577 
3136.919 15523575 15548953 15574710 15600366 15624752 15647147 15667448 
3140.294 15685827 15703484 15721934 15742444 15765980 15792780 15822537 
3143.669 15854532 15888210 15922856 15958123 15993804 16029146 16063664 
3147.044 16096639 16127896 16157676 16186805 16216315 16247408 16280947 
3150.420 16317172 16355807 16396064 16437013 16478034 16518578 16558195 
3153.795 16596783 16634205 16670424 16705614 16740255 16775278 16811750 
3157.170 16850396 16892110 16936758 16983890 17032854 17082650 17133176 
3160.545 17184262 17236694 17290996 17348238 17408864 17472676 17539220 
3163.921 17607672 17676618 17745024 17811956 17876826 17939530 18000308 
3167.296 18059542 18117574 18174648 18230416 18284636 18337030 18387632 
3170.671 18436306 18483982 18530764 18576930 18621992 18664916 18704452 
3174.046 18739528 18769490 18794504 18815578 18833882 18851080 18868484 
3177.422 18886652 18906310 18927768 18951234 18977262 19006270 19038222 
3180.797 19072910 19109646 19147666 19186140 19224546 19262956 19301752 
3184.172 19341866 19383440 19426888 19471900 19517890 19564054 19609808 
3187.547 19654736 19699182 19743844 19789720 19838238 19890890 19948126 
3190.923 20010194 20076330 20145046 20214258 20282646 20348652 20412270 
3194.298 20474056 20535120 20596716 20659712 20724696 20791184 20859004 
3197.673 20927460 20996450 21065622 21135468 21205810 21276724 21348100 
3201.048 21419592 21491304 21563100 21635080 21707314 21779982 21852904 
3204.424 21926256 22000250 22075162 22151758 22230080 22310122 22391160 
3207.799 22471860 22551354 22628876 22704454 22778928 22853484 22929312 
3211.174 23006830 23085862 23165190 23244184 23321932 23398892 23475756 
3214.549 23553828 23633766 23715818 23799216 23882806 23965396 24046390 
3217.925 24125824 24204396 24283368 24363300 24444824 24527766 24611636 
3221.300 24696048 24780372 24864676 24949102 25033720 25118812 25204444 
3224.675 25290448 25377134 25464542 25552458 25640710 25728836 25816420 
3228.050 25902896 25988120 26071920 26154612 26236792 26318174 26399046 
3231.426 26479122 26558086 26635480 26711230 26785478 26858612 26931298 
3234.801 27003928 27077698 27153278 27231412 27312948 27397886 27485806 
3238.176 27575864 27666574 27756634 27845050 27931788 28017168 28102066 
3241.551 28187230 28272836 28358352 28443140 28526390 28607992 28688442 
3244.927 28769224 28851828 28937492 29026932 29119610 29214790 29311730 
3248.302 29409824 29509146 29610230 29713784 29820132 29929204 30040396 
3251.677 30152722 30265216 30377348 30488622 30599212 30709510 30820122 
3255.052 30931614 31044702 31159600 31276844 31396254 31517264 31638950 
3258.427 31760316 31879932 31997156 32111626 32223382 32333128 32441262 
3261.803 32548354 32654610 32760214 32865096 32969824 33074788 33180784 
3265.178 33288378 33398252 33510734 33625532 33742296 33860164 33978572 
3268.553 34096540 34213108 34327804 34440024 34549692 34656760 34762064 
3271.928 34866172 34970056 35074356 35179796 35286524 35394892 35504548 
3275.304 35615556 35727820 35840760 35954128 36067632 36180696 36293108 
3278.679 36404608 36515312 36625756 36736364 36848128 36962264 37079636 
3282.054 37201232 37327484 37458176 37592020 37727236 37861776 37993716 
3285.429 38121716 38245700 38366576 38486396 38607156 38730916 38858880 
3288.805 38991376 39127612 39266864 39408084 39550768 39694840 39840664 
3292.180 39988572 40138968 40291740 40446460 40602580 40759740 40917392 
3295.555 41075940 41235820 41398164 41563960 41734200 41908776 42087068 
3298.930 42267404 42448296 42627764 42805144 42980516 43155444 43332236 
3302.306 43513424 43701172 43896956 44101080 44313188 44531976 44756412 
3305.681 44985084 45216972 45451220 45687364 45925108 46164900 46407552 
3309.056 46654176 46905888 47163836 47427712 47696988 47970288 48246384 
3312.431 48524548 48805004 49088684 49377556 49673424 49977000 50288936 
3315.807 50608504 50934456 51265724 51601124 51939884 52281524 52625680 
3319.182 52972048 53320608 53671548 54024760 54380248 54738024 55097108 
3322.557 55456300 55814656 56170784 56524300 56875496 57224596 57572124 
3325.932 57918260 58262028 58601780 58935568 59261568 59578688 59886456 
3329.308 60184968 60474616 60755656 61027804 61290732 61543784 61785940 
3332.683 62015696 62231464 62430888 62611380 62771044 62908664 63024692 
3336.058 63120396 63198380 63260928 63309304 63343420 63361936 63362628 
3339.433 63343728 63304396 63244864 63166224 63069968 62957116 62828132 
3342.809 62682264 62518924 62336404 62133544 61909228 61662384 61392128 
3346.184 61098508 60781916 60444224 60087848 59716256 59332056 58937316 
3349.559 58533104 58119276 57694864 57259300 56812504 56355108 55888700 
3352.934 55415340 54937568 54456940 53975496 53494284 53014536 52537044 
3356.310 52062388 51591124 51123356 50659548 50199772 49745092 49296228 
3359.685 48854612 48421556 47997672 47583696 47179056 46782948 46394684 
3363.060 46013140 45637856 45268192 44904688 44547208 44196740 43853848 
3366.435 43519504 43194088 42878356 42572132 42274784 41985556 41703344 
3369.811 41426996 41155780 40889504 40628120 40372060 40121236 39875744 
3373.186 39635156 39398508 39165140 38934404 38705412 38478064 38252248 
3376.561 38028252 37806212 37586816 37370816 37158748 36951512 36749564 
3379.936 36553120 36361768 36174432 35989584 35805104 35619116 35430192 
3383.312 35237792 35041996 34844240 34646496 34451144 34260396 34075536 
3386.687 33896704 33723388 33554148 33387054 33220522 33053658 32885824 
3390.062 32717414 32549102 32382034 32217280 32056044 31898938 31746130 
3393.437 31597152 31450574 31304582 31156932 31005806 30850464 30691304 
3396.813 30530314 30370276 30214132 30063762 29920152 29782054 29647830 
3400.188 29514820 29381034 29245270 29107210 28967386 28826864 28686106 
3403.563 28545710 28405856 28266788 28128544 27991510 27855824 27721736 
3406.938 27589174 27457780 27326886 27196064 27065108 26933942 26803098 
3410.313 26672788 26543646 26415806 26289660 26165030 26041874 25919602 
3413.689 25797678 25675542 25552388 25427828 25301582 25174072 25045760 
3417.064 24916782 24787668 24657786 24527206 24395508 24262588 24129572 
3420.439 23998030 23869432 23745424 23626874 23513532 23404766 23299592 
3423.814 23196786 23095508 22995300 22895780 22796738 22697576 22598054 
3427.190 22497926 22397090 22295856 22194648 22093532 21991988 21889178 
3430.565 21783954 21675306 21563656 21449808 21336058 21224566 21117484 
3433.940 21015958 20919846 20828238 20739222 20651580 20563886 20475932 
3437.315 20387440 20298860 20210022 20121132 20031708 19941328 19850030 
3440.691 19757816 19664928 19571956 19478972 19386352 19294304 19202312 
3444.066 19109820 19016170 18920638 18822634 18722510 18621266 18520426 
3447.441 18422548 18329322 18242752 18162834 18088938 18019166 17951408 
3450.816 17883420 17813818 17742090 17668130 17592558 17515966 17438802 
3454.192 17361134 17283204 17204702 17125524 17045432 16964114 16881328 
3457.567 16796560 16709780 16621020 16530521 16439352 16348135 16257659 
3460.942 16168304 16080100 15993048 15907012 15822228 15738836 15657006 
3464.317 15577252 15499676 15424139 15350572 15279213 15209617 15141507 
3467.693 15074402 15007137 14938441 14867151 14792410 14714425 14634261 
3471.068 14553598 14474697 14398722 14326390 14257151 14189601 14121993 
3474.443 14053027 13981847 13908319 13833434 13758085 13682815 13608175 
3477.818 13533856 13459139 13383647 13306462 13227753 13147795 13067885 
3481.194 12989698 12915211 12846095 12783745 12728230 12678281 12631375 
3484.569 12584508 12534576 12478615 12415773 12346089 12271132 12193259 
3487.944 12115194 12039255 11966873 11898656 11834128 11772606 11712929 
3491.319 11654215 11595747 11537115 11478084 11419027 11359910 11300971 
3494.695 11242107 11183457 11124576 11065600 11006803 10948795 10892223 
3498.070 10837967 10786265 10737049 10689164 10641657 10592695 10541091 
3501.445 10486031 10427448 10366124 10303553 10241331 10181152 10123934 
3504.820 10070621 10020876 9974290 9929743 9886013 9841644 9795993 9748719 
3508.678 9700162 9651645 9604049 9558591 9515305 9473683 9432235 9389808 
3512.535 9344948 9297318 9247729 9197367 9148433 9102143 9059343 9019862 
3516.393 8982719 8946526 8910066 8872763 8834314 8795733 8757357 8719629 
3520.250 8682342 8644992 8606258 8565129 8521131 8474063 8425008 8374808 
3524.107 8324852 8276117 8229076 8183626 8139735 8096996 8054936 8013556 
3527.965 7972651 7932392 7892777 7854245 7817236 7782455 7750478 7721808 
3531.822 7695905 7671555 7646701 7619251 7586780 7548074 7503167 7453615 
3535.680 7401708 7350347 7302327 7258997 7221263 7188719 7160120 7134588 
3539.537 7110640 7087300 7063658 7039007 7012976 6985197 6955735 6924862 
3543.395 6892745 6859486 6824715 6788264 6749629 6709045 6667422 6626073 
3547.252 6586644 6550213 6517081 6486340 6456173 6424326 6388816 6348704 
3551.109 6303955 6256051 6207279 6160024 6116270 6078232 6046312 6020610 
3554.967 6000553 5984831 5971494 5958528 5943479 5924769 5901392 5873347 
3558.824 5841644 5807996 5774014 5741378 5710826 5682559 5656643 5632575 
3562.682 5609683 5586893 5562728 5534605 5499604 5454272 5396700 5326287 
3566.539 5246094 5161623 5080688 5010796 4957036 4921881 4903182 4896547 
3570.396 4896179 4896078 4891118 4878486 4857342 4828695 4795594 4760720 
3574.254 4726920 4695401 4666229 4637862 4609095 4578723 4546545 4513365 
3578.111 4480890 4450226 4422810 4398744 4377892 4359952 4344758 4331974 
3581.969 4322034 4314538 4308782 4302792 4293422 4277528 4251428 4211746 
3585.826 4157282 4088207 4008376 3924078 3844009 3777191 3730133 3705837 
3589.684 3702796 3715428 3736249 3756335 3768300 3767231 3750887 3721210 
3593.541 3682245 3639608 3598011 3560861 3529193 3502570 3479623 3459015 
3597.398 3440045 3421978 3404512 3387047 3369348 3351217 3332852 3315557 
3601.256 3300566 3289048 3281937 3279032 3280267 3284608 3290884 3297528 
3605.113 3302169 3301768 3292787 3271554 3236301 3187700 3129693 3068990 
3608.971 3012901 2966927 2932766 2908081 2888201 2868255 2845142 2819195 
3612.828 2793450 2772841 2761103 2759770 2766905 2777943 2787147 2788948 
3616.686 2779844 2757736 2723158 2678681 2628909 2579643 2536880 2506086 
3620.543 2490257 2490257 2503454 2526415 2555111 2585976 2617042 2648177 
3624.400 2679448 2710455 2738262 2756768 2757202 2728693 2662712 2557344 
3628.258 2421714 2276932 2150080 2064444 2029323 2039875 2081157 2136461 
3632.115 2190772 2233833 2261011 2273035 2274634 2271369 2268871 2269504 
3635.973 2272602 2276099 2276632 2272635 2264408 2253550 2242626 2233700 
3639.830 2227405 2223009 2219113 2215383 2212752 2214117 2223043 2242026 
3643.688 2271170 2307210 2344086 2373903 2389895 2386630 2362776 2319469 
3647.545 2260145 2189207 2110489 2028391 1949403 1881843 1836355 1821880 
3651.402 1841812 1893224 1966411 2048298 2124374 2182547 2214983 2219379 
3655.260 2199597 2165530 2130400 2106361 2101966 2119246 2155440 2204226 
3659.117 2258080 2310708 2357112 2395392 2426745 2455001 2485625 2523449 
3662.975 2571710 2631776 2702853 2784246 2877428 2985275 3112305 3262974 
3666.832 3440012 3644921 3882755 4166180 4523677 4997725 5640262 6496262 
3670.689 7583408 8889030 10376474 12003557 13725903 15494250 17244348 
3674.065 18855404 20146434 20904686 20940568 20191210 18751534 16829488 
3677.440 14652356 12410421 10252425 8279157 6566191 5165110 4090348 3321267 
3681.297 2804521 2474128 2264375 2124773 2027059 1958389 1914290 1891161 
3685.155 1880778 1870129 1845671 1795861 1716350 1611178 1492666 1375615 
3689.012 1273550 1195064 1142405 1113836 1106827 1118520 1145096 1182439 
3692.870 1225400 1268598 1307746 1340316 1365843 1385487 1400877 1413310 
3696.727 1424080 1433555 1441766 1448647 1453335 1454199 1448548 1433621 
3700.584 1407326 1370363 1326623 1283419 1248627 1228357 1225466 1238990 
3704.442 1264776 1297975 1334301 1370762 1405963 1438508 1467132 1489374 
3708.299 1502241 1502906 1489607 1462577 1424114 1378274 1329781 1284051 
3712.157 1246434 1221579 1213139 1222609 1249092 1288338 1335065 1382496 
3716.014 1423748 1455230 1475577 1486581 1492333 1496523 1501111 1506198 
3719.872 1509722 1509124 1503704 1494528 1484952 1477970 1475444 1476408 
3723.729 1477738 1475144 1465071 1447417 1424911 1403071 1388977 1388545 
3727.586 1404733 1436713 1479865 1527644 1572435 1606888 1625945 1627574 
3731.444 1614238 1591524 1567414 1547928 1534062 1522058 1504569 1474945 
3735.301 1431128 1378008 1326291 1288836 1274314 1284350 1315257 1360226 
3739.159 1412578 1468695 1527278 1587466 1646200 1696491 1725265 1717348 
3743.016 1660069 1552084 1411847 1275178 1183934 1162604 1208919 1299670 
3746.874 1404368 1495791 1553082 1566815 1537952 1476873 1399249 1319943 
3750.731 1250155 1194931 1157056 1139781 1146890 1180279 1238193 1313695 
3754.588 1395592 1472152 1534028 1574896 1593752 1593220 1578055 1552550 
3758.446 1519963 1482259 1442398 1405498 1378839 1369565 1381399 1412213 
3762.303 1455263 1499282 1533430 1550654 1549457 1534494 1515076 1501044 
3766.161 1498218 1506796 1521160 1532831 1535026 1523455 1499648 1469193 
3770.018 1440935 1422684 1419293 1431593 1456327 1488709 1523122 1554678 
3773.875 1580949 1600935 1615868 1627874 1638783 1648694 1656244 1657508 
3777.733 1648761 1627574 1595248 1556208 1519199 1492167 1480264 1484254 
3781.590 1499714 1519731 1537653 1548593 1551286 1547595 1541310 1536289 
3785.448 1534727 1536655 1540978 1546165 1551419 1556640 1562426 1569043 
3789.305 1575927 1581979 1586236 1588597 1590426 1594350 1602565 1616200 
3793.163 1633594 1651089 1663595 1667187 1660601 1646399 1630634 1622053 
3797.020 1626776 1646931 1678529 1713157 1738406 1742032 1714920 1654980 
3800.877 1570606 1480131 1407592 1372756 1382994 1432524 1505201 1581813 
3804.735 1641809 1670014 1659138 1612043 1542574 1471421 1419759 1399714 
3808.592 1412512 1450975 1504669 1563656 1621854 1677398 1730721 1782487 
3812.450 1831663 1873391 1900313 1904506 1880079 1827770 1756503 1684749 
3816.307 1632596 1614604 1634392 1682853 1743562 1795928 1821248 1806741 
3820.165 1749051 1657541 1554811 1468628 1419825 1417266 1454399 1516306 
3824.022 1585305 1645900 1688874 1711227 1716483 1712558 1708899 1712724 
3827.879 1726463 1748319 1773737 1796693 1812830 1819651 1817688 1809736 
3831.737 1800020 1793399 1793765 1803248 1821647 1846403 1872658 1893524 
3835.594 1901977 1892326 1861477 1811932 1750548 1688109 1635590 1600071 
3839.452 1584507 1586269 1600037 1619060 1637984 1652985 1662364 1666622 
3843.309 1667553 1668484 1672941 1683918 1703743 1732750 1769678 1811932 
3847.167 1856619 1901444 1945342 1988512 2031353 2073333 2110956 2136494 
3851.024 2138359 2103065 2019203 1885038 1714055 1537054 1390440 1300867 
3854.881 1275743 1305021 1370263 1452969 1540313 1624049 1699618 1765785 
3858.739 1821481 1865637 1897917 1917652 1925373 1922777 1912160 1894921 
3862.596 1872259 1844074 1810701 1775134 1743196 1722770 1721074 1741067 
3866.454 1779026 1825041 1864306 1882475 1869331 1822945 1752444 1677930 
3870.311 1621787 1598973 1612409 1652718 1703577 1749018 1777796 1786878 
3874.168 1781688 1773238 1773038 1789374 1823378 1869331 1917685 1957490 
3878.026 1979658 1978526 1953796 1910796 1860313 1814327 1784217 1776165 
3881.883 1790239 1819451 1853125 1879613 1887866 1871727 1832062 1778627 
3885.741 1727528 1695760 1695094 1727827 1785814 1855288 1920381 1967342 
3889.598 1986348 1974233 1935857 1882575 1828435 1786579 1765319 1766417 
3893.456 1787577 1823278 1868099 1917219 1966643 2013278 2054124 2086184 
3897.313 2107060 2114884 2109857 2093675 2069971 2043704 2018670 1997200 
3901.170 1979458 1963548 1946174 1925306 1900645 1874023 1849764 1832661 
3905.028 1826239 1832295 1849332 1873956 1902276 1930332 1955327 1976429 
3908.885 1993771 2007985 2020368 2031420 2041473 2050928 2060083 2069571 
3912.743 2080025 2091345 2102232 2110722 2113752 2108525 2093975 2071203 
3916.600 2043437 2015541 1992673 1978027 1973001 1976729 1987380 2003324 
3920.458 2023098 2045668 2069771 2093409 2113320 2125939 2128203 2119280 
3924.315 2101067 2078194 2056321 2041040 2034982 2037978 2046866 2057919 
3928.172 2067607 2073366 2075264 2073500 2069271 2063079 2054856 2044236 
3932.030 2031786 2019170 2009083 2004090 2006087 2014642 2028091 2043371 
3935.887 2057053 2067407 2074099 2077894 2080990 2084952 2090246 2096106 
3939.745 2100468 2101333 2096705 2086584 2071735 2054490 2037945 2024862 
3943.602 2017339 2016506 2022032 2031952 2044369 2056154 2064844 2068872 
3947.459 2067640 2062447 2055089 2048364 2044369 2044403 2048797 2056487 
3951.317 2066575 2078027 2089880 2101799 2113120 2123108 2131166 2136294 
3955.174 2137959 2136527 2132964 2128702 2125473 2124540 2126471 2131233 
3959.032 2138092 2145917 2154009 2161401 2167662 2172457 2176120 2178484 
3962.889 2180349 2182280 2185077 2189207 2194469 2200596 2206857 2212885 
3966.747 2217647 2221278 2223709 2224874 2224874 2223475 2220512 2216115 
3970.604 2211020 2205691 2201229 2198365 2197133 2197199 2197832 2198698 
3974.461 2199864 2202228 2206924 2215150 2226872 2240827 2254882 2266606 
3978.319 2274001 2276466 2274734 2271170 2268239 2268005 2271536 2278098 
3982.176 2285792 2292354 2295585 2293753 2286791 2275233 2260944 2246523 
3986.034 2233933 2225374 2221777 2223076 2228305 2235332 2242326 2247688 
3989.891 2250553 2251618 2251851 2253051 2255948 2260645 2266707 2272369 
3993.749 2276266 2277598 2276299 2273101 2269404 2266074 2264108 2263309 
3997.606 2263143 2262676 2260811 2256914 2250519 2241427 2230036 
##END=
