
##TITLE=Z408_3_c
##JCAMP-DX=5.01  $$ Nicolet v. 1
##DATATYPE=INFRARED SPECTRUM
##ORIGIN=UniL
##OWNER=Nicolet
##LONGDATE=2011/09/16
##TIME=11:00:21
##SPECTROMETER/DATA SYSTEM=Nicolet iS5
##DATA PROCESSING=
Ratio against background
%Transmittance->Absorbance
Truncated
ElementMultiply or ElementDivide
##COMMENTS=
Number of sample scans: 32
Collection length: 51.15 sec
Sample gain: 2.0
Background collected on: Ven Sep 16 10:46:28 2011 (GMT+02:00);
Number of background scans: 32
Background gain: 2.0
Sample spacing:  1.000
Number of scan points: 12415
Resolution points: 8192
Number of FFT points: 65536
Apodization: N-B fort;
Phase correction: Mertz;
Laser frequency: 15798.0 cm-1
Number of rejected sample scans: 0
Number of rejected background scans: 0
Bench serial number: ASB1000141;
##RESOLUTION=4.000
##XUNITS=1/CM
##YUNITS=ABSORBANCE
##FIRSTX=649.893372
##LASTX=4000.122314
##FIRSTY=0.079387
##MAXX=4000.122314
##MINX=649.893372
##MAXY=0.281891
##MINY=-0.003023
##XFACTOR=1.000000
##YFACTOR=1.000000E-009
##NPOINTS=6950
##DELTAX=0.482117
##ZPD=6100
##XYDATA=(X++(Y..Y))
649.893 79386808 79828424 80333320 80942704 81667904 82492824 83386872 
653.268 84328800 85318464 86378080 87533720 88800800 90172024 91621968 
656.643 93124920 94673520 96285760 97999584 99852488 101859800 104009920 
660.018 106273048 108626920 111076408 113659480 116427792 119422024 
662.911 122641304 126043320 129559056 133131520 136741232 140389952 
665.803 144074384 147714688 151071104 153751840 155307472 155457536 
668.696 154260288 152046656 149213344 146036176 142653840 139103104 
671.589 135384976 131525832 127594960 123684680 119894616 116292096 
674.481 112901072 109718552 106733904 103945592 101367928 99019096 96906784 
677.856 95016936 93315968 91759136 90303928 88923144 87603240 86341096 
681.231 85134328 83975440 82853360 81759328 80693664 79669456 78707584 
684.606 77830312 77049728 76363712 75755664 75201880 74680448 74173472 
687.981 73670464 73163368 72640888 72087112 71482712 70809096 70057792 
691.355 69231504 68344448 67414704 66459216 65487912 64503552 63506424 
694.730 62498760 61488696 60490040 59518376 58585964 57700012 56862052 
698.105 56071396 55328580 54637644 54004388 53435036 52930352 52484168 
701.480 52083752 51712744 51355588 51001300 50645176 50289380 49939268 
704.855 49600320 49276516 48968276 48673556 48389224 48112256 47841164 
708.229 47575896 47317440 47068448 46833544 46620200 46439372 46307164 
711.604 46242256 46262192 46378792 46589544 46872480 47181496 47455056 
714.979 47621704 47615196 47393416 46945092 46296732 45504716 44652256 
718.354 43834716 43142012 42660876 42461156 42588656 43060856 43851796 
721.729 44886720 46030012 47105780 47923480 48300524 48119916 47351768 
725.104 46067700 44418548 42603236 40824308 39229148 37901656 36855772 
728.478 36055388 35438820 34944808 34531104 34172600 33858372 33583432 
731.853 33340108 33118092 32908414 32705016 32509032 32325596 32161254 
735.228 32018590 31895764 31786944 31686246 31589988 31498026 31411320 
738.603 31329974 31250742 31168214 31077056 30976198 30869746 30767124 
741.978 30678642 30610802 30564158 30532592 30508100 30483112 30455496 
745.352 30427560 30404320 30389004 30379836 30371164 30354820 30325612 
748.727 30283370 30233706 30185752 30147748 30123882 30113192 30111700 
752.102 30115076 30121680 30132726 30151158 30178898 30214700 30255232 
755.477 30295982 30334672 30373048 30416188 30470068 30538918 30622996 
758.852 30719894 30825992 30940902 31067908 31213998 31387776 31595334 
762.227 31839960 32122220 32442868 32806344 33223454 33710676 34291772 
765.601 34994764 35848860 36884016 38123164 39571636 41205836 42963064 
768.976 44745616 46424476 47881676 49045684 49927632 50634940 51354508 
772.351 52306940 53652652 55430964 57502408 59572340 61221524 62015772 
775.726 61653672 60026208 57273664 53720928 49819032 46013176 42638764 
779.101 39910360 37889180 36523204 35690228 35251988 35089588 35109884 
782.475 35256624 35495952 35807156 36178500 36604448 37086780 37633100 
785.850 38254784 38962996 39765056 40664908 41666212 42775308 44005844 
789.225 45378160 46915820 48644648 50589332 52772092 55219000 57958888 
792.600 61022884 64440324 68225832 72368016 76815200 81475920 86215928 
795.975 90859176 95218840 99096848 102307528 104712968 106235432 106882720 
799.350 106748648 106011040 104900200 103643128 102448288 101450872 
802.242 100691488 100112600 99570688 98877120 97827216 96269304 94141272 
805.617 91492032 88472384 85299384 82211696 79389352 76927128 74812448 
808.992 72943832 71163488 69307632 67263152 64981348 62489004 59862764 
812.367 57206944 54620212 52173008 49910092 47849188 45992476 44335316 
815.742 42872032 41596960 40502908 39580164 38816340 38196712 37707864 
819.116 37338240 37078156 36920304 36858264 36886792 37004004 37212532 
822.491 37520992 37942224 38492112 39184356 40027120 41020400 42154536 
825.866 43410076 44755420 46146880 47530240 48835812 49991312 50930916 
829.241 51605416 52001092 52145060 52109156 51993848 51919716 52010432 
832.616 52363940 53046396 54072492 55398136 56912928 58443752 59787808 
835.990 60716632 61031084 60605836 59406704 57510012 55077096 52335268 
839.365 49515568 46814980 44384856 42304404 40595304 39237052 38186616 
842.740 37393136 36806612 36385512 36093772 35900036 35780996 35719548 
846.115 35706884 35741456 35825864 35962120 36149476 36382592 36654052 
849.490 36957968 37291664 37657132 38058416 38499140 38979160 39494516 
852.865 40038676 40606220 41195160 41808872 42454432 43140808 43877640 
856.239 44672824 45535476 46476320 47509096 48651020 49922840 51344812 
859.614 52940644 54735540 56756160 59030568 61580056 64407156 67479832 
862.989 70719904 73998440 77127792 79897200 82092432 83520912 84058744 
866.364 83659320 82366552 80300832 77648144 74632720 71467440 68350152 
869.739 65434588 62816032 60547400 58640988 57083320 55846800 54899292 
873.113 54210576 53750664 53492408 53409776 53476440 53670348 53974444 
876.488 54378596 54880868 55484608 56194884 57013644 57935492 58944524 
879.863 60015900 61115248 62201752 63236976 64183928 65016100 65721520 
883.238 66304400 66784152 67189224 67552680 67902064 68254832 68619920 
886.613 68999832 69397816 69823472 70294272 70833200 71464040 72201616 
889.987 73048488 73992120 75009312 76069200 77138880 78190096 79195472 
893.362 80129968 80970656 81693856 82278888 82710872 82981048 83088440 
896.737 83038696 82843896 82521552 82095080 81596568 81062856 80533688 
900.112 80047976 79634944 79312304 79084704 78946304 78885512 78890800 
903.487 78955008 79076000 79255912 79498720 79808792 80191216 80651608 
906.862 81198888 81844848 82601328 83479592 84485984 85621464 86883496 
910.236 88268640 89775776 91407408 93168856 95065968 97102232 99278840 
913.611 101596040 104058504 106679008 109480328 112494536 115753808 
916.504 119286560 123107856 127215136 131583200 136161008 140871856 
919.397 145597248 150180832 154436864 158146032 161104192 163158416 
922.289 164242144 164411984 163854544 162885648 161881712 161253728 
925.182 161393392 162585488 164993920 168615248 173281872 178651104 
928.075 184239744 189517360 193909984 196909248 198150256 197409952 
930.967 194645040 189967520 183626032 175965056 167385760 158344368 
933.860 149276336 140573648 132575376 125510824 119519664 114660376 
936.753 110923800 108263432 106615472 105915848 106095176 107068000 
939.646 108724536 110901040 113378648 115910592 118216496 120039312 
942.538 121188824 121552376 121124536 119994584 118335920 116359488 
945.431 114277888 112286720 110522104 109063576 107938152 107131808 
948.324 106607768 106321504 106235008 106317192 106543728 106894504 
951.216 107348808 107885472 108486184 109136672 109830112 110565608 
954.109 111344656 112166928 113027592 113917232 114825312 115744416 
957.002 116672376 117612344 118569816 119548504 120547512 121561360 
959.894 122582904 123607464 124634584 125668824 126715304 127776624 
962.787 128850344 129929944 131008208 132081432 133152040 134228000 
965.680 135318272 136428560 137557936 138699936 139846624 140992864 
968.573 142140032 143295296 144468384 145666480 146891168 148139360 
971.465 149406800 150692768 152002720 153346320 154734480 156172896 
974.358 157660160 159187920 160745664 162326928 163931968 165566416 
977.251 167237104 168945904 170686064 172444064 174202176 175945872 
980.143 177666432 179359456 181021424 182643792 184210784 185703952 
983.036 187106944 188413568 189631392 190779104 191881040 192956912 
985.929 194018864 195071888 196117456 197161312 198215600 199296048 
988.821 200418288 201589472 202806032 204055760 205324640 206604672 
991.714 207896720 209209104 210551264 211927040 213331200 214751600 
994.607 216175456 217597120 219020512 220457232 221918144 223407520 
997.500 224918512 226437376 227949520 229448432 230938896 232434512 
1000.392 233949744 235492128 237058704 238639456 240225472 241816016 
1003.285 243422160 245062128 246754176 248505504 250309648 252149136 
1006.178 254005904 255868976 257738976 259625104 261535584 263468272 
1009.070 265407328 267325168 269191840 270985984 272695744 274316576 
1011.963 275841536 277252256 278517408 279601152 280472096 281118304 
1014.856 281550144 281796576 281891232 281861280 281722848 281482080 
1017.748 281144640 280724704 280245056 279734432 279216704 278702592 
1020.641 278190304 277672704 277149472 276637600 276173568 275802240 
1023.534 275569056 275502656 275610080 275879712 276290144 276819584 
1026.427 277446464 278147584 278888896 279614304 280250496 280711360 
1029.320 280908064 280769696 280242560 279288416 277881248 275997088 
1032.213 273617696 270738592 267379648 263591968 259449840 255044752 
1035.106 250463904 245774048 241023760 236243152 231454320 226682944 
1037.999 221960704 217323328 212809680 208453392 204284304 200331872 
1040.892 196622512 193179600 190014480 187114368 184432016 181881008 
1043.785 179352848 176724480 173888512 170779696 167380624 163727040 
1046.678 159890624 155970048 152067760 148273216 144665520 141300432 
1049.571 138211376 135412128 132896080 130640240 128609416 126765880 
1052.464 125074296 123506000 122043136 120674016 119388968 118177032 
1055.357 117023360 115909808 114820304 113741664 112666080 111589640 
1058.250 110508984 109418520 108310888 107177736 106014800 104824728 
1061.144 103618264 102412208 101224640 100072216 98965656 97911320 96912752 
1064.519 95971928 95090752 94269320 93502656 92778736 92076952 91372656 
1067.894 90640392 89859840 89021840 88127896 87190584 86227968 85263136 
1071.269 84319264 83416992 82576008 81811728 81134496 80549208 80054224 
1074.645 79642544 79302792 79022496 78788888 78588520 78407544 78228888 
1078.020 78031752 77794640 77497680 77128192 76685080 76179864 75635520 
1081.395 75079728 74543368 74054432 73635792 73308568 73090712 72999016 
1084.770 73049896 73257296 73631712 74180112 74905944 75809864 76889944 
1088.146 78139272 79541736 81065160 82661768 84263584 85788968 87160328 
1091.521 88308912 89191232 89796360 90144176 90281288 90267256 90172024 
1094.896 90061640 89992136 90011416 90153872 90442232 90889400 91497224 
1098.271 92256016 93140440 94109256 95100280 96027224 96793064 97289608 
1101.646 97414728 97095680 96294936 95023736 93335272 91320928 89091480 
1105.022 86754608 84414232 82153640 80030512 78083432 76328792 74765496 
1108.397 73378392 72143480 71031504 70010368 69052704 68135160 67239240 
1111.772 66352612 65466104 64573208 63670212 62757300 61838624 60922952 
1115.147 60022484 59150876 58319436 57537132 56808496 56135188 55517288 
1118.523 54955016 54448904 53999732 53607252 53269288 52981032 52735992 
1121.898 52526200 52341736 52170988 51998180 51801064 51553888 51226836 
1125.273 50791524 50228748 49531204 48707620 47779688 46780844 45749060 
1128.648 44718768 43720556 42775160 41893884 41079836 40329552 39635660 
1132.024 38987788 38375804 37790596 37225632 36677776 36147640 35638580 
1135.399 35154900 34701084 34280152 33893840 33542838 33227996 32950554 
1138.774 32712628 32516460 32363470 32253894 32186660 32160364 32173422 
1142.149 32225594 32317210 32448762 32619782 32828144 33069570 33338964 
1145.525 33630688 33939264 34259824 34587360 34915976 35239588 35551684 
1148.900 35846876 36122540 36378844 36618724 36846108 37064876 37277588 
1152.275 37485884 37690988 37895072 38101388 38313916 38536104 38769716 
1155.650 39013308 39263236 39514184 39759864 39994968 40214132 40411512 
1159.026 40580752 40714248 40803888 40842580 40824892 40747400 40608404 
1162.401 40406856 40141732 39811648 39416356 38957632 38440632 37874104 
1165.776 37268956 36636712 35988432 35333316 34678692 34031528 33398502 
1169.151 32786976 32204718 31658162 31152728 30691232 30274878 29904354 
1172.527 29580860 29306660 29085490 28921308 28817270 28775172 28795352 
1175.902 28877854 29023672 29235276 29516842 29873616 30311116 30833886 
1179.277 31447120 32156334 32969144 33895560 34946172 36130932 37458068 
1182.652 38931500 40552340 42319084 44229024 46276532 48450636 50732568 
1186.028 53089228 55472072 57822068 60065552 62125208 63927956 65402812 
1189.403 66492728 67157240 67374888 67148536 66504972 65495304 64184584 
1192.778 62647552 60962560 59197580 57411256 55649020 53938616 52295764 
1196.153 50723592 49217580 47768588 46367216 45007284 43687944 42414760 
1199.529 41198148 40052412 38991416 38026228 37163584 36404392 35745412 
1202.904 35179152 34697312 34290548 33948508 33660904 33415570 33198812 
1206.279 32997422 32799128 32594424 32378000 32148160 31906248 31655312 
1209.654 31399566 31144186 30895254 30660794 30450378 30273990 30141888 
1213.030 30062270 30041568 30084286 30193886 30373686 30627762 30959796 
1216.405 31372640 31866882 32440834 33090558 33811704 34601428 35458272 
1219.780 36383712 37379372 38447548 39590072 40808692 42106668 43488736 
1223.155 44961676 46532340 48205916 49982796 51857328 53817944 55847176 
1226.531 57921024 60010916 62081440 64088488 65985112 67720248 69244752 
1229.906 70519952 71518448 72228656 72655104 72819480 72761296 72533744 
1233.281 72210304 71877336 71624728 71549320 71738992 72266536 73192896 
1236.656 74560368 76395472 78712072 81510376 84776200 88474696 92551800 
1240.031 96928112 101498632 106149448 110753880 115181624 119314560 
1242.925 123035408 126236304 128828856 130740208 131925168 132368680 
1245.818 132084488 131110952 129503328 127335144 124690216 121659304 
1248.711 118341048 114823456 111175216 107436208 103609856 99668672 95565120 
1252.086 91255064 86712816 81947440 77004896 71968528 66946512 62048260 
1255.461 57382404 53037112 49068056 45504272 42344472 39566044 37129984 
1258.836 34991316 33105362 31428524 29924908 28566092 27329672 26200468 
1262.212 25167260 24220790 23353296 22555892 21820188 21138704 20506080 
1265.587 19919508 19378520 18883468 18433678 18027146 17659846 17327444 
1268.962 17026892 16757129 16519679 16316896 16151417 16023885 15933614 
1272.337 15878966 15859205 15874945 15929181 16025707 16168028 16357597 
1275.713 16593101 16869444 17177986 17506686 17838848 18153574 18429150 
1279.088 18642812 18776756 18821804 18779072 18659414 18479798 18259202 
1282.463 18013226 17750754 17475850 17188052 16887564 16577162 16263576 
1285.838 15956404 15666556 15402819 15171598 14976338 14818739 14699001 
1289.214 14616853 14570662 14556853 14569530 14602323 14649169 14706405 
1292.589 14773863 14854156 14950788 15066719 15202479 15357506 15530821 
1295.964 15723273 15938152 16180959 16458038 16774658 17133728 17537046 
1299.339 17985218 18479592 19021260 19609774 20238974 20894744 21555370 
1302.715 22190918 22768766 23260718 23644018 23906750 24047966 24076612 
1306.090 24009446 23868452 23680756 23473800 23273652 23103126 22976716 
1309.465 22900810 22873112 22885370 22926516 22985518 23054590 23128110 
1312.840 23201750 23271240 23330708 23373538 23393786 23387492 23353328 
1316.216 23292602 23207902 23101450 22975458 22832182 22675268 22510034 
1319.591 22343888 22184256 22036500 21903222 21783606 21675620 21578456 
1322.966 21494648 21430906 21397106 21403092 21458126 21568426 21738212 
1326.341 21971006 22269942 22636800 23069196 23557290 24082918 24618368 
1329.717 25132504 25597090 25990372 26302826 26536036 26700872 26811556 
1333.092 26883356 26929712 26961372 26987778 27017890 27059712 27120300 
1336.467 27205060 27317216 27460286 27639384 27862574 28141624 28488992 
1339.842 28914012 29420176 30003472 30653432 31355008 32091290 32844190 
1343.218 33591808 34311132 34976772 35564020 36054956 36440608 36722232 
1346.593 36908004 37008372 37029588 36969440 36816788 36554164 36164924 
1349.968 35637892 34972856 34182064 33289772 32328236 31332358 30339860 
1353.343 29385076 28497980 27704750 27023602 26464190 26027310 25705494 
1356.719 25485798 25353706 25297190 25307552 25378716 25505968 25683382 
1360.094 25903950 26162284 26456970 26793830 27184600 27644750 28185888 
1363.469 28810118 29508578 30263510 31053316 31854652 32645858 33404120 
1366.844 34101704 34707148 35184576 35497064 35615484 35520332 35205128 
1370.219 34674992 33944852 33037640 31981140 30813506 29583982 28348802 
1373.595 27174476 26123292 25240438 24547540 24039666 23694018 23481774 
1376.970 23382456 23390498 23517448 23788470 24238170 24908010 25839206 
1380.345 27072794 28641296 30554168 32779366 35222808 37734972 40103972 
1383.720 42089148 43469988 44050840 43705604 42399412 40212568 37346512 
1387.096 34087868 30773206 27687232 25012062 22822508 21099328 19772242 
1390.471 18751984 17957902 17324306 16801796 16359489 15978955 15652986 
1393.846 15383663 15177053 15039173 14970713 14965328 15011528 15096907 
1397.221 15209823 15342230 15488996 15646219 15810888 15979607 16148495 
1400.597 16313903 16472045 16618919 16751034 16865896 16963218 17046398 
1403.972 17122252 17200186 17287308 17387068 17496682 17610052 17720070 
1407.347 17823796 17923784 18028456 18148220 18292308 18465486 18666990 
1410.722 18892398 19136968 19398476 19678380 19980182 20306672 20657174 
1414.098 21027262 21411412 21805380 22210026 22632470 23085654 23586326 
1417.473 24150938 24792334 25514542 26307260 27145660 27994266 28814436 
1420.848 29571460 30240276 30810128 31285960 31692948 32074776 32491464 
1424.223 33000424 33642752 34434540 35367932 36423992 37584756 38843008 
1427.599 40198428 41649072 43183036 44771036 46370056 47937612 49441860 
1430.974 50872092 52236644 53557476 54859400 56164864 57495032 58875384 
1434.349 60343512 61953632 63771276 65856032 68238392 70891744 73741528 
1437.724 76694096 79666512 82595360 85421064 88076920 90462480 92446680 
1441.100 93897216 94687040 94726800 93979608 92456192 90212032 87333128 
1444.475 83939296 80165752 76148272 72030240 67943600 64012536 60361176 
1447.850 57093336 54277588 51930176 50013616 48452900 47163324 46083284 
1451.225 45185532 44479552 43993120 43753428 43765884 44011088 44448832 
1454.601 45033268 45729952 46516000 47385172 48337372 49370392 50469960 
1457.976 51613104 52781972 53964876 55156508 56353828 57552036 58741724 
1461.351 59904596 61017204 62043332 62932796 63630276 64080424 64248888 
1464.726 64139300 63797876 63298300 62711396 62093444 61474992 60868092 
1468.102 60275292 59693292 59112944 58515324 57869160 57134112 56271820 
1471.477 55268704 54156864 53022060 51974872 51113400 50490316 50107836 
1474.852 49940456 49957672 50141900 50490764 51011584 51708864 52576908 
1478.227 53597468 54746708 56000224 57343308 58775372 60308104 61961660 
1481.603 63755816 65706372 67821216 70106112 72570784 75234232 78122696 
1484.978 81257688 84641736 88232624 91921368 95538480 98842000 101541496 
1488.353 103350416 104004656 103331792 101304712 98065232 93903096 89168408 
1491.728 84202840 79251616 74444408 69833824 65412984 61161556 57087592 
1495.104 53236212 49697196 46587408 44008556 42016872 40607640 39733940 
1498.479 39326312 39315576 39645392 40267164 41136036 42209048 43436700 
1501.854 44765120 46140284 47495048 48751432 49815688 50554300 50800200 
1505.229 50363236 49080036 46911128 44015012 40717636 37356480 34149228 
1508.604 31163088 28371580 25723704 23187070 20757052 18460230 16336953 
1511.980 14418554 12722054 11242379 9958288 8841245 7863119 6999742 6230269 
1515.837 5539169 4917424 4362697 3879211 3472175 3140606 2873525 2648944 
1519.695 2438007 2216815 1976762 1735245 1528209 1392468 1342776 1365278 
1523.552 1425842 1486814 1521792 1521094 1494361 1463575 1451972 1470856 
1527.409 1515741 1570673 1618794 1650656 1666555 1672808 1675735 1675137 
1531.267 1663728 1630002 1567747 1483888 1401808 1353811 1361489 1425244 
1535.124 1521460 1617530 1679760 1684084 1619892 1488909 1305453 1091546 
1538.982 876417 687677 547221 469431 459547 513118 615270 742903 868814 
1543.321 967929 1026844 1046439 1042985 1038402 1051289 1087361 1138452 
1547.179 1187721 1218887 1224071 1206760 1180711 1161807 1160843 1175329 
1551.036 1192606 1194964 1169149 1111411 1028836 934988 843782 761922 684890 
1555.376 599477 488338 337104 137196 -107407 -376272 -624855 -792769 -833084 
1559.715 -737434 -539186 -287276 -26804 210021 404125 543108 625192 658142 
1564.055 659934 652269 653961 673208 704337 731951 738589 713630 658043 
1568.395 586636 522805 491291 507512 571407 670985 788742 909951 1023157 
1572.734 1119848 1192639 1233906 1238924 1210780 1166857 1138585 1161641 
1576.592 1262317 1441500 1679760 1947705 2221910 2489924 2750533 3010966 
1580.449 3281302 3569814 3879980 4210675 4558298 4919033 5288821 5662014 
1584.306 6028774 6373047 6674555 6914762 7080362 7169485 7192661 7172617 
1588.164 7137821 7119667 7149139 7251248 7446502 7749128 8164213 8684539 
1592.021 9285504 9927200 10552599 11096396 11500029 11715823 11719192 
1595.396 11511630 11119442 10587670 9968221 9316546 8680382 8097334 7597131 
1599.254 7199062 6913482 6742966 6683606 6727822 6867969 7098987 7417414 
1603.111 7819496 8297461 8835903 9411478 9997040 10561834 11075933 11513229 
1606.969 11849110 12062898 12139590 12070086 11854047 11500198 11027263 
1610.344 10462542 9838696 9192900 8557289 7955372 7399551 6889277 6415684 
1614.201 5966321 5531149 5107039 4702469 4336960 4036467 3822147 3701326 
1618.059 3664669 3690967 3755065 3831039 3897231 3939292 3950660 3936416 
1621.916 3912142 3902146 3929695 4008877 4138916 4306406 4492306 4680329 
1625.774 4862000 5036137 5206119 5376202 5548230 5720965 5890711 6053838 
1629.631 6207749 6351057 6481665 6595357 6685154 6741317 6753735 6714497 
1633.489 6620084 6475174 6294609 6105248 5939045 5823073 5769145 5770287 
1637.346 5807189 5856152 5897193 5914390 5897429 5842954 5754170 5640094 
1641.203 5512155 5380328 5249514 5116628 4973023 4806348 4605278 4363868 
1645.061 4085364 3784878 3489376 3230693 3036123 2919323 2876427 2889635 
1648.918 2933366 2981339 3005861 2978069 2869823 2656278 2332294 1931763 
1652.776 1544336 1281558 1207457 1305885 1508492 1745591 1966976 2147582 
1656.633 2279463 2363975 2407886 2418948 2404188 2367540 2311074 2235732 
1660.490 2142954 2036014 1921978 1810401 1712990 1640645 1600137 1591889 
1664.348 1610047 1644237 1680592 1705107 1705506 1672076 1600869 1494927 
1668.205 1366142 1233009 1116360 1033885 993798 994064 1023921 1068959 
1672.063 1113470 1142305 1143535 1109185 1039033 943256 843549 766602 731287 
1676.402 741874 786053 843682 892985 918916 916293 889034 847135 800128 
1680.742 751201 693352 610924 485685 306299 81517 -151131 -335816 -423015 
1685.082 -399909 -291581 -141823 9111 136301 227160 280503 301690 300066 
1689.421 285808 268104 254908 251062 257461 270424 281067 276359 240387 
1693.761 160298 30848 -136557 -313268 -459955 -545838 -565759 -541569 
1697.618 -509865 -505099 -552324 -655492 -793100 -916844 -974339 -940881 
1701.476 -829380 -678055 -525684 -402392 -323499 -291845 -299594 -330220 
1705.333 -362864 -378391 -366738 -328466 -272375 -209886 -151826 -104657 
1709.190 -69741 -44629 -25048 -7720 8416 21471 27767 23426 6792 -21271 
1714.012 -57715 -99291 -144374 -193625 -248732 -308235 -364056 -401001 
1717.870 -401134 -352105 -254163 -119994 30219 177502 306498 409066 485054 
1722.209 539923 582389 621475 663452 710610 761656 813473 862739 906897 
1726.549 943521 969622 982275 978954 959195 925657 883788 839267 794485 
1730.888 745990 683496 592376 458950 279244 68294 -137186 -293402 -367930 
1735.228 -359355 -292309 -202699 -122843 -73716 -65865 -97568 -157457 
1739.085 -225352 -281250 -310355 -307739 -277475 -228630 -170971 -111382 
1742.943 -54038 -298 49869 96729 140411 180419 215689 245095 267672 283090 
1747.765 291710 294628 293534 290550 288196 290019 299800 322215 360548 
1752.104 415135 482799 556345 626453 682600 715522 720135 696837 653762 
1756.444 603027 558601 529174 515341 509900 501309 478984 436064 372818 
1760.783 296485 219966 156686 116548 102893 112239 136732 166431 192385 
1765.123 206838 204054 181413 139947 85461 26110 -28825 -74280 -111084 
1769.463 -146328 -189949 -249725 -326777 -411197 -484414 -524129 -515756 
1773.320 -458399 -365215 -254759 -144473 -45987 36714 104815 161657 209391 
1777.660 247813 274436 287201 286538 277354 267175 264556 274734 297048 
1781.999 325697 352954 371823 379252 376565 368938 363035 363798 373315 
1786.339 390859 414074 439778 464787 485685 498058 496399 475203 431088 
1790.678 365589 286074 206142 142234 105909 101733 124568 164210 208529 
1795.018 248278 278315 296452 302751 297877 282692 258456 226961 191623 
1799.358 156951 128015 108825 101136 104086 115189 131926 152443 176441 
1803.697 204120 235249 268535 301458 331102 354944 372055 382800 388438 
1808.037 389897 388007 383264 376167 368772 363732 364959 375372 396099 
1812.376 425483 459447 493845 525193 551733 574493 595694 617859 642513 
1816.716 669492 697667 724947 750305 772809 792925 811414 828743 844844 
1821.056 858290 867619 870341 864565 849094 824593 794618 764478 741177 
1825.395 730391 733842 748446 766171 777523 773340 749674 709415 664049 
1829.735 630036 622238 649448 709647 792593 883257 968294 1039498 1094237 
1834.074 1135296 1168020 1198586 1230849 1266505 1305951 1349290 1397487 
1837.932 1453036 1518168 1594251 1679727 1770942 1861910 1946074 2018404 
1841.789 2075298 2117115 2148415 2179350 2223509 2293920 2399757 2541746 
1845.647 2711522 2894105 3072895 3232496 3361835 3456177 3516766 3548968 
1849.504 3559424 3553311 3532767 3497059 3444187 3373589 3287145 3189669 
1853.362 3087210 2984174 2882798 2782412 2680882 2576043 2467497 2356846 
1857.219 2246489 2138425 2033084 1929633 1826772 1724700 1625413 1532100 
1861.076 1448315 1375050 1311103 1253079 1197191 1141608 1087029 1036143 
1864.934 991009 951524 913637 871537 818950 753558 680244 610360 557771 
1869.273 534615 545928 587267 648419 716318 780344 833358 872300 896637 
1873.613 906963 904606 890362 866424 835681 801290 766635 733079 699791 
1877.953 664282 623533 575422 520748 462466 404257 349041 298143 249935 
1882.292 201965 152542 102064 53117 9476 -26208 -54137 -77294 -100848 
1886.632 -129866 -166764 -210880 -257739 -301150 -334226 -351476 -350516 
1890.489 -331313 -296547 -250288 -198361 -146328 -100384 -64705 -40885 
1894.347 -27268 -18852 -9741 4771 26441 52984 79926 102329 117708 126325 
1899.168 131595 136765 144521 155757 169115 182640 195236 207501 220662 
1903.508 235481 251593 266214 275829 277851 271684 259483 245360 233160 
1907.848 224706 219270 214330 207700 199015 189932 183866 183999 190860 
1912.187 203391 217678 230508 239558 243769 243073 235845 219667 190429 
1916.527 145781 87515 22299 -38632 -83556 -107009 -110819 -105187 -102902 
1920.866 -115556 -147719 -196009 -249626 -295322 -323598 -331578 -324194 
1924.724 -310586 -299825 -296647 -301613 -311282 -322109 -332571 -342967 
1928.581 -354753 -368559 -381966 -390706 -390871 -381238 -364387 -347602 
1932.439 -338961 -343828 -363560 -395307 -433011 -471374 -507383 -541039 
1936.296 -573138 -604275 -632101 -652614 -662341 -660455 -650761 -640737 
1940.154 -638619 -650497 -677724 -716462 -759397 -799384 -831596 -854646 
1944.011 -869361 -876636 -875975 -866154 -846941 -820021 -790620 -766641 
1947.868 -754138 -755428 -767864 -784369 -796672 -798690 -789330 -771999 
1951.726 -753046 -737335 -727444 -723640 -723442 -726518 -734060 -749276 
1955.583 -775538 -814631 -865393 -924085 -986472 -1048089 -1107913 -1165680 
1959.441 -1220928 -1271412 -1313631 -1343988 -1360702 -1367011 -1369785 
1962.816 -1376358 -1392641 -1418237 -1447596 -1473222 -1488478 -1492077 
1966.191 -1489006 -1487487 -1494553 -1511790 -1534803 -1555141 -1566168 
1969.566 -1565904 -1559400 -1555901 -1564253 -1587264 -1621564 -1657214 
1972.942 -1683652 -1694610 -1689098 -1669987 -1642657 -1606610 -1557882 
1976.317 -1489468 -1397133 -1283536 -1160558 -1045312 -952287 -891285 
1979.692 -861756 -856564 -865426 -879645 -895815 -914529 -937575 -965148 
1983.550 -995662 -1023562 -1044221 -1054700 -1055890 -1050932 -1043759 
1986.925 -1035759 -1025678 -1011595 -992257 -969281 -947956 -933673 -930003 
1990.782 -935789 -945675 -951196 -945047 -925507 -896079 -864467 -838938 
1994.640 -824321 -821113 -825015 -830571 -833151 -830869 -824916 -816251 
1998.497 -805999 -794192 -780168 -765648 -754733 -753609 -768956 -805767 
2002.354 -863277 -936219 -1017215 -1096940 -1170108 -1234541 -1291498 
2005.730 -1342403 -1388414 -1428673 -1461037 -1485902 -1504790 -1521398 
2009.105 -1539492 -1558542 -1573960 -1578912 -1566432 -1533317 -1484449 
2012.480 -1428970 -1379397 -1344649 -1328100 -1325358 -1328364 -1327307 
2015.855 -1316175 -1292852 -1259815 -1219903 -1176122 -1129295 -1080382 
2019.231 -1031363 -986472 -950469 -927953 -918299 -916745 -915290 -906528 
2023.088 -885994 -856398 -825379 -800740 -789462 -791744 -803518 -817342 
2026.946 -826569 -829414 -827628 -824817 -823362 -823328 -820683 -811125 
2030.803 -791347 -761580 -724864 -684771 -642689 -596533 -542131 -476040 
2034.660 -397492 -311083 -223431 -141061 -67753 -3479 54972 109952 161624 
2039.000 206010 238232 255008 257660 252554 249935 258688 283454 321784 
2043.340 365390 404622 432448 447009 453079 459215 474606 506550 557971 
2047.679 627481 711241 802518 892553 973474 1035811 1073078 1083076 1069258 
2052.019 1040361 1008710 987024 983072 998880 1028637 1061784 1088955 
2055.876 1103173 1103704 1095134 1084471 1076698 1075237 1079322 1086863 
2059.734 1095632 1105033 1115696 1128751 1143668 1158186 1169049 1174398 
2063.591 1173269 1168684 1164830 1165129 1171442 1182904 1195729 1207457 
2067.448 1216960 1225599 1235933 1250654 1269362 1289634 1307912 1320375 
2071.306 1326058 1327221 1328052 1332539 1342178 1355240 1367804 1375748 
2075.163 1376579 1371427 1363782 1357600 1356004 1359029 1365078 1371593 
2079.021 1377643 1384290 1394429 1411382 1436912 1470224 1508492 1547362 
2082.878 1582578 1611777 1634293 1649825 1658606 1660468 1654481 1640811 
2086.736 1620490 1595947 1570606 1546864 1525716 1505932 1484919 1460549 
2090.593 1430829 1396988 1360790 1325792 1294885 1270758 1254708 1247962 
2094.450 1251318 1264444 1287274 1316885 1349689 1381698 1409819 1433289 
2098.308 1454033 1475710 1500945 1530570 1561960 1590094 1610181 1619992 
2102.165 1620158 1616034 1614038 1619626 1635423 1660501 1691635 1725398 
2106.023 1759996 1795595 1833792 1876119 1921612 1967709 2011114 2049030 
2109.880 2081124 2109590 2138126 2169726 2205758 2244657 2284227 2322034 
2113.738 2357479 2392494 2430143 2472695 2520683 2572310 2623209 2669380 
2117.595 2708721 2740863 2767973 2792449 2816227 2839572 2862085 2882231 
2121.452 2900076 2916621 2933099 2950580 2968895 2986343 3000989 3011800 
2125.310 3019340 3025546 3033387 3044365 3058179 3071960 3081804 3084174 
2129.167 3077833 3065086 3049904 3037324 3031085 3032720 3041629 3055810 
2133.025 3074029 3095253 3118913 3144044 3168742 3189903 3204656 3210932 
2136.882 3209430 3202153 3192206 3182259 3172647 3161866 3147882 3129459 
2140.740 3106799 3082672 3059480 3038358 3017638 2993883 2962123 2920157 
2144.597 2868956 2812058 2755602 2704120 2658712 2617675 2576876 2532181 
2148.454 2482259 2429044 2375202 2324166 2276132 2228238 2175887 2114185 
2152.312 2040342 1954628 1858949 1754940 1642840 1523488 1396955 1269362 
2156.169 1153003 1064508 1024153 1047602 1137887 1285679 1469193 1661366 
2160.027 1836488 1978759 2080724 2143886 2174954 2182347 2175887 2165231 
2163.884 2159536 2166962 2191338 2231702 2281329 2331028 2368606 2385930 
2167.741 2379533 2349983 2301747 2239229 2165697 2082722 1990709 1890861 
2171.599 1787045 1685847 1595514 1523189 1473815 1447783 1441799 1449977 
2175.456 1466035 1483955 1498650 1505201 1499748 1480131 1446387 1402340 
2179.314 1355007 1313595 1286011 1277172 1287740 1313662 1348127 1384390 
2183.171 1417332 1443960 1462976 1473582 1473947 1463375 1442132 1413277 
2187.029 1383592 1360923 1353113 1364879 1396722 1443727 1499714 1557172 
2190.886 1610147 1655978 1693198 1721207 1740501 1751047 1752844 1747987 
2194.743 1739537 1730289 1723369 1720409 1720741 1723269 1727394 1733582 
2198.601 1744161 1761826 1788009 1821381 1857451 1889397 1910763 1917419 
2202.458 1908067 1884971 1852992 1816024 1778627 1743662 1713323 1689739 
2206.316 1674771 1669482 1673008 1682986 1694895 1704708 1709864 1711261 
2210.173 1712591 1718612 1733116 1756769 1788076 1822313 1855920 1887700 
2214.031 1918717 1951932 1989244 2029988 2069837 2102998 2123908 2129701 
2217.888 2122776 2108458 2093209 2082755 2078827 2079193 2079825 2076296 
2221.745 2066775 2051893 2034549 2018271 2005755 1998465 1996800 2000861 
2225.603 2011081 2027791 2050861 2078693 2108259 2134929 2155008 2166230 
2229.460 2168860 2165330 2158770 2151978 2145851 2139657 2131966 2122975 
2233.318 2113686 2107360 2107060 2115683 2132465 2155274 2179949 2201995 
2237.175 2219079 2230869 2238995 2247255 2258879 2276033 2299715 2329062 
2241.032 2361310 2393993 2423746 2447903 2464997 2475028 2479826 2483026 
2244.890 2488491 2499354 2517284 2542113 2570810 2600175 2626942 2649011 
2248.747 2666046 2679515 2690817 2702453 2716123 2733128 2754601 2781511 
2252.605 2813892 2850645 2889635 2926528 2956551 2975901 2982139 2975701 
2256.462 2959053 2936002 2910550 2885533 2862318 2842073 2825665 2814159 
2260.320 2809390 2812625 2824297 2842974 2866287 2890670 2913652 2934067 
2264.177 2952782 2971463 2991981 3014836 3038959 3062083 3081537 3095453 
2268.034 3103662 3107166 3107934 3107834 3107600 3107133 3105030 3099891 
2271.892 3090848 3077366 3060748 3043564 3028582 3019573 3018773 3028582 
2275.749 3049003 3078567 3113907 3150685 3184729 3212200 3231861 3243579 
2279.607 3248920 3250122 3249788 3249921 3252058 3257600 3267515 3282538 
2283.464 3302503 3326475 3352786 3379266 3403744 3425384 3444688 3463224 
2287.322 3483164 3506445 3533902 3565237 3599347 3635097 3672220 3710917 
2291.179 3751957 3796075 3843040 3891313 3939492 3985837 4029912 4072688 
2295.036 4116538 4163738 4216664 4276022 4340876 4409154 4478446 4546344 
2298.894 4611104 4672659 4731308 4788156 4845146 4904087 4967292 5036439 
2302.751 5112839 5196730 5287647 5384220 5485411 5590451 5699143 5812227 
2306.609 5930144 6053637 6182408 6315386 6451027 6587956 6725063 6862011 
2310.466 6998530 7134622 7270014 7403461 7534183 7661707 7786031 7908467 
2314.323 8031308 8157325 8289592 8431156 8584155 8749683 8927484 9115576 
2318.181 9310757 9508837 9705855 9898080 10083169 10259379 10424868 10576738 
2322.038 10710627 10820812 10902449 10953281 10975335 10975946 10966159 
2325.414 10959228 10966907 10997899 11055982 11139975 11244556 11361610 
2328.789 11482643 11598809 11702241 11787381 11850302 11890211 11909451 
2332.164 11914321 11912993 11914833 11927774 11956689 12002330 12062319 
2335.539 12131889 12206413 12282278 12357952 12433264 12508863 12584474 
2338.915 12659041 12730277 12795621 12852682 12899748 12935828 12959587 
2342.290 12967883 12954501 12908692 12816130 12661224 12430196 12118328 
2345.665 11733456 11300324 10856923 10449373 10126613 9927742 9879641 
2349.040 9993413 10263314 10667837 11172135 11737848 12323760 12894867 
2352.416 13428687 13913657 14348718 14737390 15084968 15395781 15672740 
2355.791 15918972 16138591 16336266 16516374 16680030 16826456 16952054 
2359.166 17053598 17129316 17180088 17208838 17218734 17211598 17186950 
2362.541 17143000 17077654 16990472 16883188 16759126 16621431 16471770 
2365.917 16309775 16133707 15941519 15732411 15507882 15271251 15026036 
2369.292 14775234 14520056 14260610 13995604 13724227 13445946 13160944 
2372.667 12869474 12571342 12266327 11954169 11635632 11313009 10990049 
2376.042 10671505 10362119 10065806 9784843 9520656 9273589 9044288 8833806 
2379.900 8643436 8474233 8326675 8200408 8094127 8005928 7934045 7876851 
2383.757 7833261 7801650 7780364 7767040 7759248 7754728 7751995 7750039 
2387.615 7748757 7747779 7745992 7741809 7733478 7719143 7698198 7671319 
2391.472 7639383 7604246 7567055 7528384 7488537 7447480 7405921 7364770 
2395.329 7326320 7291747 7262568 7239523 7222543 7211931 7208259 7212571 
2399.187 7226451 7250439 7284570 7327229 7376498 7429784 7485604 7544263 
2403.044 7607247 7676951 7755740 7845001 7945114 8055173 8173397 8298035 
2406.902 8427609 8561344 8698838 8840569 8987320 9139871 9299010 9464608 
2410.759 9635926 9810396 9984936 10155748 10319297 10473064 10615919 
2414.134 10747748 10869119 10979651 11078652 11164792 11236021 11291143 
2417.510 11330014 11353550 11363788 11363039 11353788 11337700 11316445 
2420.885 11291245 11263292 11234321 11205522 11178017 11152485 11129471 
2424.260 11108904 11091671 11079264 11073350 11075662 11087829 11110774 
2427.635 11144870 11190732 11248772 11320185 11406509 11508228 11625966 
2431.010 11758749 11904854 12062352 12229791 12406568 12592763 12789069 
2434.386 12995570 13211767 13436547 13668694 13907395 14153109 14406770 
2437.761 14670143 14944717 15230686 15527799 15835011 16151417 16476555 
2441.136 16810888 17155306 17510724 17877688 18255780 18644368 19042168 
2444.511 19448130 19861268 20281154 20706798 21137590 21572328 22010010 
2447.887 22449424 22889704 23329486 23767052 24200052 24626120 25042494 
2451.262 25447466 25839380 26217784 26582426 26932532 27267150 27584550 
2454.637 27882004 28156756 28405714 28625298 28812524 28963384 29074792 
2458.012 29143846 29169112 29150190 29087970 28984212 28840390 28657434 
2461.388 28435394 28174716 27875574 27540098 27171690 26775610 26358872 
2464.763 25928288 25491210 25054182 24623068 24203134 23799532 23417006 
2468.138 23059900 22732000 22436024 22173588 21945180 21750370 21588450 
2471.513 21457988 21357566 21285076 21238274 21213988 21208804 21219034 
2474.889 21241266 21272026 21307938 21346116 21383218 21416598 21443612 
2478.264 21462724 21472644 21473514 21465542 21448658 21422760 21387360 
2481.639 21341244 21283926 21215380 21136024 21047468 20951834 20851844 
2485.014 20750030 20649252 20551276 20457174 20367230 20280010 20193466 
2488.390 20104786 20011930 19912882 19807892 19698280 19586514 19475090 
2491.765 19365702 19258592 19152584 19044938 18932750 18813706 18685944 
2495.140 18548642 18401874 18246034 18081444 17908520 17727284 17537460 
2498.515 17339512 17134072 16922254 16705923 16487189 16268391 16051767 
2501.891 15839616 15633477 15434198 15242286 15057147 14878260 14705000 
2505.266 14536981 14373994 14216237 14063670 13916736 13776109 13641818 
2508.641 13514781 13395403 13284256 13181027 13084959 12994205 12906439 
2512.016 12819167 12731096 12641984 12552686 12465385 12382021 12303922 
2515.392 12231222 12162624 12096967 12033022 11970483 11910643 11855545 
2518.767 11807400 11768486 11739549 11720214 11709015 11704215 11703807 
2522.142 11706598 11712384 11721508 11735124 11754869 11781593 11815912 
2525.517 11856738 11901721 11947629 11990443 12026924 12054926 12074413 
2528.893 12085962 12091617 12092878 12090289 12083407 12071006 12051894 
2532.268 12025664 11993372 11956621 11917795 11879246 11842402 11808183 
2535.643 11777235 11750034 11727669 11710989 11700471 11695672 11695569 
2539.018 11697850 11700607 11702853 11704556 11707108 11712283 11721405 
2542.394 11734817 11751362 11769030 11785270 11798514 11808285 11815163 
2545.769 11820849 11826876 11834434 11844105 11855206 11867055 11878259 
2549.144 11887487 11893854 11896783 11896034 11892493 11887555 11882856 
2552.519 11879961 11880233 11883945 11890483 11898588 11906659 11913675 
2555.895 11919090 11923176 11926445 11929374 11932303 11934722 11935675 
2559.270 11934007 11928285 11916876 11898724 11872640 11837806 11794496 
2562.645 11743940 11688150 11629778 11571551 11515543 11463149 11414367 
2566.020 11368583 11324912 11283321 11243774 11207120 11174685 11147284 
2569.396 11125765 11110706 11102140 11100815 11106593 11119714 11139227 
2572.771 11163568 11190698 11218340 11245202 11270739 11295496 11321138 
2576.146 11349026 11380351 11415217 11453182 11493496 11535924 11580330 
2579.521 11627089 11676610 11728690 11782206 11836137 11889461 11942044 
2582.896 11994496 12048283 12105007 12165691 12230370 12298333 12368248 
2586.272 12438823 12508931 12577994 12645634 12711443 12775283 12837118 
2589.647 12897359 12957198 13018376 13082466 13150630 13222903 13297716 
2593.022 13373089 13446868 13517653 13585201 13650161 13713455 13775800 
2596.397 13836822 13895352 13950573 14001831 14049844 14096733 14145783 
2599.773 14199667 14260849 14330328 14407969 14492614 14582722 14677169 
2603.148 14774686 14874728 14976543 15079857 15184671 15291397 15400656 
2606.523 15513376 15630214 15751410 15876628 16005149 16135495 16266637 
2609.898 16397474 16527217 16655207 16780650 16902238 17018588 17128248 
2613.274 17229592 17321858 17404520 17477400 17540670 17594768 17640522 
2616.649 17678690 17710682 17737672 17760936 17781130 17798112 17811956 
2620.024 17822174 17828560 17831358 17831496 17830112 17828526 17827560 
2623.399 17827592 17828974 17831908 17837122 17845374 17857732 17875030 
2626.775 17897402 17924164 17954276 17986322 18019444 18053324 18088282 
2630.150 18125246 18165216 18208612 18255918 18306650 18360222 18415910 
2633.525 18473126 18531214 18589862 18648658 18707116 18764820 18821320 
2636.900 18876444 18930156 18982940 19035210 19088110 19142680 19199782 
2640.276 19260184 19324164 19391234 19460362 19530088 19598994 19666316 
2643.651 19731880 19796240 19860574 19926724 19995622 20067934 20144144 
2647.026 20224046 20307470 20394072 20483538 20575386 20669094 20764002 
2650.401 20859178 20954268 21049276 21144964 21242484 21343018 21447510 
2653.777 21556796 21670604 21788622 21910402 22035734 22164626 22297322 
2657.152 22434282 22575680 22721386 22871052 23024194 23180500 23339098 
2660.527 23499646 23661196 23822702 23983498 24142636 24299766 24455200 
2663.902 24609462 24763392 24917518 25072436 25228078 25384476 25540966 
2667.278 25698006 25855594 26014750 26176362 26341340 26510678 26684734 
2670.653 26863406 27046206 27232152 27420120 27608876 27797570 27985360 
2674.028 28172522 28359130 28545532 28731804 28917590 29102036 29284292 
2677.403 29463436 29639282 29812396 29984192 30156200 30330338 30508240 
2680.779 30691304 30880596 31077446 31283182 31499024 31726274 31965662 
2684.154 32217280 32480754 32755286 33040180 33334884 33639388 33953276 
2687.529 34276316 34607852 34946964 35293100 35645556 36004520 36370524 
2690.904 36744156 37125688 37514960 37911308 38313372 38720556 39132396 
2694.280 39549096 39971244 40399296 40833260 41272660 41716764 42164864 
2697.655 42616688 43072672 43533568 44000160 44472800 44951240 45434260 
2701.030 45920284 46407476 46893484 47376636 47854816 48325740 48787540 
2704.405 49238252 49675912 50099136 50506808 50897496 51269976 51622616 
2707.781 51953140 52259364 52539136 52790468 53012028 53202804 53362608 
2711.156 53491732 53591396 53663300 53709716 53733040 53734876 53716204 
2714.531 53676872 53615612 53530788 53420792 53284384 53121844 52933872 
2717.906 52722036 52488544 52235672 51965724 51681732 51386696 51083956 
2721.281 50777448 50471076 50168304 49872996 49588696 49318832 49066496 
2724.657 48834552 48625004 48439412 48278636 48142612 48031384 47944976 
2728.032 47883372 47846788 47835172 47847672 47882968 47939132 48014136 
2731.407 48105924 48213508 48336148 48473752 48625488 48790580 48966864 
2734.782 49152012 49343068 49537444 49733684 49930716 50128108 50325768 
2738.158 50523148 50719684 50914148 51105276 51291788 51472596 51646724 
2741.533 51813608 51973304 52126644 52275356 52421996 52569576 52720576 
2744.908 52877096 53040032 53209096 53383064 53560808 53740952 53922784 
2748.283 54105444 54288064 54469112 54646212 54816468 54976824 55125052 
2751.659 55259976 55382104 55492776 55594748 55691164 55784856 55878336 
2755.034 55973384 56070416 56168824 56266612 56361104 56448752 56525960 
2758.409 56589896 56637952 56668380 56680116 56671924 56642708 56591180 
2761.784 56516488 56417584 56294600 56147820 55978288 55786740 55574828 
2765.160 55343296 55094360 54830416 54554724 54271768 53986300 53702780 
2768.535 53425816 53159064 52905352 52666748 52445060 52240976 52055100 
2771.910 51887532 51737416 51603772 51485240 51380504 51288392 51208156 
2775.285 51138748 51078852 51026340 50978088 50929688 50876412 50812384 
2778.661 50732380 50631252 50505056 50351324 50169236 49959860 49725692 
2782.036 49470788 49200588 48919836 48633976 48347188 48063064 47784088 
2785.411 47511684 47246212 46987400 46734240 46484584 46236616 45987984 
2788.786 45737096 45482492 45223880 44961676 44697024 44431176 44166072 
2792.162 43903520 43645076 43392648 43147976 42912516 42687492 42474128 
2795.537 42273028 42084620 41908952 41745616 41594188 41453896 41324148 
2798.912 41203944 41092584 40989376 40894020 40805960 40725092 40650680 
2802.287 40581772 40517060 40454680 40393076 40330972 40267532 40202428 
2805.663 40136168 40069272 40002344 39935792 39869612 39803984 39738444 
2809.038 39672800 39606224 39537808 39466500 39391068 39310244 39223304 
2812.413 39129464 39028568 38920628 38805544 38683716 38555476 38421884 
2815.788 38284460 38146136 38010060 37880572 37761828 37658176 37573268 
2819.164 37510588 37473024 37463124 37482992 37533708 37615360 37727164 
2822.539 37866256 38029192 38211548 38408708 38616100 38829388 39044480 
2825.914 39257288 39463888 39659912 39841424 40004484 40145476 40261096 
2829.289 40348640 40405948 40431516 40425296 40387984 40321516 40228996 
2832.665 40113784 39979492 39829296 39666048 39492340 39310244 39122316 
2836.040 38930052 38735116 38538240 38338996 38136404 37929060 37716144 
2839.415 37497224 37273324 37046004 36817220 36588084 36359248 36130500 
2842.790 35900896 35670012 35437884 35205776 34975692 34750576 34533044 
2846.166 34325620 34130232 33947900 33779396 33625424 33486932 33364762 
2849.541 33260048 33173918 33107042 33059880 33032530 33023984 33033066 
2852.916 33057806 33095780 33144626 33201814 33265270 33333204 33404120 
2856.291 33476658 33549316 33620556 33688368 33750784 33805540 33850208 
2859.667 33882408 33899604 33899392 33879904 33839104 33776248 33691020 
2863.042 33584220 33456978 33310988 33148170 32970682 32781262 32583494 
2866.417 32381854 32181986 31989914 31811726 31653098 31518548 31411108 
2869.792 31332646 31283290 31261496 31264522 31288236 31328048 31378302 
2873.167 31434260 31491968 31548902 31604030 31657624 31710624 31763594 
2876.543 31816714 31869092 31919870 31967766 32012242 32053548 32092434 
2879.918 32130428 32168750 32208216 32249254 32291758 32335128 32378786 
2883.293 32422162 32465078 32506890 32548066 32588422 32628104 32667506 
2886.668 32706800 32746460 32786586 32827358 32868668 32910560 32952488 
2890.044 32994204 33034530 33072144 33105898 33134722 33158216 33177208 
2893.419 33193230 33208788 33226530 33248384 33275034 33306408 33341218 
2896.794 33377964 33415820 33454578 33494592 33536826 33582108 33630044 
2900.169 33679740 33728868 33775172 33816144 33849596 33874244 33888932 
2903.545 33893372 33887140 33869944 33841864 33802784 33752968 33692664 
2906.920 33622092 33541766 33452072 33353596 33246882 33133042 33012722 
2910.295 32886754 32755714 32619928 32479540 32334912 32186162 32033928 
2913.670 31878684 31721104 31561696 31401240 31240596 31080720 30923146 
2917.046 30769826 30622322 30482580 30351798 30230616 30119798 30020336 
2920.421 29933144 29860200 29803560 29764950 29745860 29746534 29766120 
2923.796 29802884 29854274 29917276 29988808 30065466 30143948 30220454 
2927.171 30291682 30354676 30407126 30448280 30478384 30499142 30513040 
2930.547 30523242 30533870 30549156 30573720 30612828 30671460 30754426 
2933.922 30865940 31009044 31185232 31394828 31636742 31908422 32206644 
2937.297 32527388 32866132 33218340 33579884 33947148 34317264 34688272 
2940.672 35058556 35426240 35789052 36143280 36484100 36805388 37099196 
2944.048 37357200 37570412 37730236 37829348 37862680 37828768 37729696 
2947.423 37572256 37367132 37126660 36865116 36596156 36330608 36077388 
2950.798 35841948 35626852 35432388 35257524 35100436 34958888 34831636 
2954.173 34717340 34615780 34526868 34450784 34387300 34335912 34295532 
2957.549 34264768 34242252 34227056 34218412 34216300 34220564 34230748 
2960.924 34246308 34266204 34289332 34314896 34342688 34372884 34406204 
2964.299 34443112 34483680 34527660 34574376 34622884 34673092 34725200 
2967.674 34779940 34837952 34899676 34964492 35031112 35097420 35160900 
2971.050 35219540 35271396 35315816 35352584 35382816 35407904 35430156 
2974.425 35451944 35475528 35502424 35532808 35565064 35595456 35618364 
2977.800 35626596 35612068 35567080 35484912 35360920 35193488 34984096 
2981.175 34738016 34462944 34169016 33867368 33567752 33278648 33005464 
2984.551 32750782 32514676 32295864 32092646 31904216 31730230 31571172 
2987.926 31427280 31297282 31177150 31059294 30932896 30784660 30600278 
2991.301 30367576 30078570 29731204 29330126 28886922 28417848 27939880 
2994.676 27469464 27019018 26594718 26197864 25825070 25470970 25129448 
2998.052 24796088 24468346 24145440 23827882 23516260 23210978 22912022 
3001.427 22618752 22330424 22047098 21768590 21495414 21228184 20967550 
3004.802 20714234 20468846 20232342 20005512 19789234 19583812 19389088 
3008.177 19204284 19028078 18858656 18694766 18535156 18378854 18225406 
3011.552 18074534 17925854 17779334 17634966 17493234 17354928 17221286 
3014.928 17093128 16971348 16856044 16746832 16642742 16542636 16445823 
3018.303 16351508 16259518 16169850 16082333 15996898 15913164 15830269 
3021.678 15747288 15663292 15577492 15489615 15399969 15309931 15221490 
3025.053 15137287 15059927 14992045 14934841 14888856 14853058 14825322 
3028.429 14802386 14780960 14756929 14726353 14685737 14631931 14562781 
3031.804 14477609 14377042 14263075 14138732 14007478 13872501 13736436 
3035.179 13601235 13468092 13338135 13212211 13091516 12977032 12869610 
3038.554 12769004 12674665 12585293 12499075 12414887 12331977 12250308 
3041.930 12170734 12094206 12021406 11952636 11887589 11825241 11764366 
3045.305 11703739 11642609 11580433 11517823 11455222 11394025 11335660 
3048.680 11281042 11230887 11185088 11142762 11102072 11061589 11019276 
3052.055 10973771 10924398 10871090 10814323 10755152 10694563 10633677 
3055.431 10573716 10515630 10460234 10408069 10359541 10314479 10272678 
3058.806 10233732 10197061 10162633 10130242 10099752 10071096 10043798 
3062.181 10017553 9992124 9967407 9944253 9923674 9907166 9896081 9891403 
3066.039 9893166 9900556 9911776 9924387 9935777 9943168 9944320 9937608 
3069.896 9922047 9898013 9866218 9828562 9787384 9744890 9703279 9663978 
3073.753 9627761 9594631 9564010 9535220 9507515 9480321 9453501 9427190 
3077.611 9401795 9377722 9355376 9334623 9315327 9296471 9277177 9256360 
3081.468 9233073 9207182 9178990 9149042 9118350 9087628 9057144 9026899 
3085.326 8996791 8966720 8937055 8909017 8883517 8861873 8844830 8832217 
3089.183 8823324 8817068 8812199 8807973 8804152 8800500 8797153 8794042 
3093.041 8790424 8785623 8779097 8770577 8760773 8751036 8742956 8738155 
3096.898 8737985 8742684 8751610 8763782 8777339 8790762 8802901 8813180 
3100.755 8821769 8829647 8837830 8847333 8859236 8873338 8889401 8906649 
3104.613 8924203 8941283 8957891 8973958 8989620 9004842 9019219 9031770 
3108.470 9041615 9048314 9051629 9052712 9053016 9054471 9058530 9066346 
3112.328 9077612 9091789 9107421 9123257 9138010 9150937 9161732 9170361 
3116.185 9177569 9183729 9189888 9197063 9205659 9216185 9228504 9241873 
3120.042 9255548 9268884 9281408 9293120 9304562 9315801 9327210 9338347 
3123.900 9348571 9356866 9362656 9365499 9365838 9364754 9363671 9363739 
3127.757 9366244 9372068 9380769 9392213 9405688 9420249 9435520 9451164 
3131.615 9467317 9484622 9503655 9524586 9547312 9570954 9594021 9614889 
3135.472 9632335 9646022 9656558 9665604 9674954 9686169 9700365 9716935 
3139.330 9735096 9753327 9770542 9786334 9801449 9816801 9833816 9853609 
3143.187 9876590 9902623 9931506 9962424 9995006 10028913 10063975 10099888 
3147.044 10136313 10172435 10207442 10240653 10271457 10299651 10325370 
3150.420 10349292 10372266 10395613 10420354 10447404 10477171 10509215 
3153.795 10542551 10575889 10607906 10638057 10666853 10695481 10726147 
3157.170 10760485 10800056 10845101 10894804 10947402 11000856 11053602 
3160.545 11104859 11154389 11202938 11251322 11300359 11350659 11402359 
3163.921 11455358 11509385 11564371 11620181 11676576 11733728 11791398 
3167.296 11849280 11907239 11964522 12020588 12074719 12126199 12174550 
3170.671 12219499 12261180 12300138 12336714 12371486 12404659 12436231 
3174.046 12465930 12493380 12518104 12540068 12559507 12576732 12592660 
3177.422 12607975 12623768 12640893 12660133 12682103 12707281 12735360 
3180.797 12766172 12798931 12832989 12867664 12902581 12937637 12973140 
3184.172 13009533 13047193 13086052 13126451 13167979 13210298 13253339 
3187.547 13296965 13341757 13387919 13436070 13486891 13540282 13596243 
3190.923 13654161 13713181 13772278 13830424 13887176 13942259 13996014 
3194.298 14049159 14102518 14156977 14213498 14272662 14334677 14399886 
3197.673 14468051 14538660 14611335 14685429 14759946 14834578 14908813 
3201.048 14982579 15055845 15128847 15201347 15273345 15344805 15415590 
3204.424 15486181 15557058 15628874 15701836 15775496 15848827 15920278 
3207.799 15988167 16051665 16110944 16167546 16223812 16282393 16345108 
3211.174 16412718 16484676 16559538 16635615 16711501 16786642 16861452 
3214.549 16936482 17012558 17089990 17168680 17248244 17327960 17407520 
3217.925 17486852 17565922 17644870 17723590 17802462 17881382 17960664 
3221.300 18040960 18122654 18206194 18291582 18378092 18464724 18550370 
3224.675 18633682 18714380 18792222 18867516 18941022 19013748 19086414 
3228.050 19159508 19233446 19308194 19383508 19458976 19534038 19608146 
3231.426 19681294 19753414 19824886 19896474 19968386 20041074 20114400 
3234.801 20187878 20261572 20335316 20409560 20484544 20561106 20638932 
3238.176 20717674 20796920 20875656 20953886 21031504 21109100 21187128 
3241.551 21265798 21344690 21422726 21499208 21573546 21646016 21718324 
3244.927 21792314 21869838 21952430 22040440 22133452 22230254 22329900 
3248.302 22431420 22534532 22639102 22745128 22852472 22960506 23068776 
3251.677 23176620 23284002 23390848 23497582 23604272 23710954 23817032 
3255.052 23922294 24026254 24128800 24230426 24331444 24432486 24533936 
3258.427 24636044 24738594 24841940 24945910 25050568 25156060 25262528 
3261.803 25369828 25477436 25585142 25692734 25800352 25908100 26016792 
3265.178 26126706 26238514 26352006 26467112 26583130 26699496 26815574 
3268.553 26930522 27044196 27156242 27266938 27376182 27484430 27592034 
3271.928 27698852 27805414 27911542 28017556 28123948 28231286 28340102 
3275.304 28450678 28563332 28677328 28791706 28905512 29017578 29127796 
3278.679 29236658 29344696 29453684 29564686 29678412 29795218 29915004 
3282.054 30037024 30160960 30286494 30413452 30541728 30671640 30802764 
3285.429 30934780 31067374 31199972 31332076 31463542 31594690 31726096 
3288.805 31858894 31994194 32133068 32276414 32424056 32575638 32729882 
3292.180 32885682 33041790 33197950 33354600 33512198 33671936 33834484 
3295.555 34000032 34168480 34339316 34512092 34686584 34862836 35040772 
3298.930 35220616 35402224 35585312 35769340 35954668 36141192 36329636 
3302.306 36520900 36716104 36915832 37120780 37331276 37547580 37769668 
3305.681 37997224 38229600 38466012 38705556 38947556 39192116 39440120 
3309.056 39693240 39952932 40220784 40496832 40780340 41069932 41363800 
3312.431 41660852 41961180 42265540 42575056 42890752 43212464 43539428 
3315.807 43870308 44203820 44539576 44878268 45220980 45569444 45924848 
3319.182 46287296 46656020 47029524 47405868 47783236 48160824 48537516 
3322.557 48913496 49288800 49663576 50038080 50412500 50786048 51157908 
3325.932 51527024 51891676 52250764 52603760 52950264 53290640 53624684 
3329.308 53951668 54270080 54578012 54873576 55155264 55422868 55677040 
3332.683 55918056 56145860 56358768 56554264 56729952 56883508 57015004 
3336.058 57126064 57219684 57298804 57365164 57418596 57457284 57478464 
3339.433 57479560 57459064 57416820 57353440 57269620 57165784 57041304 
3342.809 56895364 56727048 56536192 56322856 56087796 55831464 55554040 
3346.184 55255648 54936476 54597628 54240612 53867904 53481240 53081964 
3349.559 52670600 52246732 51809912 51360476 50899324 50428764 49950976 
3352.934 49468224 48981624 48491388 47997892 47501372 47003128 46505196 
3356.310 46010156 45520092 45036612 44560024 44090444 43627712 43171768 
3359.685 42723612 42284168 41854152 41433520 41021384 40616004 40215984 
3363.060 39820292 39428800 39042668 38663400 38292272 37930688 37579012 
3366.435 37237512 36905948 36584224 36272360 35969928 35676308 35390324 
3369.811 35110784 34836552 34566984 34301880 34042100 33787704 33539544 
3373.186 33296966 33059024 32824070 32591172 32359258 32128144 31898722 
3376.561 31671528 31448044 31229022 31015200 30806960 30604154 30406344 
3379.936 30212712 30022396 29833796 29645952 29457620 29268450 29078546 
3383.312 28888196 28698212 28509088 28321250 28134942 27949916 27766346 
3386.687 27584514 27404592 27227178 27052164 26879620 26708834 26539242 
3390.062 26370174 26201032 26032024 25863436 25696354 25531794 25370706 
3393.437 25213714 25060678 24910922 24763218 24616370 24469186 24321386 
3396.813 24173006 24025204 23879164 23736080 23596436 23459776 23324834 
3400.188 23189972 23053960 22916458 22777950 22639486 22503020 22369634 
3403.563 22239112 22111104 21984076 21856284 21726614 21594892 21461470 
3406.938 21327286 21193462 21060440 20928642 20797476 20666730 20536338 
3410.313 20406470 20277230 20149246 20022442 19896960 19772380 19648808 
3413.689 19525618 19403118 19281556 19160754 19040820 18921088 18800872 
3417.064 18679304 18555626 18429564 18301466 18172368 18043412 17916568 
3420.439 17793728 17676204 17565234 17461050 17362652 17268586 17176574 
3423.814 17084374 16990128 16892456 16791326 16687468 16582290 16477071 
3427.190 16372873 16270524 16169645 16069749 15970325 15870683 15770447 
3430.565 15669852 15569456 15469734 15371717 15276159 15183367 15093716 
3433.940 15006657 14921021 14835299 14747914 14657496 14563603 14466715 
3437.315 14368205 14270368 14175463 14084788 13998991 13917146 13837779 
3440.691 13758940 13679020 13597577 13514576 13430703 13346608 13262016 
3444.066 13176109 13087451 12994170 12895959 12793471 12689506 12587884 
3447.441 12492971 12408136 12334669 12272087 12217284 12166849 12116863 
3450.816 12064464 12008189 11947731 11883639 11816559 11746936 11674262 
3454.192 11598162 11517959 11433552 11345829 11256049 11166118 11077768 
3457.567 10991986 10909380 10829304 10751246 10674120 10597482 10521402 
3460.942 10445809 10371587 10299210 10229152 10161784 10096972 10034100 
3464.317 9972595 9912048 9851541 9790570 9728963 9666553 9603168 9539183 
3468.175 9474259 9408228 9341496 9273555 9204779 9135744 9066617 8998279 
3472.032 8930967 8864376 8797863 8730514 8660945 8588109 8511974 8433082 
3475.890 8352988 8273652 8197267 8125555 8058683 7996410 7936880 7878538 
3479.747 7819260 7757865 7694387 7629772 7565572 7503673 7445424 7390822 
3483.604 7339293 7288782 7236962 7181679 7121586 7056249 6986577 6914425 
3487.462 6841780 6771201 6704469 6642323 6585097 6532318 6482977 6435457 
3491.319 6388548 6340903 6291651 6240354 6186978 6131627 6075241 6018930 
3495.177 5963668 5910696 5861055 5814980 5772772 5733824 5697162 5661611 
3499.034 5625828 5587565 5545881 5498967 5445515 5385394 5319679 5249917 
3502.892 5179730 5112806 5052563 5001646 4960555 4927511 4899529 4872756 
3506.749 4843370 4809095 4769296 4724944 4678118 4631566 4586927 4545407 
3510.606 4506869 4470579 4435698 4401254 4367115 4332810 4299011 4264678 
3514.464 4229177 4191773 4151327 4107574 4060948 4012522 3964202 3918361 
3518.321 3876971 3841369 3811953 3787652 3766295 3745239 3721945 3694275 
3522.179 3661728 3624706 3585315 3544893 3505276 3466230 3427254 3386379 
3526.036 3342602 3295692 3247251 3199883 3156960 3120515 3091815 3069658 
3529.894 3051972 3035789 3019207 3000856 2980605 2959053 2936302 2912284 
3533.751 2886267 2857215 2824764 2788948 2751433 2713956 2678548 2646344 
3537.608 2617709 2592009 2568077 2544846 2520983 2496255 2470229 2442972 
3541.466 2414317 2384797 2354480 2323766 2293220 2262343 2230869 2198431 
3545.323 2164298 2129468 2094807 2062580 2034616 2011546 1991841 1972868 
3549.181 1950301 1920414 1880911 1832561 1778261 1723103 1673207 1632131 
3553.038 1601966 1582412 1570606 1564055 1560032 1556507 1552583 1547130 
3556.896 1538551 1525084 1505167 1477704 1442830 1402573 1359361 1316919 
3560.753 1277803 1243609 1214967 1190745 1168651 1145428 1117689 1081116 
3564.610 1031892 968061 889864 801456 710544 627382 561952 521013 506152 
3568.950 513350 535278 562881 588030 605150 610625 604487 587864 563577 
3573.290 534681 503763 472881 443327 415766 390395 366849 344896 324171 
3577.629 304475 285808 268302 252190 237636 224806 213071 201899 190927 
3581.969 179192 166099 150454 130766 104616 69686 22829 -37340 -110521 
3586.308 -192797 -276415 -351244 -406099 -432912 -429271 -398187 -349026 
3590.166 -292673 -240552 -202236 -182927 -184418 -204620 -238234 -278998 
3594.023 -320519 -358097 -389316 -413812 -432382 -446814 -459193 -471009 
3597.881 -483884 -499208 -516980 -536274 -554839 -569598 -577341 -576447 
3601.738 -567612 -553912 -540212 -531740 -532865 -546103 -571748 -608411 
3605.595 -654996 -709581 -770940 -837383 -905734 -971925 -1030801 -1078365 
3609.453 -1113234 -1138020 -1158707 -1181673 -1212304 -1251291 -1294900 
3612.828 -1334739 -1361230 -1367473 -1351949 -1319841 -1280860 -1247261 
3616.203 -1230377 -1236622 -1268174 -1319841 -1381907 -1440133 -1480784 
3619.579 -1494091 -1476161 -1430324 -1365161 -1292225 -1222051 -1162540 
3622.954 -1117828 -1087752 -1069673 -1060385 -1058071 -1064318 -1085075 
3626.329 -1129031 -1205068 -1317133 -1460145 -1614961 -1752563 -1843866 
3629.704 -1871448 -1837465 -1759625 -1663089 -1570031 -1495907 -1449115 
3633.080 -1428937 -1428970 -1439571 -1451493 -1458560 -1459484 -1456479 
3636.455 -1453904 -1455654 -1462985 -1475170 -1489766 -1503634 -1515620 
3639.830 -1526087 -1536982 -1550189 -1566366 -1584326 -1601394 -1614961 
3643.205 -1624105 -1631269 -1641931 -1662891 -1701508 -1762727 -1846868 
3646.581 -1949861 -2064603 -2181194 -2290337 -2384164 -2455830 -2498132 
3649.956 -2504227 -2468020 -2388283 -2271484 -2131541 -1986540 -1855578 
3653.331 -1755302 -1696359 -1681441 -1704775 -1752563 -1805723 -1843569 
3656.706 -1852444 -1827699 -1773914 -1700848 -1620540 -1542892 -1474741 
3660.082 -1419690 -1377778 -1346466 -1320502 -1294339 -1262954 -1223142 
3663.457 -1174602 -1118951 -1058699 -996092 -931656 -864930 -794423 -718678 
3667.314 -634517 -534884 -402557 -205283 101004 567526 1235368 2115983 
3671.172 3190036 4414877 5744500 7134420 8542251 9918793 11176147 12182933 
3675.029 12782346 12831829 12279995 11191480 9718019 8030431 6276792 4578154 
3678.886 3021142 1672775 579370 -245751 -821245 -1193933 -1420384 -1555405 
3682.744 -1639818 -1695204 -1731409 -1753190 -1765961 -1781338 -1813412 
3686.119 -1875374 -1973973 -2105987 -2257574 -2405846 -2528308 -2608810 
3689.494 -2642040 -2632127 -2587203 -2516020 -2425616 -2321813 -2212018 
3692.870 -2103877 -2005834 -1924693 -1863299 -1820605 -1792261 -1772363 
3696.245 -1755566 -1738900 -1723521 -1713323 -1714049 -1730749 -1766654 
3699.620 -1821496 -1891308 -1967476 -2038683 -2093325 -2121814 -2119605 
3702.995 -2089104 -2037990 -1976909 -1916776 -1867126 -1833110 -1816810 
3706.371 -1817173 -1832285 -1859603 -1897807 -1946101 -2004746 -2072749 
3709.746 -2148027 -2226786 -2303225 -2370257 -2421201 -2449603 -2451612 
3713.121 -2426012 -2375168 -2304081 -2220985 -2134080 -2052303 -1982681 
3716.496 -1929245 -1892331 -1868709 -1853665 -1842117 -1830404 -1817899 
3719.872 -1805360 -1794438 -1785661 -1777510 -1767149 -1752101 -1731376 
3723.247 -1706822 -1682233 -1662330 -1651008 -1648499 -1652163 -1656751 
3726.622 -1656289 -1646486 -1626680 -1600667 -1575445 -1559664 -1561513 
3729.997 -1587792 -1639587 -1713851 -1801236 -1890153 -1968762 -2031032 
3733.373 -2078519 -2119605 -2164809 -2221215 -2288195 -2356450 -2411316 
3736.748 -2438994 -2433788 -2398234 -2341949 -2275835 -2208721 -2145818 
3740.123 -2089665 -2042211 -2009363 -2001349 -2033901 -2122837 -2276692 
3743.498 -2485481 -2713269 -2907235 -3016953 -3023337 -2944063 -2820567 
3746.874 -2696805 -2607328 -2573337 -2599489 -2675203 -2776749 -2877053 
3750.249 -2952653 -2990069 -2987404 -2948901 -2880114 -2786296 -2673326 
3753.624 -2549521 -2425320 -2312815 -2222501 -2160753 -2129002 -2123826 
3756.999 -2137740 -2162929 -2192535 -2222963 -2251674 -2275769 -2290041 
3760.375 -2288195 -2265683 -2222732 -2166127 -2107471 -2060019 -2034165 
3763.750 -2033802 -2054150 -2082806 -2105526 -2110076 -2093160 -2060943 
3767.125 -2025986 -2002009 -1998051 -2015564 -2047554 -2081157 -2101569 
3770.500 -2098865 -2070275 -2020973 -1960780 -1900578 -1849508 -1812587 
3773.875 -1790677 -1781074 -1779325 -1780447 -1781800 -1783285 -1787839 
3777.251 -1799421 -1821133 -1852576 -1888306 -1919250 -1934952 -1928321 
3780.626 -1898929 -1853566 -1804734 -1765004 -1744312 -1746953 -1769789 
3784.001 -1804074 -1839016 -1864222 -1874186 -1868445 -1850827 -1827006 
3787.376 -1801665 -1778137 -1757777 -1741408 -1729165 -1720848 -1716459 
3790.752 -1714511 -1712861 -1709396 -1703719 -1697382 -1695633 -1705171 
3794.127 -1731937 -1778599 -1841754 -1911695 -1974534 -2016190 -2029745 
3797.502 -2017576 -1992015 -1970873 -1973248 -2014179 -2098107 -2216271 
3800.877 -2344124 -2449405 -2500142 -2481165 -2398070 -2274418 -2141433 
3804.253 -2027668 -1956228 -1938349 -1972588 -2042673 -2122012 -2181095 
3807.628 -2198040 -2166721 -2096359 -2005340 -1911497 -1828457 -1762628 
3811.003 -1713719 -1678305 -1653154 -1638068 -1637606 -1659029 -1709297 
3814.378 -1790677 -1895828 -2007220 -2099656 -2151291 -2152346 -2110472 
3817.754 -2046268 -1985682 -1954281 -1968828 -2034461 -2140905 -2262947 
3821.129 -2365677 -2416951 -2402189 -2327580 -2215150 -2091347 -1980570 
3824.504 -1898467 -1850102 -1831295 -1830404 -1833308 -1827336 -1806713 
3827.879 -1773485 -1736260 -1705897 -1691573 -1698405 -1726095 -1769063 
3831.255 -1818196 -1864222 -1899457 -1919910 -1925616 -1920734 -1911465 
3834.630 -1905527 -1910937 -1934655 -1980405 -2047059 -2127156 -2208392 
3838.005 -2274945 -2313376 -2316573 -2285360 -2227874 -2155907 -2081619 
3841.380 -2014640 -1960582 -1920899 -1893551 -1873988 -1856304 -1836079 
3844.756 -1810409 -1778335 -1741408 -1702663 -1665829 -1633810 -1608986 
3848.131 -1592216 -1584293 -1585614 -1598918 -1629354 -1685368 -1777213 
3851.506 -1912487 -2091775 -2301115 -2509366 -2673392 -2756896 -2746195 
3854.881 -2654588 -2510354 -2344783 -2182183 -2036737 -1915522 -1820275 
3858.257 -1749428 -1700122 -1669492 -1654903 -1653484 -1662693 -1679955 
3861.632 -1703356 -1732102 -1765928 -1804371 -1845219 -1882962 -1908661 
3865.007 -1914071 -1894178 -1851487 -1796451 -1745138 -1715633 -1721739 
3868.382 -1768667 -1848881 -1943363 -2024205 -2067142 -2062361 -2016883 
3871.758 -1950059 -1882698 -1832219 -1805822 -1799850 -1802127 -1797672 
3875.133 -1775465 -1731772 -1672331 -1608986 -1555967 -1525096 -1523412 
3878.508 -1551774 -1604332 -1668865 -1728934 -1770086 -1781800 -1761737 
3881.883 -1716327 -1658435 -1604497 -1568744 -1562768 -1589476 -1643020 
3885.259 -1706524 -1757810 -1778302 -1758404 -1702597 -1626020 -1549364 
3888.634 -1491615 -1466188 -1478637 -1524535 -1590467 -1657049 -1706161 
3892.009 -1725600 -1712696 -1672793 -1615985 -1553490 -1493827 -1442973 
3895.384 -1404201 -1379132 -1368497 -1372824 -1391716 -1423984 -1466485 
3898.760 -1514794 -1563032 -1605982 -1640148 -1664838 -1681969 -1695105 
3902.135 -1707713 -1721376 -1734874 -1744511 -1744874 -1730947 -1700056 
3905.510 -1652889 -1593372 -1527638 -1461697 -1401327 -1350594 -1311054 
3908.885 -1282941 -1264705 -1254067 -1248549 -1245411 -1242470 -1238010 
3912.260 -1231501 -1223241 -1215146 -1209826 -1210718 -1220928 -1242140 
3915.636 -1273427 -1311616 -1351486 -1387125 -1413448 -1427583 -1429201 
3919.011 -1419789 -1401426 -1376721 -1348117 -1318024 -1289747 -1267348 
3922.386 -1254628 -1254364 -1267381 -1290606 -1318322 -1343096 -1358291 
3925.761 -1360041 -1349306 -1330511 -1310427 -1294999 -1288128 -1291068 
3929.137 -1301673 -1316637 -1331898 -1345276 -1355252 -1361263 -1362882 
3932.512 -1359149 -1349207 -1332229 -1309370 -1282809 -1256710 -1235168 
3935.887 -1221324 -1216269 -1218549 -1225157 -1232591 -1237977 -1240455 
3939.262 -1241380 -1243230 -1249276 -1261302 -1279506 -1302135 -1325193 
3942.638 -1344418 -1355978 -1357399 -1348381 -1331073 -1308940 -1286641 
3946.013 -1267844 -1255983 -1252018 -1255355 -1263251 -1272403 -1279307 
3949.388 -1281884 -1279638 -1273394 -1264870 -1255818 -1247459 -1240355 
3952.763 -1234045 -1228065 -1222117 -1216236 -1210487 -1205233 -1200805 
3956.139 -1197336 -1194758 -1193305 -1193305 -1194692 -1197600 -1201565 
3959.514 -1205993 -1209760 -1212040 -1212667 -1211841 -1210553 -1209264 
3962.889 -1208174 -1207050 -1204803 -1200442 -1193503 -1184284 -1173677 
3966.264 -1162937 -1153717 -1146645 -1141787 -1138879 -1137590 -1137491 
3969.640 -1138516 -1140862 -1144299 -1148331 -1152065 -1154642 -1155469 
3973.015 -1154312 -1151834 -1148529 -1144828 -1140532 -1135211 -1127511 
3976.390 -1117596 -1105632 -1093073 -1082398 -1075721 -1074796 -1079952 
3979.765 -1089834 -1102327 -1114787 -1124569 -1130320 -1131807 -1129956 
3983.141 -1125991 -1121959 -1119017 -1117662 -1117596 -1117762 -1116473 
3986.516 -1112705 -1105831 -1096444 -1085835 -1075887 -1068648 -1065244 
3989.891 -1065442 -1068516 -1072152 -1074598 -1074234 -1070631 -1064682 
3993.266 -1057641 -1051295 -1047428 -1046767 -1049708 -1056220 -1065244 
3996.642 -1075688 -1086166 -1095618 -1102625 -1106756 -1107748 -1105930 
4000.017 -1102162 -1097304 
##END=
