
##TITLE=Z408_3_b
##JCAMP-DX=5.01  $$ Nicolet v. 1
##DATATYPE=INFRARED SPECTRUM
##ORIGIN=UniL
##OWNER=Nicolet
##LONGDATE=2011/09/16
##TIME=10:57:15
##SPECTROMETER/DATA SYSTEM=Nicolet iS5
##DATA PROCESSING=
Ratio against background
%Transmittance->Absorbance
Truncated
ElementMultiply or ElementDivide
##COMMENTS=
Number of sample scans: 32
Collection length: 51.15 sec
Sample gain: 2.0
Background collected on: Ven Sep 16 10:46:28 2011 (GMT+02:00);
Number of background scans: 32
Background gain: 2.0
Sample spacing:  1.000
Number of scan points: 12415
Resolution points: 8192
Number of FFT points: 65536
Apodization: N-B fort;
Phase correction: Mertz;
Laser frequency: 15798.0 cm-1
Number of rejected sample scans: 0
Number of rejected background scans: 0
Bench serial number: ASB1000141;
##RESOLUTION=4.000
##XUNITS=1/CM
##YUNITS=ABSORBANCE
##FIRSTX=649.893372
##LASTX=4000.122314
##FIRSTY=0.084107
##MAXX=4000.122314
##MINX=649.893372
##MAXY=0.347734
##MINY=-0.003764
##XFACTOR=1.000000
##YFACTOR=1.000000E-009
##NPOINTS=6950
##DELTAX=0.482117
##ZPD=6100
##XYDATA=(X++(Y..Y))
649.893 84107280 84747768 85473864 86318744 87288080 88362480 89510744 
653.268 90715104 91983000 93344928 94832472 96458672 98204328 100026984 
656.643 101884312 103761808 105684896 107711520 109905216 112301912 
659.536 114899856 117666688 120570960 123612400 126835840 130308672 
662.428 134088624 138176016 142503712 146945952 151372896 155692976 
665.321 159849024 163812752 167522720 170817344 173429456 175048512 
668.214 175474480 174734560 173036720 170624416 167660256 164213808 
671.107 160305552 155964448 151280592 146407744 141520048 136785776 
673.999 132309424 128124464 124220104 120570736 117164584 114009760 
676.892 111122880 108511192 106160368 104035888 102095808 100302200 98633368 
680.267 97079152 95633992 94285912 93014200 91792952 90603240 89440968 
683.642 88320528 87266208 86304152 85447360 84692832 84022800 83415416 
687.016 82852640 82323544 81822728 81343152 80868344 80372792 79824080 
690.391 79191928 78459144 77623456 76696824 75696688 74638504 73530752 
693.766 72376160 71177504 69943536 68692184 67448720 66240452 65088728 
697.141 64008152 63005344 62083464 61244112 60490080 59822072 59236916 
700.516 58725188 58271312 57856932 57465980 57087780 56718136 56358204 
703.890 56010552 55676512 55354588 55041848 54735616 54435872 54145528 
707.265 53868240 53606204 53358372 53120492 52888096 52659080 52437660 
710.640 52234996 52069300 51960872 51927260 51978424 52110576 52302716 
714.015 52514268 52692184 52775052 52703780 52438328 51963860 51298984 
717.390 50491768 49618744 48771968 48040860 47512200 47254632 47310644 
720.765 47693588 48374852 49281972 50287968 51230752 51936260 52237724 
724.139 52028024 51280076 50059572 48505284 46800364 45131304 43632216 
727.514 42378588 41381180 40605748 39997256 39503296 39089364 38736928 
730.889 38436288 38179236 37951192 37735116 37515720 37285492 37047704 
734.264 36812676 36593488 36398232 36228308 36079620 35946356 35825036 
737.639 35715732 35620088 35538308 35466432 35397876 35325444 35246596 
741.013 35165392 35091384 35035096 35001948 34989376 34986432 34979824 
744.388 34957992 34917588 34862944 34804388 34751188 34707720 34672048 
747.763 34637848 34598988 34552596 34501112 34449568 34402864 34362520 
751.138 34326944 34293780 34263016 34239028 34229384 34241108 34276640 
754.513 34331144 34394688 34455124 34504560 34542264 34575056 34613196 
757.888 34665052 34734284 34818892 34914144 35017388 35130148 35259140 
761.262 35413152 35598332 35817444 36069288 36353448 36674496 37045140 
764.637 37484760 38018996 38674260 39474156 40438968 41581608 42902528 
768.012 44381148 45968608 47588576 49139324 50526348 51694084 52659004 
771.387 53522876 54459908 55674028 57309584 59390676 61761684 64111180 
774.762 65999844 66973224 66714832 65110052 62306340 58646108 54605104 
778.136 50653964 47146444 44308968 42206420 40783980 39913960 39452896 
781.511 39278072 39294972 39447308 39701408 40036024 40437840 40898716 
784.886 41417628 41999644 42653932 43389864 44213760 45128916 46139252 
788.261 47252492 48483940 49856272 51395384 53128020 55078372 57266744 
791.636 59715416 62449096 65494768 68878440 72613000 76687208 81050232 
795.010 85611728 90236992 94745752 98942816 102616872 105564136 107629584 
798.385 108720536 108838480 108081720 106646472 104794024 102790600 
801.278 100892960 99285584 98051776 97169152 96511840 95888696 95070544 
804.653 93864352 92156616 89941224 87325472 84499592 81694816 79102792 
808.028 76842488 74930952 73292048 71784608 70249160 68564664 66665576 
811.402 64557292 62297088 59973064 57673220 55463752 53389584 51472332 
814.777 49720304 48136352 46722212 45478332 44402948 43489432 42727524 
818.152 42104516 41608704 41230756 40963632 40801848 40740124 40772768 
821.527 40895952 41109812 41420324 41838460 42379540 43058144 43883576 
824.902 44857620 45971848 47207128 48530440 49895852 51244880 52502492 
828.277 53590532 54437144 54988672 55228516 55183328 54926812 54562084 
831.651 54212828 54006000 54042996 54395608 55088004 56090624 57313852 
835.026 58610764 59804540 60690456 61083252 60857840 59964468 58451220 
838.401 56445056 54136408 51726552 49392556 47274992 45452212 43951032 
841.776 42759148 41842292 41157092 40659704 40312940 40083948 39944324 
845.151 39873060 39854864 39882428 39954568 40073704 40241504 40456860 
848.525 40714468 41007512 41330304 41680580 42060200 42472920 42921808 
851.900 43407036 43925696 44473092 45046500 45646540 46278520 46950552 
855.275 47671436 48449304 49290620 50202264 51193020 52274348 53461264 
858.650 54770872 56220072 57827824 59614680 61602928 63817560 66278272 
862.025 68989392 71924336 75014512 78144440 81143960 83819640 85972360 
865.400 87419072 88037064 87772480 86654160 84783936 82329344 79498680 
868.774 76495560 73513960 70708640 68178304 65980984 64133384 62625236 
872.149 61431704 60522300 59867932 59439644 59210640 59155504 59248576 
875.524 59468144 59797960 60228508 60757600 61387280 62120240 62955588 
878.899 63884920 64891844 65953560 67041152 68122024 69166800 70147000 
882.274 71041728 71840664 72545016 73167680 73728808 74251496 74754592 
885.648 75248736 75738024 76223144 76707968 77204928 77735792 78328128 
889.023 79009624 79797808 80696056 81691376 82759464 83868152 84983792 
892.398 86077464 87121816 88091400 88962504 89710520 90313184 90754344 
895.773 91023568 91118704 91043872 90809920 90433456 89937928 89356904 
899.148 88729952 88100536 87512480 86998696 86579816 86262688 86042608 
902.523 85908920 85851176 85863528 85944456 86095568 86318664 86614072 
905.897 86981448 87421336 87938544 88542176 89244256 90057080 90989080 
909.272 92042912 93217232 94508568 95915640 97440648 99088312 100864456 
912.647 102772168 104811656 106982368 109287880 111739656 114359632 
915.540 117179592 120232080 123547432 127144784 131027920 135182288 
918.432 139571424 144135472 148775616 153353632 157697520 161594896 
921.325 164838576 167261888 168773328 169397808 169285792 168715408 
924.218 168030912 167618576 167856496 169031376 171326320 174775456 
927.110 179260368 184498656 190066112 195474880 200170528 203630480 
930.003 205446624 205327584 203157584 198990464 193038720 185641200 
932.896 177218368 168262432 159247584 150598800 142678144 135724464 
935.789 129877176 125188248 121639840 119177472 117731256 117233624 
938.681 117612520 118779488 120621424 122970448 125604000 128273712 
941.574 130700944 132634016 133890496 134367008 134066504 133084152 
944.467 131595712 129811856 127941848 126176536 124647168 123428200 
947.359 122542432 121972480 121680000 121620240 121756128 122058664 
950.252 122505576 123078432 123757152 124520344 125349272 126228808 
953.145 127151624 128116440 129124272 130173888 131259400 132370664 
956.037 133497136 134632464 135777152 136937152 138120320 139331456 
958.930 140568656 141824640 143089424 144356896 145626448 146903488 
961.823 148194544 149503008 150825872 152155104 153481120 154799120 
964.716 156111472 157428192 158761136 160118400 161501168 162903488 
967.608 164317216 165736976 167164304 168606800 170074736 171574992 
970.501 173108064 174668688 176251104 177853680 179482512 181149280 
973.394 182866656 184641872 186473280 188351296 190264336 192205312 
976.286 194175296 196181632 198232048 200328320 202461312 204613904 
979.179 206764592 208896256 211000256 213074224 215116864 217121280 
982.072 219071568 220946960 222728576 224408560 225994064 227505648 
984.964 228969440 230406592 231829488 233242944 234648416 236053488 
987.857 237474128 238930464 240441712 242015760 243647296 245319728 
990.750 247015488 248724640 250449472 252201728 253994352 255832224 
993.643 257708432 259606448 261508800 263407552 265307696 267224544 
996.535 269173344 271161120 273180512 275215296 277247584 279270144 
999.428 281290304 283327104 285401088 287523360 289691456 291891712 
1002.321 294111072 296345280 298604736 300909600 303280160 305724128 
1005.213 308232576 310783072 313352512 315926528 318505152 321097600 
1008.106 323711200 326337568 328950336 331506848 333962016 336283040 
1010.999 338450784 340457088 342291680 343929440 345328384 346439584 
1013.891 347219456 347648352 347734368 347507648 347002912 346245696 
1016.784 345247552 344009824 342537248 340850208 338985024 336988480 
1019.677 334904448 332759264 330564288 328323008 326045248 323759968 
1022.570 321516960 319372928 317381984 315576576 313962528 312524704 
1025.462 311238880 310083264 309040800 308095840 307223936 306379776 
1028.355 305499744 304507360 303323904 301887904 300155392 298097984 
1031.249 295697536 292937568 289805088 286298304 282437152 278269120 
1034.142 273861184 269293504 264638448 259945632 255244352 250544272 
1037.035 245849264 241166256 236511600 231908384 227384784 222967056 
1039.928 218680656 214553728 210615616 206897072 203421408 200191536 
1042.821 197179728 194321504 191529984 188702768 185748272 182610608 
1045.714 179273232 175763808 172139392 168477952 164858880 161350768 
1048.607 158012912 154886240 151994640 149346032 146931824 144729920 
1051.500 142708272 140833776 139077168 137417024 135842240 134347584 
1054.393 132928832 131578896 130285952 129034448 127810152 126601800 
1057.286 125402824 124209384 123017200 121818760 120604192 119362664 
1060.179 118088184 116782184 115454760 114121776 112800440 111506064 
1063.072 110248808 109034312 107866912 106750728 105690056 104688008 
1065.965 103742704 102845096 101978288 101121320 100253152 99357760 98428464 
1069.341 97467680 96486024 95497200 94517920 93565168 92654488 91802160 
1072.716 91021888 90323992 89714104 89190376 88745768 88368200 88044496 
1076.091 87762024 87507704 87268752 87029256 86769256 86468040 86105984 
1079.466 85670936 85162256 84592664 83985848 83370616 82778144 82236960 
1082.842 81769848 81397704 81138488 81008624 81023832 81196928 81536800 
1086.217 82048248 82732920 83589712 84615048 85801272 87131456 88572440 
1089.592 90075384 91571024 92976072 94211984 95209344 95925064 96349664 
1092.967 96506136 96445840 96234608 95950352 95667480 95448776 95347408 
1096.343 95398544 95621400 96021072 96589024 97303824 98129736 99019096 
1099.718 99908200 100714976 101351816 101723968 101744984 101356256 
1102.611 100531880 99289584 97682768 95797184 93733008 91584896 89442800 
1105.986 87377048 85435984 83651608 82037320 80591408 79299936 78140232 
1109.361 77084664 76102792 75168832 74261248 73363760 72466160 71560960 
1112.737 70642624 69707952 68756424 67791552 66821516 65858580 64916820 
1116.112 64008884 63145412 62332884 61574744 60872592 60227480 59640336 
1119.487 59111804 58641104 58225920 57861400 57541216 57258012 57002196 
1122.862 56761824 56520224 56253680 55935208 55534348 55023348 54385016 
1126.238 53615012 52725328 51740032 50693732 49623424 48561492 47535340 
1129.613 46562912 45653168 44808392 44025388 43297568 42615992 41971284 
1132.988 41354904 40759996 40183088 39623832 39084576 38569240 38082000 
1136.363 37626308 37205168 36820752 36475992 36174000 35918388 35712136 
1139.739 35556252 35449928 35390400 35374404 35399276 35463376 35567116 
1143.114 35710696 35894060 36115052 36369552 36652356 36957860 37280728 
1146.489 37616044 37959072 38303456 38642464 38968648 39275536 39559584 
1149.864 39820760 40062072 40287776 40502944 40710828 40913604 41112872 
1153.240 41311176 41511460 41718040 41934536 42162856 42401460 42646808 
1156.615 42892840 43133084 43361600 43572980 43761452 43921112 44044456 
1159.990 44123308 44150044 44118132 44022896 43861544 43632216 43333700 
1163.365 42965260 42527588 42023588 41458856 40842328 40184252 39495312 
1166.740 38785508 38063116 37335140 36608628 35890748 35189680 34513848 
1170.116 33870696 33266268 32704480 32187160 31715616 31291726 30918096 
1173.491 30598642 30337552 30137910 30001554 29928706 29919086 29972618 
1176.866 30090820 30276334 30532982 30865228 31277236 31773758 32360542 
1180.241 33045330 33837528 34747060 35782976 36952232 38258152 39701772 
1183.617 41282532 42999504 44850052 46827416 48917876 51094804 53316972 
1186.992 55532764 57676060 59675916 61463960 62971748 64141868 64931056 
1190.367 65312108 65280536 64854728 64077116 63005196 61707524 60257512 
1193.742 58719344 57149004 55588948 54064572 52588800 51163052 49781204 
1197.118 48433448 47110916 45809148 44529768 43281752 42078928 40939164 
1200.493 39879596 38913416 38049336 37289464 36630764 36065940 35585852 
1203.868 35180300 34837952 34547252 34294996 34066472 33848128 33627288 
1207.243 33394568 33145342 32878750 32596994 32304286 32005716 31707134 
1210.619 31415130 31137850 30885042 30666980 30494238 30375856 30318648 
1213.994 30327636 30406380 30557900 30785582 31092358 31480498 31950540 
1217.369 32501142 33129216 33831620 34606308 35452736 36372040 37365724 
1220.744 38434876 39580016 40801160 42099808 43479912 44947200 46508848 
1224.120 48170520 49934100 51796024 53746840 55771480 57848340 59950924 
1227.495 62045776 64089908 66036916 67834776 69431208 70783008 71855520 
1230.870 72628152 73096200 73271768 73186424 72888528 72449248 71956320 
1234.245 71503680 71194328 71123216 71369760 72001608 73066208 74594824 
1237.621 76605784 79104544 82083304 85516552 89361056 93550000 97991024 
1240.996 102579984 107195800 111707520 115990560 119914960 123356360 
1243.889 126209272 128383856 129821312 130498808 130426736 129645856 
1246.782 128216864 126221416 123752168 120907072 117791096 114495592 
1249.675 111089584 107610776 104057280 100393744 96562208 92508128 88195112 
1253.050 83623576 78834616 73909968 68960616 64101392 59448840 55099664 
1256.426 51116944 47535712 44358324 41563016 39110172 36952592 35043536 
1259.801 33337676 31798284 30397532 29114154 27934582 26849270 25850318 
1263.176 24930888 24083164 23299032 22571632 21895834 21268894 20690186 
1266.551 20159832 19676960 19239648 18844122 18486540 18164250 17876446 
1269.927 17624476 17410382 17235764 17100918 17004150 16943718 16918256 
1273.302 16928214 16975758 17063870 17194636 17368514 17583484 17834776 
1276.677 18114846 18413870 18718290 19010424 19271720 19481674 19623814 
1280.052 19688816 19676472 19595182 19458768 19283150 19080390 18857376 
1283.427 18616008 18355038 18074430 17777470 17471432 17167128 16876610 
1286.803 16609864 16374629 16175559 16015360 15894879 15814118 15771270 
1290.178 15762234 15780548 15819238 15871989 15934989 16008174 16094370 
1293.553 16197398 16320234 16463511 16626734 16808994 17011076 17236212 
1296.928 17489682 17777574 18104622 18473228 18884542 19338540 19836192 
1300.304 20378166 20963830 21587614 22236532 22890786 23523464 24105404 
1303.679 24611742 25022558 25327150 25524276 25620426 25628724 25567006 
1307.054 25458148 25326590 25196474 25090024 25022242 25000166 25022698 
1310.429 25082406 25168806 25271344 25382264 25495918 25607740 25712876 
1313.805 25804990 25876974 25922416 25936940 25919214 25870540 25793424 
1317.180 25690342 25563494 25415284 25249534 25071910 24890324 24712638 
1320.555 24544944 24390182 24248154 24117626 23998624 23894812 23814126 
1323.930 23767612 23766002 23818712 23931608 24107960 24349878 24659364 
1327.306 25037196 25480668 25979960 26517088 27064330 27590162 28065270 
1330.681 28466244 28781862 29012478 29168120 29263416 29314636 29337428 
1334.056 29344696 29348134 29358594 29385184 29435530 29514748 29625660 
1337.431 29770770 29954336 30183976 30471418 30829548 31268332 31791866 
1340.807 32396134 33069964 33796660 34556756 35329328 36089088 36809824 
1344.182 37463416 38022536 38467424 38787828 38984344 39065796 39044520 
1347.557 38930704 38727944 38432744 38036172 37529664 36908944 36178356 
1350.932 35351864 34452760 33510088 32553852 31616002 30724766 29904568 
1354.308 29176624 28555584 28049116 27656614 27371102 27180298 27071172 
1357.683 27032876 27058054 27141110 27277522 27460744 27682924 27937230 
1361.058 28221280 28540296 28906648 29337820 29848736 30445474 31123504 
1364.433 31868700 32662292 33482994 34310524 35122960 35892440 36586136 
1367.809 37164776 37585516 37811924 37816228 37583856 37114104 36418444 
1371.184 35519144 34446016 33241410 31959742 30663034 29423120 28307068 
1374.559 27363372 26615820 26060030 25672800 25424208 25292098 25269516 
1377.934 25366982 25608760 26028824 26668068 27566154 28761896 30284754 
1381.310 32141026 34296468 36656432 39073520 41340764 43224028 44509472 
1384.685 45008168 44599600 43252396 41048516 38188932 34957340 31685318 
1388.060 28651630 26032730 23898348 22225790 20942482 19957876 19191056 
1391.435 18576410 18065448 17628342 17247830 16918568 16644016 16432608 
1394.811 16292058 16224502 16224226 16279297 16376177 16501574 16645601 
1398.186 16801556 16964802 17132522 17302100 17471294 17637486 17797594 
1401.561 17947610 18083272 18201218 18300360 18383900 18458984 18535916 
1404.936 18623236 18725518 18840836 18963418 19085928 19204530 19320908 
1408.312 19442238 19577988 19736354 19921554 20132968 20366568 20618536 
1411.687 20888032 21177422 21491166 21832102 22199356 22587514 22989886 
1415.062 23400920 23819658 24251166 24706150 25198370 25742056 26349156 
1418.437 27026248 27769206 28562730 29380644 30190584 30959546 31660338 
1421.813 32277554 32810062 33277072 33716944 34185504 34737728 35414196 
1425.188 36231656 37183004 38249248 39412072 40662940 42000448 43421832 
1428.563 44915228 46451432 47987308 49479512 50894628 52220832 53466624 
1431.938 54655684 55815748 56971520 58144728 59358800 60646484 62058008 
1435.313 63658624 65515688 67677808 70141944 72853768 75729432 78683984 
1438.689 81644432 84539600 87294032 89801040 91925016 93530560 94486360 
1442.064 94698240 94124272 92769544 90684440 87950072 84681160 81008264 
1445.439 77062824 72984944 68905464 64951144 61253268 57926100 55050764 
1448.814 52654924 50708068 49137284 47855776 46797708 45930816 45260872 
1452.190 44813424 44614620 44669516 44958224 45439044 46063684 46795088 
1455.565 47607912 48495576 49459904 50503120 51614704 52772360 53955160 
1458.940 55146612 56337416 57521776 58695296 59850404 60972476 62041688 
1462.315 63025572 63877628 64546452 64980848 65151280 65064512 64767556 
1465.691 64331180 63821056 63286340 62751016 62221176 61694844 61165104 
1469.066 60619476 60035228 59376352 58596696 57652976 56529624 55262988 
1472.441 53950284 52716836 51673444 50878872 50334284 50009232 49868496 
1475.816 49893288 50084820 50457604 51023248 51781984 52717436 53804104 
1479.192 55014356 56330096 57748452 59280328 60946012 62765800 64754828 
1482.567 66919916 69265072 71798992 74541368 77521416 80766568 84286880 
1485.942 88048512 91949616 95825192 99432448 102474424 104652416 105683760 
1489.317 105373704 103672568 100703272 96744048 92143680 87249352 82316216 
1492.693 77483384 72810944 68296944 63923924 59702680 55682164 51958440 
1496.068 48656692 45887140 43712676 42131752 41097464 40538484 40383840 
1499.443 40576968 41070512 41822552 42793408 43937356 45203624 46540604 
1502.818 47882968 49154388 50262412 51074528 51423656 51116980 49982168 
1506.194 47964292 45201932 42004424 38701828 35513604 32513674 29682812 
1509.569 26975438 24364176 21848514 19459842 17243416 15234736 13454251 
1512.944 11898350 10546082 9368411 8336673 7426683 6617662 5893701 5245121 
1516.802 4667836 4164206 3737519 3386045 3098356 2853013 2621275 2379000 
1520.659 2117481 1853525 1623816 1466168 1396922 1403105 1450675 1501244 
1524.516 1527145 1517403 1480963 1439339 1416501 1424479 1459452 1505433 
1528.374 1545234 1568877 1576326 1574264 1569908 1563956 1549723 1515508 
1532.231 1453834 1369499 1283851 1227759 1223905 1274679 1359627 1448548 
1536.089 1509822 1520529 1470290 1360358 1203005 1016880 825257 649614 
1539.946 507611 412947 374841 394971 464787 565369 671549 758570 811879 
1544.286 830569 829208 828079 844844 884817 939769 993101 1028637 1038601 
1548.625 1026312 1005123 990810 993267 1010038 1028172 1029899 1002566 
1552.483 942891 858954 765440 677290 601899 535146 463925 370696 241183 
1556.822 66471 -150667 -392990 -621580 -782847 -833283 -762241 -596202 
1560.680 -377100 -144837 70780 250830 382568 462797 497660 503033 498986 
1565.019 503166 523535 554819 582986 591746 571540 523767 462864 410559 
1569.359 389665 413510 480908 580332 695808 815000 928845 1030696 1114301 
1573.698 1171774 1197490 1191908 1168684 1155495 1185695 1285347 1458355 
1577.556 1688907 1951167 2224142 2496555 2767806 3044965 3337928 3654444 
1581.413 3997608 4365675 4754556 5159812 5576422 5997563 6411548 6799943 
1585.271 7140381 7412190 7600604 7703257 7731117 7708485 7666463 7639889 
1589.128 7663832 7767445 7974609 8302189 8756073 9328158 9990734 10699284 
1592.986 11390284 11991260 12437117 12674051 12673914 12436776 11990953 
1596.361 11385487 10678229 9931132 9197773 8520455 7932155 7454053 7097067 
1600.218 6863324 6747610 6740610 6832894 7017926 7292320 7653344 8095578 
1604.076 8607339 9168602 9755293 10338298 10887329 11374569 11770971 
1607.451 12050054 12190294 12175947 12001445 11672356 11206542 10632590 
1610.826 9986326 9309335 8638333 8001034 7413167 6876081 6381721 5917783 
1614.684 5473364 5044183 4636790 4269128 3965004 3744403 3614482 3566908 
1618.541 3581808 3635398 3702863 3763320 3802426 3813390 3800153 3776923 
1622.398 3766362 3790293 3862162 3981590 4136307 4308983 4484640 4656114 
1626.256 4822296 4986463 5151866 5319277 5486182 5648587 5803160 5948350 
1630.113 6084246 6210136 6322849 6415953 6479176 6501778 6474300 6392044 
1633.971 6257665 6084650 5898772 5731675 5611563 5552224 5549036 5584477 
1637.828 5636301 5684808 5714048 5713176 5677859 5609918 5517121 5409683 
1641.686 5297005 5183452 5066575 4937732 4784840 4597073 4367918 4100650 
1645.543 3809546 3520741 3265411 3070458 2950113 2901844 2909849 2950513 
1649.400 2999388 3030417 3015503 2926695 2737862 2440140 2061181 1683286 
1653.258 1413808 1319079 1390240 1565286 1778428 1980457 2145817 2265707 
1657.115 2340788 2377401 2383298 2365541 2328230 2273368 2201695 2113719 
1660.973 2011979 1902043 1792035 1692466 1613606 1562659 1541410 1545733 
1664.830 1566915 1592688 1609582 1605491 1569875 1497886 1391238 1260855 
1668.688 1124333 1002433 913139 865527 858124 880866 919547 958830 983371 
1673.027 981179 943754 870109 769324 662357 575588 528743 527316 560592 
1677.367 609265 651705 672279 664713 631861 582920 527416 469398 403561 
1681.706 315849 189435 13684 -203792 -428609 -609404 -700584 -690295 -602257 
1686.046 -476802 -350880 -246944 -175740 -137385 -126156 -133344 -149905 
1689.903 -168321 -182265 -187730 -184219 -174945 -168023 -175740 -213463 
1693.761 -294130 -423246 -590312 -767401 -915720 -1004356 -1027595 -1006306 
1697.618 -976719 -972785 -1020157 -1124008 -1264540 -1394623 -1462622 
1700.993 -1442709 -1345739 -1208174 -1067062 -951924 -878058 -848594 -856564 
1704.851 -886523 -919324 -936781 -929408 -897104 -847867 -792075 -739452 
1708.708 -696018 -663168 -638652 -618403 -599146 -579856 -562020 -549577 
1712.566 -546533 -555203 -575852 -606095 -643516 -686723 -735945 -792075 
1716.423 -853025 -910529 -949378 -952486 -908016 -816648 -690362 -548651 
1720.281 -409740 -288269 -191605 -119729 -67091 -25114 14512 57458 104915 
1724.620 155128 204518 249736 288726 319695 340851 349870 344631 324569 
1728.960 291975 251361 207800 163248 114261 51460 -39129 -170242 -345384 
1733.299 -550405 -750301 -902858 -976884 -970735 -907454 -821212 -742660 
1737.157 -692148 -680106 -705943 -759827 -824089 -880373 -914529 -920712 
1741.014 -901304 -863111 -814333 -760422 -705182 -650397 -596466 -543952 
1744.872 -493251 -445325 -401498 -363560 -332703 -309990 -295521 -288369 
1748.729 -286614 -288071 -289660 -287706 -278170 -256812 -220086 -167129 
1752.586 -100848 -27533 43705 102793 140345 150454 133053 94939 47516 4340 
1757.408 -25611 -41150 -48803 -59438 -83191 -126454 -189386 -264892 -340749 
1761.748 -404146 -445887 -462702 -457571 -437877 -412323 -389051 -375180 
1765.605 -376107 -394778 -430727 -479350 -533130 -583495 -625021 -658205 
1769.463 -689369 -728337 -783079 -855473 -936980 -1010306 -1053477 -1051460 
1773.320 -1002174 -917108 -814035 -709416 -615128 -535314 -469487 -414441 
1777.177 -368261 -330916 -304726 -291216 -289892 -295720 -301613 -299825 
1781.035 -286250 -262044 -233532 -208694 -193724 -191008 -197500 -207137 
1784.892 -212668 -209058 -194983 -172726 -146063 -118901 -94885 -77029 
1788.750 -68913 -74843 -99490 -145599 -211807 -290819 -369651 -432548 
1792.607 -467832 -470513 -445490 -402954 -354919 -311282 -277706 -257010 
1796.465 -249791 -255222 -272541 -300388 -336710 -377961 -419473 -456016 
1800.322 -483189 -498546 -501988 -495336 -480806 -460385 -434732 -404775 
1804.179 -371141 -335551 -300521 -268700 -241811 -220649 -204720 -193393 
1808.037 -186405 -184119 -186802 -194088 -204123 -213132 -216576 -210449 
1811.894 -192962 -165572 -132217 -97370 -65434 -38036 -14810 6328 28429 
1816.234 53481 82113 114029 147736 181745 214629 245294 272878 296253 314821 
1821.056 327620 334418 334683 328548 316213 298839 279111 260743 248709 
1825.395 246885 256334 274005 292937 304575 300530 277221 237138 191059 
1829.735 155028 143858 166828 222883 302387 390693 473975 543075 594035 
1834.074 628709 652236 671549 692423 719073 754056 798933 855003 923200 
1838.414 1003562 1094636 1192506 1292292 1388213 1474945 1549025 1608651 
1842.271 1655013 1692600 1730422 1779958 1852426 1955793 2091178 2251818 
1846.129 2425379 2597509 2755101 2888135 2991981 3067022 3116611 3145045 
1849.986 3155425 3148316 3122184 3075464 3008463 2923559 2826465 2723091 
1853.844 2617675 2512018 2405587 2296151 2182713 2065876 1948204 1833160 
1857.701 1722804 1617497 1515608 1415471 1315955 1218622 1125928 1040760 
1861.559 963910 894280 828345 763416 698330 634848 576384 525591 482766 
1865.898 444156 404058 356502 299469 237105 179723 139350 125828 142002 
1870.238 183104 238962 298375 352921 397492 430558 451752 461404 459646 
1874.577 446180 422233 390262 353551 315484 277851 239923 199247 153139 
1878.917 99943 40823 -20774 -80905 -136921 -188193 -236777 -285587 -336180 
1883.257 -387793 -437711 -482130 -518867 -549213 -576679 -606591 -643350 
1887.114 -687450 -736144 -783112 -821212 -843832 -847602 -832258 -800575 
1890.971 -756453 -704719 -650397 -598783 -555203 -523500 -505364 -498679 
1894.829 -498017 -496726 -488518 -470546 -443967 -412786 -381900 -354753 
1898.686 -331611 -310520 -289197 -266249 -242009 -218828 -199222 -184119 
1902.544 -172527 -161763 -149706 -135298 -120094 -106910 -97999 -94024 
1906.401 -93527 -93394 -91009 -85941 -80442 -77493 -79978 -87796 -98198 
1910.741 -106844 -109858 -105817 -96343 -85609 -77394 -74081 -76731 -84847 
1915.080 -99191 -121750 -155867 -203825 -263998 -329823 -390507 -435097 
1918.938 -458134 -461974 -456347 -453235 -463165 -489114 -526611 -564369 
1922.795 -589849 -595374 -581113 -554574 -527074 -508508 -503511 -511520 
1926.653 -528100 -548849 -571252 -595606 -622539 -651357 -678419 -697375 
1930.510 -702965 -693537 -672365 -648379 -632035 -630215 -645468 -674151 
1934.367 -709416 -743487 -771966 -793762 -809835 -821708 -828488 -828322 
1938.225 -819955 -804014 -785460 -771602 -769485 -783112 -811853 -849586 
1942.082 -887978 -920547 -944121 -959362 -969281 -975331 -976455 -969810 
1945.940 -952915 -925275 -891483 -859176 -835465 -824321 -824155 -829281 
1949.797 -832588 -828851 -817376 -802559 -789991 -783641 -784005 -787808 
1953.655 -790157 -787941 -781624 -775306 -775538 -787775 -814631 -855307 
1957.512 -906759 -964685 -1025578 -1085901 -1141556 -1187225 -1216897 
1960.887 -1226413 -1215079 -1188084 -1156328 -1131807 -1123512 -1134352 
1964.262 -1159798 -1190793 -1218285 -1235796 -1244221 -1247723 -1251655 
1967.638 -1258263 -1265729 -1269462 -1265828 -1255223 -1242701 -1235796 
1971.013 -1240686 -1258527 -1284230 -1309105 -1325094 -1328661 -1321427 
1974.388 -1307586 -1290308 -1266919 -1229485 -1167431 -1074697 -953775 
1977.763 -818996 -691883 -591503 -531641 -514928 -534785 -578995 -635079 
1981.621 -694364 -751426 -802824 -845916 -877727 -894690 -895087 -880736 
1985.478 -856762 -829513 -805304 -786948 -774711 -767137 -764259 -767567 
1989.336 -780367 -805073 -839963 -877926 -908975 -921142 -906362 -865658 
1993.193 -806164 -739981 -678717 -629487 -593985 -569432 -552059 -540014 
1997.051 -534057 -536274 -547393 -565858 -587003 -605102 -616881 -623466 
2000.908 -630017 -644045 -672266 -716462 -773388 -836854 -898824 -954304 
2004.765 -1001216 -1040619 -1073507 -1100377 -1119414 -1129229 -1130716 
2008.141 -1128238 -1129229 -1139970 -1163102 -1195419 -1228791 -1253868 
2011.516 -1262128 -1252316 -1226710 -1191289 -1151338 -1109400 -1065078 
2014.891 -1017314 -967198 -919125 -878554 -850644 -834573 -824519 -810364 
2018.749 -783013 -739187 -683315 -625252 -576547 -544713 -529722 -524460 
2022.606 -519429 -507184 -486499 -463165 -444298 -436752 -441187 -452607 
2026.463 -462172 -462271 -450323 -429138 -404610 -380675 -359190 -336445 
2030.321 -307110 -267011 -216675 -159908 -102968 -50427 -2551 43672 93149 
2034.660 149990 214164 282924 352689 420475 485618 549411 612450 672511 
2039.000 724881 763383 783431 785489 774303 758536 747185 745359 752894 
2043.340 766104 779514 789539 796377 803448 815564 836677 868648 911147 
2047.679 962416 1020566 1083707 1147820 1207657 1254442 1279697 1277870 
2051.537 1249723 1202640 1149614 1105963 1082644 1083973 1105099 1134997 
2055.394 1161740 1176325 1177123 1168086 1157156 1150412 1151442 1159249 
2059.251 1170312 1181043 1189848 1197456 1205663 1215731 1226663 1235867 
2063.109 1240918 1240552 1236133 1230849 1227925 1228989 1233607 1239721 
2066.966 1245968 1252016 1259892 1271689 1288869 1308976 1326922 1337159 
2070.824 1335165 1320874 1298640 1276009 1260124 1254309 1256535 1261088 
2074.681 1261055 1251418 1231780 1205962 1180046 1159647 1147654 1143601 
2078.539 1144697 1148618 1153933 1161176 1172040 1187489 1206760 1228224 
2082.396 1249225 1268000 1284450 1299870 1314891 1329781 1342410 1349589 
2086.253 1348393 1337657 1318314 1293622 1267202 1240918 1214900 1187223 
2090.111 1155129 1116892 1072978 1026146 980614 940533 909221 888967 880600 
2094.450 884917 901817 930704 968759 1011466 1052850 1087294 1111079 1124067 
2098.790 1129615 1133070 1139116 1150711 1167820 1188153 1208986 1228424 
2102.647 1246733 1265375 1286078 1309507 1335298 1361987 1388911 1416966 
2106.505 1448082 1485218 1529872 1580749 1633827 1684417 1728093 1763290 
2110.362 1792035 1818919 1848833 1885470 1929300 1977727 2026793 2072068 
2114.220 2110290 2140590 2163133 2179583 2192071 2202894 2214850 2230603 
2118.077 2252851 2283061 2320635 2363142 2406387 2446904 2481559 2509852 
2121.935 2533048 2552578 2569343 2582909 2591275 2592575 2586409 2574710 
2125.792 2561011 2549379 2542346 2540246 2540580 2539680 2534381 2524049 
2129.649 2511052 2498821 2491523 2491756 2499521 2514584 2535347 2562110 
2133.507 2595675 2636943 2684183 2733961 2780211 2816427 2838605 2846343 
2137.364 2842707 2833702 2823964 2816694 2811258 2805088 2795484 2780944 
2141.222 2762504 2741797 2720924 2699385 2676214 2648544 2615275 2576643 
2145.079 2534814 2492389 2450336 2407653 2361743 2310508 2254649 2197432 
2148.937 2146150 2106028 2080658 2067440 2059584 2048098 2024828 1985649 
2152.794 1930498 1861477 1780291 1686479 1579618 1460117 1334932 1219286 
2156.651 1133901 1101711 1140312 1251651 1422418 1626244 1832961 2016007 
2160.509 2161434 2265441 2332360 2371204 2389895 2396325 2396858 2397857 
2164.366 2404888 2420314 2442872 2466530 2483392 2484558 2464398 2423146 
2168.224 2364975 2295885 2221444 2144385 2064344 1979791 1890396 1799022 
2172.081 1711992 1636820 1579652 1543073 1524618 1518467 1517536 1515973 
2175.938 1509357 1495691 1472884 1438807 1392601 1335497 1271921 1211445 
2179.796 1165993 1144963 1154764 1193802 1253977 1322668 1387914 1441301 
2183.653 1478935 1501310 1511219 1511152 1503006 1488543 1470989 1456261 
2187.511 1450443 1459951 1487246 1530271 1581547 1632463 1673673 1699718 
2191.368 1709764 1706138 1693764 1677731 1661865 1648494 1638650 1633262 
2195.226 1631599 1632264 1633561 1632596 1627441 1618462 1608252 1602265 
2199.083 1605757 1621721 1648727 1680758 1709032 1724999 1723968 1705972 
2202.940 1676001 1642375 1612608 1591757 1581780 1581780 1589262 1602232 
2206.798 1619027 1637718 1656543 1672442 1682621 1685215 1681090 1673540 
2210.655 1666688 1664792 1669216 1680292 1694861 1710928 1727760 1747221 
2214.513 1770909 1800985 1836088 1871827 1902176 1921279 1925539 1916420 
2218.370 1898416 1877484 1859381 1847435 1841512 1840148 1841146 1843176 
2222.228 1846237 1850363 1855155 1859880 1863274 1864639 1865238 1867501 
2226.085 1873823 1885703 1902210 1919216 1931663 1935257 1928268 1912660 
2229.942 1892426 1872825 1857218 1846636 1839449 1833526 1827703 1822479 
2233.800 1820483 1823677 1833693 1848899 1866436 1883074 1896452 1906669 
2237.657 1915588 1925572 1938586 1954561 1971703 1988279 2003125 2016706 
2241.515 2031287 2049230 2071402 2097205 2123974 2148614 2169227 2185544 
2245.372 2199098 2212252 2226939 2243325 2260345 2275866 2288057 2296418 
2249.229 2301980 2306444 2311740 2319202 2329362 2341988 2357279 2375036 
2253.087 2394959 2416916 2439040 2458799 2473528 2481193 2481493 2475394 
2256.944 2464997 2452535 2439173 2424779 2408819 2390894 2371471 2352248 
2260.802 2335758 2324232 2318902 2319702 2325431 2334792 2347251 2363375 
2264.659 2383598 2408852 2438207 2468963 2498055 2521916 2537847 2545712 
2268.517 2546312 2541613 2533947 2524616 2514318 2502954 2490823 2477660 
2272.374 2464031 2450536 2438473 2428777 2423613 2424412 2433442 2451935 
2276.231 2479893 2515684 2555444 2595275 2630809 2659945 2682182 2698885 
2280.089 2712555 2725125 2737962 2750566 2763004 2774809 2786613 2799152 
2283.946 2812925 2827766 2841840 2852680 2857949 2856582 2849444 2839072 
2287.804 2829167 2823230 2823297 2829800 2841640 2857482 2875827 2896006 
2291.661 2917688 2940138 2962389 2982740 2999588 3012100 3020808 3027314 
2295.519 3034488 3044732 3059480 3078834 3101593 3125888 3149918 3172146 
2299.376 3192373 3210131 3225419 3238505 3249154 3258200 3266146 3274292 
2303.233 3283706 3294991 3308279 3323069 3338796 3355057 3371920 3389919 
2307.091 3409655 3431362 3454640 3478721 3502804 3526420 3550204 3574959 
2310.948 3601920 3631957 3664669 3698953 3733709 3767364 3799451 3830270 
2314.806 3859989 3889541 3918996 3947985 3976273 4004062 4031350 4059477 
2318.663 4089545 4122225 4157917 4196022 4235501 4274449 4310723 4341512 
2322.521 4363299 4372336 4365341 4340173 4297639 4240554 4175246 4108644 
2326.378 4048072 3999480 3965807 3947416 3941866 3945978 3955341 3966843 
2330.235 3977979 3987074 3993695 3997608 3999781 4001754 4006101 4015030 
2334.093 4030347 4051985 4078675 4107339 4135371 4160493 4182506 4202445 
2337.950 4222519 4244870 4269965 4297304 4325180 4351686 4375649 4397003 
2341.808 4416384 4434258 4450125 4461808 4466093 4459632 4440317 4409321 
2345.665 4370461 4331003 4299379 4283885 4291214 4325280 4386694 4473023 
2349.522 4579694 4699789 4825043 4948122 5062485 5164138 5251996 5327495 
2353.380 5393512 5452863 5507524 5558701 5607132 5653622 5699545 5746649 
2357.237 5796377 5848932 5903609 5958864 6013185 6066236 6118219 6170342 
2361.095 6223513 6277229 6329405 6377451 6418240 6449816 6472282 6487248 
2364.952 6497035 6503359 6507428 6509110 6507596 6502182 6493033 6480858 
2368.810 6466262 6449447 6429976 6406941 6379402 6347729 6312797 6277229 
2372.667 6243883 6214943 6191953 6175518 6165502 6161537 6164225 6174173 
2376.524 6192692 6221026 6259581 6308325 6366356 6432498 6505713 6584794 
2380.382 6668802 6756494 6847065 6939271 7032137 7124921 7216748 7306876 
2384.239 7394125 7476839 7553165 7621376 7679919 7728419 7766770 7795511 
2388.097 7815077 7825636 7826715 7818011 7799491 7771964 7737087 7696748 
2391.954 7652838 7606775 7559233 7510550 7461030 7411516 7363085 7317895 
2395.812 7277427 7242858 7214660 7192459 7175885 7165173 7160996 7165274 
2399.669 7179389 7204890 7242252 7291006 7350043 7417886 7493931 7577676 
2403.526 7669329 7769131 7877324 7993508 8117217 8247480 8383355 8524240 
2407.384 8669497 8819030 8973349 9133510 9300500 9475580 9659302 9850999 
2411.241 10048207 10246962 10442822 10630723 10806986 10969558 11117742 
2414.616 11251799 11372120 11478391 11569781 11644583 11701730 11740877 
2417.992 11763005 11770222 11765285 11750885 11729507 11702922 11672151 
2421.367 11638355 11602553 11566005 11530004 11495741 11464136 11435797 
2424.742 11411271 11391746 11378379 11373005 11377732 11394399 11424844 
2428.117 11470327 11531739 11609392 11703534 11813290 11937991 12076559 
2431.493 12227951 12391430 12566943 12754708 12955082 13168287 13393592 
2434.868 13629954 13875921 14130311 14392351 14662397 14941425 15230275 
2438.243 15530135 15841026 16163453 16497307 16842922 17201324 17573756 
2441.618 17961286 18364508 18783086 19215750 19660906 20116622 20581394 
2444.994 21054076 21533574 22019002 22509616 23004418 23502724 24003492 
2448.369 24506346 25009888 25512116 26010530 26502260 26983936 27453720 
2451.744 27909140 28349404 28773616 29180486 29568728 29936232 30280278 
2455.119 30598038 30886394 31141588 31359426 31535328 31664718 31743564 
2458.495 31769194 31740210 31656984 31520470 31331576 31091186 30799882 
2461.870 30458730 30069372 29635734 29163122 28658248 28129286 27583560 
2465.245 27028574 26471268 25918054 25375098 24849098 24346162 23872374 
2468.620 23432986 23031810 22671392 22352714 22075510 21838758 21640546 
2471.996 21478632 21350014 21251844 21180554 21132754 21105100 21094596 
2475.371 21097728 21111154 21131014 21152862 21173108 21188278 21196452 
2478.746 21196906 21190400 21177804 21159714 21135954 21105552 21066526 
2482.121 21017348 20957084 20886190 20805888 20718962 20628126 20536442 
2485.497 20446512 20360388 20278828 20202108 20129358 20058460 19986774 
2488.872 19911772 19830886 19743046 19648564 19548526 19444872 19339650 
2492.247 19234106 19128102 19020982 18911260 18797722 18679200 18555178 
2495.622 18425312 18289544 18147424 17998652 17842404 17677826 17504376 
2498.998 17321650 17129832 16930178 16724724 16516237 16307952 16103413 
2502.373 15904915 15713859 15530684 15354038 15182371 15014271 14849355 
2505.748 14688205 14532492 14383857 14243969 14113333 13991292 13876674 
2509.123 13767695 13663223 13561920 13463308 13366699 13271137 13175937 
2512.499 13080076 12983211 12885686 12788353 12692952 12600710 12512204 
2515.874 12427365 12345918 12267554 12192645 12122554 12059185 12004306 
2519.249 11959414 11924402 11898520 11879688 11865727 11855069 11846659 
2522.624 11840870 11838622 11841755 11852073 11871244 11900188 11938264 
2526.000 11983562 12032852 12081294 12124802 12159284 12183308 12196700 
2529.375 12201676 12201130 12197825 12193600 12188453 12181604 12171211 
2532.750 12156184 12136183 12111992 12085348 12058537 12033567 12011833 
2536.125 11994564 11982404 11975319 11973344 11975558 11981144 11988910 
2539.500 11997698 12007440 12018477 12031898 12049067 12070801 12096762 
2542.876 12125790 12155537 12183410 12207674 12227747 12244037 12258283 
2546.251 12272734 12288652 12307229 12328022 12350179 12371997 12392044 
2549.626 12408818 12421638 12430264 12435481 12438583 12441107 12444414 
2553.001 12449870 12457508 12466953 12477115 12486355 12493858 12499280 
2556.377 12503168 12506373 12509852 12514387 12519196 12522913 12523458 
2559.752 12518412 12505827 12484037 12452631 12411750 12362111 12305491 
2563.127 12243968 12179662 12114887 12051417 11990920 11933768 11880403 
2566.502 11830383 11783738 11740639 11701526 11667591 11639648 11619024 
2569.878 11606024 11600851 11603232 11611945 11626307 11644991 11666978 
2573.253 11691825 11719091 11749081 11782138 11818398 11857725 11899337 
2576.628 11942112 11984481 12025425 12064431 12102554 12141259 12182354 
2580.003 12227747 12278086 12332521 12389998 12448574 12506817 12564384 
2583.379 12621721 12680226 12741400 12806609 12876572 12950917 13028790 
2586.754 13108727 13188985 13267994 13344011 13416179 13484190 13548383 
2590.129 13610021 13670711 13732264 13796288 13863605 13933979 14006657 
2593.504 14080338 14153998 14226507 14297213 14365670 14431261 14493641 
2596.880 14552433 14607840 14660683 14712368 14765534 14822887 14886729 
2600.255 14959087 15040477 15130596 15228079 15330834 15437116 15545106 
2603.630 15653880 15763059 15873261 15985278 16100386 16219513 16343353 
2607.005 16471701 16604219 16739979 16878298 17018072 17158684 17299134 
2610.381 17438286 17574686 17706678 17832324 17950200 18059336 18159170 
2613.756 18249594 18330394 18401460 18462650 18513890 18555800 18589448 
2617.131 18616424 18638454 18656856 18672318 18684526 18692934 18696946 
2620.506 18696288 18691412 18683628 18674426 18665364 18657408 18651218 
2623.882 18647240 18645890 18648174 18654676 18666160 18683006 18704762 
2627.257 18730328 18758626 18788380 18819416 18852082 18887068 18925586 
2630.632 18968574 19016032 19068064 19124154 19183056 19244426 19307190 
2634.007 19370448 19433750 19496020 19557018 19616568 19674740 19731984 
2637.383 19788992 19846632 19905146 19965160 20027058 20091184 20157714 
2640.758 20227172 20299416 20374174 20450646 20528068 20605578 20682402 
2644.133 20758442 20834044 20909762 20986154 21064022 21144060 21226688 
2647.508 21312566 21401944 21495064 21591792 21691676 21793640 21896984 
2650.884 22001016 22105562 22211352 22319192 22430338 22545666 22665806 
2654.259 22790730 22919986 23053262 23190250 23330952 23475584 23624320 
2657.634 23777446 23935006 24096682 24262204 24431190 24602730 24776374 
2661.009 24950928 25125270 25298630 25470444 25640496 25809212 25977216 
2664.385 26145146 26313528 26482572 26652460 26823400 26995252 27168798 
2667.760 27344352 27522872 27704856 27890802 28081104 28275948 28475618 
2671.135 28679698 28887700 29098848 29311730 29525070 29737202 29947486 
2674.510 30155492 30361322 30565330 30767656 30967944 31165722 31360208 
2677.885 31551008 31738322 31923078 32106918 32291938 32480110 32673758 
2681.261 32874602 33084624 33305514 33538722 33785520 34046616 34321928 
2684.636 34610792 34912240 35225612 35550000 35885172 36230936 36587000 
2688.011 36953060 37328460 37712384 38103952 38502792 38908812 39322140 
2691.386 39742836 40171168 40606836 41049644 41499464 41956140 42419944 
2694.762 42890936 43368812 43853408 44343868 44839544 45339796 45844716 
2698.137 46354348 46869272 47389608 47915564 48446564 48981960 49520508 
2701.512 50061356 50602772 51143260 51680276 52211380 52733856 53245052 
2704.887 53742900 54225440 54691232 55138560 55565300 55968524 56345112 
2708.263 56692124 57006696 57286896 57532100 57741828 57916676 58057196 
2711.638 58164508 58239900 58284496 58299804 58286772 58245580 58176096 
2715.013 58077348 57948252 57788040 57596336 57373860 57121828 56841960 
2718.388 56536300 56207252 55857348 55489576 55107448 54714756 54315960 
2721.764 53915768 53518832 53130152 52754288 52395900 52058688 51745744 
2725.139 51459168 51200032 50968768 50765268 50589628 50442308 50323980 
2728.514 50235108 50175968 50145880 50143280 50166148 50212268 50279932 
2731.889 50368072 50476064 50603480 50749476 50912548 51090220 51280040 
2735.265 51478788 51684192 51894624 52108596 52325288 52543996 52763524 
2738.640 52982644 53200032 53414424 53624460 53828896 54026260 54215568 
2742.015 54396060 54567948 54732388 54891772 55049412 55207976 55370172 
2745.390 55537320 55710152 55888400 56071848 56260164 56452788 56648784 
2748.766 56846412 57042740 57234236 57417272 57589072 57748224 57895204 
2752.141 58031976 58161364 58286276 58409332 58532540 58657372 58784972 
2755.516 58915796 59049964 59186716 59324308 59460124 59590888 59713212 
2758.891 59824044 59920344 60000036 60060912 60101012 60118328 60111404 
2762.267 60078792 60019896 59934492 59822796 59685040 59521604 59333160 
2765.642 59121220 58887832 58636928 58373024 58100980 57825628 57551468 
2769.017 57281756 57019388 56766660 56525960 56299316 56088848 55896200 
2772.392 55722244 55566580 55428400 55306072 55197664 55101468 55015640 
2775.768 54938468 54867824 54800756 54733740 54662744 54582860 54489020 
2779.143 54376308 54240124 54077032 53884744 53662964 53412888 53137980 
2782.518 52842964 52532968 52213924 51890780 51568064 51248908 50935872 
2785.893 50629724 50330788 50038752 49751816 49468780 49187784 48907416 
2789.269 48626596 48344740 48061656 47777836 47493536 47210008 46928368 
2792.644 46650524 46378352 46114344 45860660 45618904 45390408 45175460 
2796.019 44973692 44784256 44606284 44438256 44279580 44129320 43986592 
2799.394 43850548 43720628 43595912 43475516 43358924 43245040 43132608 
2802.770 43020680 42907688 42792640 42674952 42554664 42431964 42308312 
2806.145 42184476 42061696 41940704 41822080 41706184 41593136 41483280 
2809.520 41376112 41271344 41168168 41065376 40961412 40854996 40744964 
2812.895 40630632 40511636 40388128 40260732 40130248 39998092 39866048 
2816.271 39736516 39612108 39496076 39391648 39302228 39231032 39181384 
2819.646 39155968 39157852 39189000 39250868 39343220 39465484 39615084 
2823.021 39789132 39983996 40196104 40421588 40656536 40896820 41137676 
2826.396 41373780 41599404 41808728 41996764 42158844 42291584 42392656 
2829.771 42460792 42495468 42497404 42468136 42409608 42324672 42216500 
2833.147 42087724 41941140 41779032 41603488 41416424 41220048 41015924 
2836.522 40805816 40590940 40371624 40148236 39920604 39689172 39454272 
2839.897 39217108 38978872 38740372 38501564 38262128 38021092 37777548 
2843.272 37531036 37282352 37033304 36786096 36543532 36307984 36081208 
2846.648 35864908 35659976 35467296 35288536 35125048 34978820 34851672 
2850.023 34745052 34659740 34595936 34553528 34531176 34527624 34540936 
2853.398 34569028 34610004 34661676 34722440 34790780 34865384 34944772 
2856.773 35027160 35110424 35191908 35268552 35337092 35394136 35437024 
2860.149 35462908 35470100 35457048 35422608 35366424 35288104 35187920 
2863.524 35066672 34925492 34766048 34591164 34404408 34210312 34014080 
2866.899 33821592 33638492 33469896 33320430 33193838 33092454 33018548 
2870.274 32972720 32954418 32961852 32991488 33038784 33098030 33163976 
2873.650 33232074 33299360 33364654 33428598 33492372 33557264 33624204 
2877.025 33692700 33761848 33830256 33896596 33960332 34021536 34081204 
2880.400 34140444 34200488 34262512 34326836 34393688 34462552 34532828 
2883.775 34603868 34674740 34745052 34814472 34882692 34949908 35015956 
2887.151 35080716 35143724 35204628 35262696 35317612 35369048 35417432 
2890.526 35462728 35505444 35545896 35584196 35620772 35655988 35690228 
2893.901 35724116 35758256 35792944 35828024 35863580 35899240 35935088 
2897.276 35971732 36010248 36051576 36096760 36146236 36199456 36255284 
2900.652 36311408 36365588 36415236 36457868 36491416 36513904 36524212 
2904.027 36521184 36504572 36474624 36431848 36377116 36311516 36235476 
2907.402 36149692 36054276 35949592 35835760 35713972 35585168 35450792 
2910.777 35312580 35171604 35028920 34884808 34738984 34590876 34439700 
2914.153 34284776 34125788 33963340 33798524 33632940 33468570 33307016 
2917.528 33149600 32997206 32850444 32709874 32576780 32453258 32341768 
2920.903 32245684 32168034 32110914 32075450 32061040 32066178 32087904 
2924.278 32123114 32167926 32218918 32272450 32325346 32374394 32417022 
2927.654 32451582 32476790 32492608 32499642 32499392 32493930 32486464 
2931.029 32480896 32482072 32495178 32526280 32580782 32663684 32778938 
2934.404 32929144 33115662 33338570 33596964 33888500 34209920 34556900 
2937.779 34924196 35306252 35698032 36095032 36493940 36893000 37290692 
2941.155 37685892 38076648 38459640 38830040 39181424 39505184 39792476 
2944.530 40033408 40218128 40338644 40389000 40367148 40275240 40120324 
2947.905 39913740 39668516 39399740 39121340 38844636 38578292 38327592 
2951.280 38094984 37880540 37683472 37502568 37336584 37184992 37047412 
2954.656 36923804 36814152 36718048 36634296 36561628 36498228 36442516 
2958.031 36393260 36350136 36313064 36282516 36258780 36241600 36230288 
2961.406 36223592 36220528 36220204 36222620 36228236 36238068 36252980 
2964.781 36273292 36299264 36330428 36366308 36406948 36452676 36503884 
2968.156 36561300 36624384 36692232 36762508 36832368 36898192 36957104 
2971.532 37006640 37045608 37074224 37094256 37108436 37120492 37134204 
2974.907 37152612 37177844 37209464 37244804 37278272 37302388 37307552 
2978.282 37283652 37221556 37113632 36955408 36746068 36488824 36191212 
2981.657 35863000 35516372 35163844 34816160 34482208 34168012 33876572 
2985.033 33608596 33363688 33140942 32940298 32761682 32605744 32472220 
2988.408 32358472 32259032 32163576 32058008 31925504 31748052 31510816 
2991.783 31204100 30826238 30383852 29891790 29370682 28841312 28323512 
2995.158 27832086 27374312 26951394 26559388 26191880 25841492 25502524 
2998.534 25171474 24846572 24528152 24216692 23912738 23616378 23327072 
3001.909 23043408 22764472 22488888 22215922 21945704 21678928 21417120 
3005.284 21162254 20916508 20681430 20458286 20247236 20047600 19858460 
3008.659 19678484 19506208 19340966 19181742 19027628 18877898 18731470 
3012.035 18587406 18445260 18304680 18166116 18030392 17898232 17770290 
3015.410 17647182 17528974 17415764 17307754 17205462 17109190 17019174 
3018.785 16935070 16855804 16779652 16704442 16628215 16549004 16465541 
3022.160 16377173 16283769 16185774 16084295 15980948 15878450 15779620 
3025.536 15688267 15607510 15539646 15486009 15446008 15417547 15396949 
3028.911 15380333 15362792 15339621 15306774 15260337 15197710 15117525 
3032.286 15019725 14906173 14779657 14644097 14503542 14361664 14221611 
3035.661 14085404 13954063 13828304 13708360 13594397 13486617 13384947 
3039.037 13289346 13199471 13114122 13032750 12954125 12877562 12802753 
3042.412 12729629 12658563 12589931 12524072 12461122 12400704 12342032 
3045.787 12284460 12227030 12169678 12112366 12056084 12001989 11951137 
3049.162 11904275 11861199 11821190 11782240 11742817 11700812 11654691 
3052.538 11603744 11547425 11486012 11420184 11350659 11278798 11206202 
3055.913 11134570 11065940 11001944 10943800 10891747 10845780 10805015 
3059.288 10768263 10734570 10702748 10672218 10642234 10612388 10582373 
3062.663 10552260 10522420 10493872 10467939 10446149 10429959 10420389 
3066.039 10417606 10420965 10428839 10439021 10448864 10455754 10457315 
3069.414 10451918 10438919 10418521 10391779 10360627 10327067 10292628 
3072.789 10258701 10225997 10194415 10164091 10134515 10105687 10077540 
3076.164 10049868 10022402 9994870 9966933 9938523 9909607 9880658 9852219 
3080.022 9824495 9797450 9770677 9743534 9715511 9686576 9657269 9628135 
3083.879 9599916 9572715 9546364 9520149 9493562 9466572 9440193 9415610 
3087.737 9394684 9378838 9368207 9362046 9358762 9356460 9353480 9349113 
3091.594 9343188 9336418 9329545 9323282 9317764 9313262 9309539 9306965 
3095.451 9306017 9307033 9310249 9315869 9323452 9332389 9342275 9352938 
3099.309 9364246 9376368 9389504 9403386 9417776 9431930 9445374 9457801 
3103.166 9469179 9479745 9490007 9500607 9511648 9523738 9537151 9551885 
3107.024 9567804 9584673 9601237 9616718 9630032 9640398 9647952 9653780 
3110.881 9659268 9666349 9676683 9690777 9708464 9728455 9748990 9768407 
3114.739 9785318 9799043 9809888 9818767 9826562 9834527 9843542 9853948 
3118.596 9865710 9878624 9891776 9904590 9916793 9928014 9938658 9949406 
3122.453 9960865 9973477 9987378 10002194 10016706 10030235 10041866 
3125.829 10051428 10059634 10067502 10076284 10087001 10100193 10115149 
3129.204 10131090 10146861 10161276 10174267 10186343 10198317 10211682 
3132.579 10227592 10246657 10268574 10292492 10317295 10341556 10364359 
3135.954 10385331 10404607 10422730 10440242 10457519 10474897 10492140 
3139.330 10509317 10526493 10543806 10561698 10580982 10602168 10625732 
3142.705 10652184 10681455 10713174 10747171 10782869 10819453 10856345 
3146.080 10892970 10928815 10963814 10997661 11030966 11064037 11097381 
3149.455 11131102 11165472 11200286 11235307 11270739 11306344 11342564 
3152.831 11379603 11417496 11455868 11494619 11533135 11571075 11608780 
3156.206 11646829 11686175 11727737 11772265 11819794 11870052 11922052 
3159.581 11974706 12027401 12079864 12132060 12184774 12238550 12293901 
3162.956 12350793 12409193 12468521 12528574 12589522 12651331 12714514 
3166.332 12779651 12846640 12915040 12983724 13051154 13115215 13174538 
3169.707 13227821 13274963 13316609 13353954 13388637 13422160 13455481 
3173.082 13488839 13522062 13554605 13585919 13615218 13642400 13667394 
3176.457 13690646 13712532 13733597 13754254 13775117 13796528 13818691 
3179.833 13842055 13866480 13892171 13919130 13947391 13977125 14008676 
3183.208 14042213 14078182 14116927 14158620 14203090 14250577 14300467 
3186.583 14352486 14406017 14460344 14515088 14569976 14624837 14680013 
3189.958 14735711 14792410 14850556 14910287 14971399 15033480 15096014 
3193.333 15158216 15219568 15279694 15338385 15395404 15451708 15507985 
3196.709 15565541 15625885 15690293 15759485 15833603 15911857 15992567 
3200.084 16074013 16154237 16231965 16306611 16378481 16447956 16516374 
3203.459 16585078 16654827 16726652 16801038 16877952 16956982 17037196 
3206.834 17117150 17195738 17272000 17345582 17417246 17488232 17559920 
3210.210 17633448 17709164 17786478 17864120 17941084 18016438 18090424 
3213.585 18164214 18239124 18316776 18397968 18482426 18569320 18657304 
3216.960 18745170 18832012 18917938 19002912 19087314 19171214 19254540 
3220.335 19336946 19418574 19499314 19579548 19659936 19741138 19823290 
3223.711 19906638 19991078 20076192 20162192 20248972 20336638 20425432 
3227.086 20515216 20605402 20695224 20783780 20870060 20953330 21033486 
3230.461 21110560 21185040 21257898 21329758 21401178 21472610 21544228 
3233.836 21616168 21688750 21762074 21837190 21914372 21994534 22077706 
3237.212 22164102 22252818 22342912 22433966 22525076 22616272 22707454 
3240.587 22798726 22889632 22979544 23067380 23151842 23232580 23309800 
3243.962 23384554 23458970 23535008 23614242 23697866 23785950 23878010 
3247.337 23973380 24071746 24172656 24276466 24383170 24492464 24603886 
3250.713 24716286 24828642 24939872 25049516 25157464 25264704 25372006 
3254.088 25480388 25590764 25703526 25818212 25934198 26050706 26166154 
3257.463 26279664 26390736 26499266 26605922 26712216 26819136 26927844 
3260.838 27039188 27153066 27268880 27385674 27502468 27617986 27731766 
3264.214 27843284 27952672 28060462 28167574 28274886 28383500 28493802 
3267.589 28606010 28719590 28833450 28946702 29058176 29167624 29274796 
3270.964 29380360 29484962 29588804 29692282 29795326 29898216 30001412 
3274.339 30106054 30213316 30324226 30439396 30557972 30678396 30798638 
3277.715 30916458 31030290 31139878 31245900 31350166 31454812 31561554 
3281.090 31671848 31786446 31905140 32027542 32152906 32280446 32409236 
3284.465 32538746 32668222 32796770 32924212 33050082 33174024 33296392 
3287.840 33417792 33539328 33662480 33788712 33919452 34055040 34195288 
3291.216 34338672 34483964 34629276 34773984 34918092 35062828 35209444 
3294.591 35359268 35512956 35670088 35829896 35991272 36153364 36316196 
3297.966 36480280 36646012 36814476 36985712 37159652 37335932 37514744 
3301.341 37696012 37880540 38069084 38262168 38459712 38661332 38866016 
3304.717 39073048 39281772 39491684 39703040 39916316 40132136 40351804 
3308.092 40576460 40807856 41047608 41296744 41555392 41822372 42095828 
3311.467 42373732 42654008 42936144 43220772 43509284 43802972 44102916 
3314.842 44408824 44719392 45033196 45348956 45666564 45987244 46312620 
3318.218 46644696 46984776 47332700 47687672 48047928 48411412 48776568 
3321.593 49142552 49508512 49874628 50240876 50607312 50973876 51340412 
3324.968 51706140 52069672 52429844 52784780 53133452 53475508 53811228 
3328.343 54141888 54468508 54791468 55109704 55421476 55724012 56014432 
3331.719 56291016 56552720 56799096 57030268 57245616 57443972 57624712 
3335.094 57786412 57929888 58056212 58167500 58265548 58351420 58424568 
3338.469 58483364 58525448 58548616 58551344 58532956 58493376 58432456 
3341.844 58350472 58247248 58122800 57977936 57813780 57631332 57431264 
3345.219 57212840 56974580 56714436 56430452 56122144 55790544 55438492 
3348.595 55068820 54684808 54288588 53881148 53462840 53034004 52594820 
3351.970 52146256 51689196 51224264 50752048 50272452 49785960 49293664 
3355.345 48797848 48301632 47808464 47321064 46841884 46371272 45909232 
3358.720 45455084 45008020 44568136 44135632 43710696 43293100 42882196 
3362.096 42476576 42075132 41676972 41281876 40891000 40505744 40127920 
3365.471 39759500 39401700 39055644 38721352 38398896 38087824 37787128 
3368.846 37495852 37212640 36935708 36664148 36396360 36131652 35869984 
3372.221 35610956 35354920 35102232 34853212 34608028 34367072 34130376 
3375.597 33897744 33669320 33444774 33223920 33007074 32793946 32584708 
3378.972 32379356 32177490 31978286 31781242 31585320 31389806 31194560 
3382.347 30999650 30805076 30611298 30418216 30225712 30033650 29841746 
3385.722 29650384 29460528 29273234 29089708 28910718 28736584 28566446 
3389.098 28399170 28233336 28067532 27900942 27733852 27566718 27401626 
3392.473 27240126 27083832 26933660 26789248 26648936 26510290 26370526 
3395.848 26227252 26079346 25926952 25771588 25615612 25461414 25310644 
3399.223 25164102 25021226 24880676 24741258 24601992 24462492 24322648 
3402.599 24183236 24044778 23907590 23772440 23639328 23508706 23380428 
3405.974 23254566 23130068 23005956 22880272 22751414 22618788 22482014 
3409.349 22342318 22201692 22062158 21925350 21792558 21663430 21537436 
3412.724 21413362 21290434 21167820 21045346 20923218 20801056 20678824 
3416.100 20555862 20431266 20304102 20173958 20040486 19904660 19767664 
3419.475 19631580 19498898 19371556 19251008 19137728 19031090 18929256 
3422.850 18829868 18730916 18630810 18529036 18425622 18321476 18217528 
3426.225 18114122 18011292 17908280 17804844 17700294 17594836 17488784 
3429.601 17382654 17276586 17170748 17064798 16958256 16851360 16744800 
3432.976 16639782 16537646 16439697 16345726 16254770 16164932 16073979 
3436.351 15980501 15883915 15784876 15685448 15587761 15493152 15402167 
3439.726 15314359 15227736 15140718 15052311 14962310 14871437 14780960 
3443.102 14691838 14603694 14515396 14424650 14329198 14228082 14121685 
3446.477 14012679 13905377 13804291 13713011 13633441 13565031 13505143 
3449.852 13450218 13396257 13339808 13279132 13213031 13141750 13065666 
3453.227 12985840 12902684 12817155 12729594 12640790 12551493 12462452 
3456.603 12374247 12287595 12202426 12118840 12036292 11954270 11871754 
3459.978 11788334 11703807 11618002 11531467 11445459 11361236 11279955 
3463.353 11202666 11129267 11059108 10991374 10924602 10857772 10790511 
3466.728 10722649 10654527 10587025 10519976 10453208 10386587 10318924 
3470.104 10249304 10177557 10103280 10026607 9948558 9869506 9790299 9711377 
3473.961 9632979 9554730 9476562 9398037 9319220 9240621 9163220 9088507 
3477.818 9017427 8950518 8887338 8826739 8766723 8705228 8641003 8573611 
3481.676 8503932 8433284 8363696 8295941 8230393 8166035 8101148 8034009 
3485.533 7963337 7888694 7810826 7731319 7652029 7575046 7502257 7434502 
3489.391 7372285 7315199 7262534 7212975 7165038 7117579 7069248 7019239 
3493.248 6966509 6910654 6851677 6790149 6727048 6664057 6603498 6547118 
3497.105 6496867 6453045 6414641 6379469 6344366 6305569 6260690 6207851 
3500.963 6146884 6079139 6007306 5934342 5863541 5797754 5738759 5687426 
3504.820 5643417 5604615 5568635 5532323 5492591 5447293 5395962 5339772 
3508.678 5280940 5223088 5168429 5118841 5074453 5034126 4996049 4958545 
3512.535 4920675 4882004 4843471 4805042 4766515 4727758 4687597 4645297 
3516.393 4600656 4554380 4508175 4464185 4424149 4388937 4358513 4331037 
3520.250 4303997 4274583 4240554 4200706 4155442 4106336 4056199 4006871 
3524.107 3960122 3915486 3871789 3827061 3779764 3729565 3677834 3627279 
3527.965 3581440 3542655 3512290 3489443 3471640 3455509 3438542 3418705 
3531.822 3395662 3370083 3342769 3314088 3283840 3251357 3215572 3176151 
3535.680 3133664 3089379 3045432 3003725 2965559 2931298 2900776 2872858 
3539.537 2846109 2819362 2791482 2761870 2729960 2695818 2659645 2621409 
3543.395 2581676 2540080 2496522 2451236 2404488 2357878 2313539 2274034 
3547.252 2241094 2215216 2194335 2174954 2152111 2121577 2080524 2029422 
3551.109 1970771 1909698 1852227 1802516 1763057 1733582 1711693 1694462 
3554.967 1678895 1662863 1645301 1625878 1604028 1579419 1551486 1520130 
3558.824 1485351 1448548 1411249 1375416 1342876 1313961 1288238 1264145 
3562.682 1239024 1209185 1171541 1122373 1059194 981444 891092 793257 696306 
3567.021 609762 542909 501408 486182 492949 514578 541980 566995 583550 
3571.361 587797 579105 558966 530700 498257 464655 432515 402334 373946 
3575.700 346289 317904 288428 257660 226132 194706 164276 135406 108295 
3580.040 83273 59877 37940 17163 -3147 -23822 -46318 -72590 -105088 -145765 
3584.862 -197202 -260189 -334326 -416030 -499109 -575388 -635509 -672266 
3588.719 -682786 -668957 -637726 -598319 -561093 -534686 -524129 -531674 
3592.577 -555832 -592496 -636005 -681363 -724269 -762440 -795118 -822039 
3596.434 -843733 -861160 -876074 -890392 -907090 -928020 -953511 -981777 
3600.292 -1008951 -1030074 -1041544 -1041742 -1032718 -1018703 -1005381 
3603.667 -997844 -999959 -1013248 -1037776 -1073209 -1119017 -1174271 
3607.042 -1237052 -1304084 -1369950 -1428739 -1475632 -1509181 -1532063 
3610.417 -1550816 -1571649 -1599809 -1636022 -1676457 -1713686 -1739659 
3613.792 -1748702 -1740385 -1719561 -1694280 -1674344 -1668469 -1681441 
3617.168 -1715336 -1767215 -1830404 -1894376 -1947849 -1980867 -1987332 
3620.543 -1967310 -1925880 -1872371 -1816909 -1767776 -1730023 -1705006 
3623.918 -1690748 -1684378 -1684444 -1692861 -1715336 -1760549 -1836904 
3627.293 -1947618 -2086994 -2235687 -2365677 -2450229 -2474148 -2440806 
3630.669 -2367753 -2278241 -2192370 -2123727 -2078948 -2057513 -2053589 
3634.044 -2058338 -2063218 -2062460 -2054051 -2039771 -2023908 -2010914 
3637.419 -2003691 -2003031 -2007681 -2015135 -2023182 -2031032 -2039177 
3640.794 -2048807 -2061273 -2076046 -2091578 -2105723 -2117264 -2127585 
3644.170 -2140707 -2162830 -2200414 -2258299 -2336907 -2431844 -2535884 
3647.545 -2639307 -2733782 -2813818 -2875967 -2916221 -2929813 -2910626 
3650.920 -2855032 -2765851 -2652908 -2531931 -2420476 -2335029 -2286020 
3654.295 -2276329 -2300225 -2343795 -2388711 -2415830 -2412996 -2377408 
3657.671 -2314661 -2234269 -2147664 -2063911 -1989112 -1926969 -1878013 
3661.046 -1839940 -1808264 -1776784 -1740253 -1694874 -1640511 -1579275 
3664.421 -1514893 -1450040 -1384912 -1317562 -1244948 -1163168 -1067425 
3667.796 -949378 -789727 -551993 -185444 371458 1170412 2231002 3539247 
3671.654 5055077 6735259 8540595 10435016 12372202 14250577 15895978 
3675.029 17077308 17552882 17189672 16021308 14224419 12031182 9659878 
3678.404 7299025 5088634 3138871 1528642 287300 -602919 -1201631 -1585713 
3682.262 -1832384 -2000558 -2123265 -2215809 -2284668 -2335391 -2379847 
3685.637 -2433392 -2510651 -2620172 -2760090 -2917504 -3071243 -3200819 
3689.012 -3291949 -3340549 -3350544 -3328778 -3281558 -3213843 -3130887 
3692.387 -3040085 -2950185 -2870141 -2806938 -2762493 -2734342 -2716759 
3695.763 -2703522 -2689955 -2674577 -2660022 -2651163 -2653172 -2670000 
3699.138 -2703851 -2753867 -2816814 -2886599 -2954068 -3009912 -3044922 
3702.513 -3053575 -3035741 -2996815 -2945380 -2891536 -2844334 -2808782 
3705.888 -2786889 -2777473 -2778757 -2788996 -2808584 -2838508 -2880641 
3709.264 -2935276 -2999579 -3068545 -3134736 -3190392 -3229202 -3246830 
3712.639 -3241568 -3213975 -3166710 -3103945 -3031925 -2957787 -2889298 
3716.014 -2833339 -2794329 -2772897 -2765785 -2767958 -2773457 -2778395 
3719.389 -2782313 -2786724 -2794033 -2805588 -2819908 -2833109 -2841503 
3722.765 -2842622 -2837224 -2829159 -2823464 -2824682 -2833833 -2848185 
3726.140 -2862439 -2870141 -2866718 -2851477 -2828303 -2803942 -2786823 
3729.515 -2784716 -2803481 -2844696 -2905689 -2978815 -3053838 -3120459 
3732.890 -3173190 -3212692 -3245285 -3279355 -3320360 -3366984 -3410973 
3736.266 -3439441 -3440394 -3409723 -3350709 -3273271 -3189208 -3108320 
3739.641 -3036959 -2977828 -2932775 -2905524 -2903384 -2937580 -3020310 
3743.016 -3156842 -3337261 -3528944 -3685653 -3764299 -3749845 -3660027 
3746.391 -3533250 -3409132 -3319275 -3282840 -3303919 -3372343 -3466297 
3749.767 -3560001 -3631474 -3668076 -3667682 -3634168 -3572555 -3487137 
3753.142 -3383094 -3267878 -3151118 -3044362 -2958050 -2898842 -2868396 
3756.517 -2863624 -2877317 -2900653 -2926621 -2950316 -2968976 -2980724 
3759.892 -2981908 -2968680 -2938765 -2893445 -2839693 -2787811 -2749027 
3763.268 -2731675 -2738688 -2764864 -2798872 -2827513 -2839857 -2832977 
3766.643 -2811876 -2787449 -2771284 -2770823 -2787152 -2814246 -2841470 
3770.018 -2856744 -2852103 -2826032 -2782873 -2730951 -2679418 -2635684 
3773.393 -2603606 -2584305 -2575412 -2573337 -2574160 -2575544 -2577684 
3776.769 -2582922 -2594746 -2615496 -2644379 -2676322 -2702666 -2714092 
3780.144 -2704477 -2673787 -2628966 -2581472 -2542604 -2521324 -2520863 
3783.519 -2537927 -2564707 -2591815 -2610720 -2617768 -2613190 -2601103 
3786.894 -2586149 -2572019 -2560326 -2551169 -2544218 -2538717 -2534237 
3790.270 -2530482 -2526628 -2520863 -2512364 -2501394 -2490522 -2484954 
3793.645 -2491444 -2515493 -2559305 -2619349 -2686366 -2747875 -2791037 
3797.020 -2809572 -2805654 -2790379 -2779152 -2788831 -2832385 -2913258 
3800.395 -3022810 -3138651 -3231373 -3272350 -3248014 -3164078 -3042552 
3803.771 -2912699 -2800617 -2727921 -2705070 -2730457 -2788634 -2855131 
3807.146 -2902595 -2911251 -2876494 -2807860 -2722456 -2637265 -2564081 
3810.521 -2507916 -2467427 -2438433 -2416852 -2402815 -2400607 -2417675 
3813.896 -2461563 -2535061 -2632490 -2738326 -2829356 -2885183 -2895814 
3817.271 -2867014 -2816452 -2767135 -2741981 -2756435 -2815892 -2911646 
3820.647 -3021955 -3115525 -3163256 -3151085 -3083482 -2979342 -2862373 
3824.022 -2754525 -2670757 -2616418 -2588784 -2578508 -2573699 -2563554 
3827.397 -2543395 -2514966 -2486041 -2465879 -2462123 -2478727 -2514307 
3830.772 -2562599 -2614145 -2659956 -2692458 -2708692 -2709153 -2699011 
3834.148 -2684950 -2675071 -2677244 -2698089 -2741092 -2805029 -2882550 
3837.523 -2961933 -3028273 -3068940 -3077165 -3053509 -3004943 -2941628 
3840.898 -2874848 -2813061 -2761571 -2722258 -2693907 -2672470 -2652744 
3844.273 -2630514 -2602256 -2567012 -2525936 -2482154 -2439718 -2402584 
3847.649 -2373817 -2354934 -2346728 -2349826 -2366468 -2401628 -2463078 
3851.024 -2560523 -2701316 -2884591 -3095720 -3302636 -3461761 -3538081 
3854.399 -3519512 -3420901 -3271429 -3102234 -2937054 -2789029 -2664368 
3857.774 -2564641 -2488677 -2435139 -2402254 -2388843 -2392698 -2410986 
3861.150 -2439685 -2474510 -2512396 -2551827 -2591913 -2631041 -2665653 
3864.525 -2688836 -2693709 -2675433 -2635816 -2583218 -2531865 -2498560 
3867.900 -2496188 -2530614 -2596623 -2677508 -2748566 -2787547 -2784815 
3871.275 -2745668 -2687189 -2627649 -2582757 -2559239 -2554100 -2556768 
3874.651 -2554265 -2536609 -2500932 -2451975 -2400014 -2357175 -2333150 
3878.026 -2333809 -2359350 -2404858 -2460014 -2511079 -2545865 -2556011 
3881.401 -2539112 -2501031 -2452601 -2407790 -2379221 -2376848 -2403111 
3884.776 -2452370 -2509465 -2554001 -2569285 -2547216 -2492235 -2418763 
3888.152 -2346102 -2291623 -2267463 -2278604 -2320890 -2381692 -2443837 
3891.527 -2490621 -2511211 -2502876 -2470129 -2421596 -2366501 -2311860 
3894.902 -2263046 -2223226 -2194711 -2179315 -2178985 -2194612 -2225567 
3898.277 -2268880 -2319605 -2370686 -2415929 -2450987 -2474675 -2489336 
3901.653 -2499186 -2508608 -2519677 -2531569 -2540101 -2539574 -2524552 
3905.028 -2492037 -2443013 -2381890 -2315419 -2250026 -2191513 -2143378 
3908.403 -2106713 -2080597 -2062921 -2050918 -2042047 -2034099 -2025920 
3911.778 -2016685 -2006989 -1997886 -1991949 -1992147 -2001580 -2022688 
3915.154 -2055765 -2098304 -2145488 -2190854 -2228039 -2252630 -2263310 
3918.529 -2261365 -2249828 -2231336 -2207831 -2180963 -2151291 -2120924 
3921.904 -2093424 -2073078 -2064043 -2068363 -2084752 -2108361 -2131904 
3925.279 -2148587 -2153698 -2147137 -2132893 -2116901 -2105229 -2101701 
3928.655 -2107339 -2120364 -2137311 -2154060 -2168237 -2178260 -2183172 
3932.030 -2182381 -2175392 -2161644 -2141400 -2116605 -2090423 -2066681 
3935.405 -2049005 -2039111 -2036440 -2038452 -2041387 -2042145 -2039309 
3938.780 -2033538 -2028129 -2026480 -2032252 -2046433 -2068231 -2094446 
3942.156 -2120298 -2141499 -2154159 -2156731 -2149741 -2135861 -2118715 
3945.531 -2102492 -2090390 -2083927 -2083433 -2086565 -2090292 -2091314 
3948.906 -2087225 -2077860 -2064504 -2050192 -2037660 -2028558 -2023017 
3952.281 -2020148 -2018136 -2015102 -2010353 -2004284 -1997589 -1990927 
3955.656 -1984957 -1979218 -1973314 -1966915 -1960582 -1955172 -1951973 
3959.032 -1952170 -1956096 -1962990 -1971433 -1979679 -1986408 -1990729 
3962.407 -1992378 -1991454 -1988552 -1983670 -1976975 -1969224 -1961175 
3965.782 -1954183 -1949334 -1947387 -1948707 -1952995 -1959031 -1966387 
3969.157 -1974237 -1982219 -1990201 -1997688 -2004119 -2008341 -2009232 
3972.533 -2006428 -1999997 -1990762 -1980141 -1969323 -1959064 -1949532 
3975.908 -1939999 -1930004 -1919349 -1908100 -1897081 -1887481 -1880058 
3979.283 -1875572 -1873559 -1873625 -1875044 -1877221 -1879531 -1882269 
3982.658 -1885667 -1890021 -1895729 -1903151 -1912025 -1921559 -1930465 
3986.034 -1937162 -1940361 -1939438 -1934556 -1927431 -1920206 -1915159 
3989.409 -1913510 -1915126 -1918722 -1921295 -1920767 -1915258 -1904735 
3992.784 -1890978 -1876462 -1864189 -1856568 -1854391 -1857591 -1864948 
3996.159 -1874582 -1885073 -1895069 -1904042 -1911827 -1918722 -1924957 
3999.535 -1930795 -1936436 -1941747 
##END=
