
##TITLE=Z408_1_e
##JCAMP-DX=5.01  $$ Nicolet v. 1
##DATATYPE=INFRARED SPECTRUM
##ORIGIN=UniL
##OWNER=Nicolet
##LONGDATE=2011/09/16
##TIME=10:06:51
##SPECTROMETER/DATA SYSTEM=Nicolet iS5
##DATA PROCESSING=
Ratio against background
%Transmittance->Absorbance
Truncated
ElementMultiply or ElementDivide
##COMMENTS=
Number of sample scans: 32
Collection length: 51.14 sec
Sample gain: 2.0
Background collected on: Ven Sep 16 09:40:23 2011 (GMT+02:00);
Number of background scans: 32
Background gain: 2.0
Sample spacing:  1.000
Number of scan points: 12415
Resolution points: 8192
Number of FFT points: 65536
Apodization: N-B fort;
Phase correction: Mertz;
Laser frequency: 15798.0 cm-1
Number of rejected sample scans: 0
Number of rejected background scans: 0
Bench serial number: ASB1000141;
##RESOLUTION=4.000
##XUNITS=1/CM
##YUNITS=ABSORBANCE
##FIRSTX=649.893372
##LASTX=4000.122314
##FIRSTY=0.089166
##MAXX=4000.122314
##MINX=649.893372
##MAXY=0.375130
##MINY=-0.002415
##XFACTOR=1.000000
##YFACTOR=1.000000E-009
##NPOINTS=6950
##DELTAX=0.482117
##ZPD=6100
##XYDATA=(X++(Y..Y))
649.893 89165520 89425248 89753856 90173656 90686968 91274608 91909496 
653.268 92576152 93282248 94057856 94940400 95957960 97119264 98413248 
656.643 99824384 101347720 102997160 104801320 106788768 108970088 111336432 
660.018 113867792 116555664 119420064 122512824 125896128 129621696 
662.911 133701488 138109888 142799824 147741408 152940800 158414560 
665.803 164145440 169985728 175539488 180192976 183246352 184226784 
668.696 183135872 180390912 176560656 172095856 167273440 162219280 
671.589 156982640 151625840 146248512 140970256 135916896 131173192 
674.481 126771104 122708320 118965816 115531064 112403144 109584840 
677.374 107068000 104825912 102813856 100979864 99276424 97673552 96156168 
680.749 94718024 93352648 92045984 90778760 89535024 88309560 87114688 
684.124 85974744 84921016 83976888 83151032 82437176 81817936 81273512 
687.498 80785440 80339344 79921456 79512648 79087288 78613784 78058608 
690.873 77396976 76615544 75714368 74702800 73594856 72405048 71146904 
694.248 69836584 68496032 67150864 65830976 64562716 63362360 62236132 
697.623 61181320 60190980 59259856 58387996 57579616 56840068 56171164 
700.998 55568088 55019324 54510956 54030276 53569804 53129292 52713992 
704.373 52330932 51984512 51674152 51393148 51131404 50877604 50622872 
707.747 50363904 50102336 49844232 49598760 49377000 49191716 49057224 
711.122 48991420 49013044 49139736 49380676 49730004 50159604 50614348 
714.497 51022428 51302416 51379832 51208864 50779236 50122788 49303056 
717.872 48411632 47551496 46819076 46308604 46099240 46247452 46782432 
721.247 47685748 48882240 50223092 51507324 52510528 53013488 52871256 
724.621 52040872 50600348 48722964 46641412 44595268 42761048 41243000 
727.996 40064328 39187988 38545048 38063876 37690700 37389232 37138244 
731.371 36924924 36736764 36563032 36396644 36237024 36089088 35959348 
734.746 35850836 35759268 35674112 35583044 35479340 35364336 35247676 
738.121 35141388 35053776 34984672 34926280 34867396 34800008 34724520 
741.496 34649228 34586572 34546460 34531284 34535304 34548184 34559556 
744.870 34563932 34562136 34558516 34557044 34558120 34558588 34555036 
748.245 34546496 34536880 34533112 34540792 34560200 34584636 34602720 
751.620 34604764 34588152 34560920 34538852 34538352 34570464 34634868 
754.995 34722580 34820148 34917696 35014300 35117320 35238008 35384572 
758.370 35557836 35751460 35956392 36167156 36386272 36623736 36892528 
761.744 37201488 37552388 37940628 38360748 38813984 39314380 39887512 
765.119 40570424 41404364 42427140 43673584 45166816 46911608 48882052 
768.494 51011732 53193780 55285604 57154632 58724960 60026100 61213704 
771.869 62550836 64347780 66828780 70042144 73765048 77531672 80667168 
775.244 82454928 82379856 80235616 76229304 70881568 64923628 59079344 
778.619 53890412 49701732 46608984 44525952 43255872 42579224 42309552 
781.993 42306488 42488304 42809496 43241524 43766360 44372712 45058812 
785.368 45832564 46708928 47702684 48822504 50071804 51452824 52974220 
788.743 54658084 56540716 58664652 61075208 63811040 66902452 70379160 
792.118 74274536 78628592 83486776 88882400 94818088 101238480 108021640 
795.493 114966384 121786000 128154056 133706752 138084064 141006576 
798.385 142300656 141958704 140143136 137185840 133530168 129628496 
801.278 125916632 122713816 120175408 118291360 116887208 115683264 
804.171 114336136 112549488 110140296 107078136 103496304 99648080 95846800 
807.546 92354456 89337528 86826592 84726464 82853720 80994888 78982112 
810.920 76714888 74182200 71442248 68595432 65747312 62980444 60355196 
814.295 57905240 55647472 53592368 51746076 50111296 48685452 47459716 
817.670 46420936 45554576 44849684 44300712 43905792 43664312 43572872 
821.045 43624160 43808764 44118980 44553488 45120384 45836504 46724092 
824.420 47802804 49086752 50575780 52252708 54076432 55981188 57878436 
827.794 59652308 61180780 62352432 63082732 63344152 63173964 62678360 
831.169 62005912 61334120 60842476 60672132 60920852 61620376 62731072 
834.544 64135456 65644740 67033536 68043072 68439936 68066672 66861288 
837.919 64884076 62295060 59332972 56250132 53268128 50562228 48230092 
841.294 46304584 44769968 43582508 42687272 42028152 41557876 41234400 
844.669 41021568 40893184 40830680 40825364 40876584 40986428 41155380 
848.043 41378596 41645648 41944644 42267372 42612740 42987756 43403672 
851.418 43872028 44398768 44983616 45621144 46305432 47033440 47807280 
854.793 48632936 49517908 50469476 51493632 52597776 53793940 55098984 
858.168 56536980 58136208 59924944 61933416 64192496 66732796 69587176 
861.543 72779912 76315008 80154840 84205504 88309032 92231920 95708000 
864.917 98462928 100246096 100892248 100334256 98620320 95898416 92402408 
868.292 88416976 84215232 80053984 76136504 72592160 69496720 66871876 
871.667 64702904 62953672 61579252 60535936 59781268 59278048 58993408 
875.042 58896140 58960500 59167468 59505148 59970708 60566448 61296040 
878.417 62158432 63143732 64230064 65386868 66574836 67751312 68878600 
881.792 69923224 70863120 71689792 72407592 73032608 73586456 74092712 
885.166 74569184 75025264 75464472 75888936 76305488 76732720 77200024 
888.541 77743912 78401504 79198096 80142080 81221416 82408736 83664344 
891.916 84944344 86208936 87419872 88541936 89543608 90393392 91062096 
895.291 91527288 91771168 91784184 91564272 91117720 90461208 89623552 
898.666 88650216 87598624 86534112 85524616 84623864 83868840 83274560 
902.040 82836600 82538096 82357872 82279568 82294024 82399600 82599528 
905.415 82898472 83300928 83810640 84432784 85174112 86042968 87047232 
908.790 88191584 89476752 90900144 92458648 94151648 95983128 97960312 
912.165 100091696 102383480 104838528 107458912 110251368 113231640 
915.058 116429272 119886536 123648824 127761184 132256256 137147568 
917.950 142424032 148043824 153931696 159958656 165941520 171649424 
920.843 176794512 181092160 184308256 186307776 187113552 186921008 
923.736 186101744 185120240 184499776 184754816 186279792 189335888 
926.628 193991920 200116336 207356480 215155696 222845792 229630192 
929.521 234717008 237449376 237326480 234120928 227892560 218978528 
932.414 207936304 195454848 182316048 169243168 156851680 145634688 
935.306 135889904 127766208 121290056 116398168 112984440 110929656 
938.199 110126584 110469032 111836136 114078568 116974984 120229248 
941.092 123505208 126420856 128627328 129872216 130017368 129078464 
943.985 127204152 124655640 121735912 118738320 115919976 113450200 
946.877 111417584 109841296 108689552 107905392 107425048 107196272 
949.770 107177440 107336040 107647112 108085208 108625088 109245568 
952.663 109929840 110668760 111459728 112302296 113194400 114129624 
955.555 115097232 116085784 117087648 118100880 119129472 120179512 
958.448 121255144 122355576 123474696 124604432 125738800 126876936 
961.341 128022912 129182488 130359800 131554392 132761616 133975368 
964.233 135192368 136414224 137646912 138896928 140167296 141455152 
967.126 142753104 144053520 145353104 146655440 147970496 149310064 
970.019 150681424 152085344 153516240 154967184 156434512 157921904 
972.912 159438752 160996256 162601136 164252448 165941904 167658784 
975.804 169396176 171154608 172941040 174764000 176627680 178527680 
978.697 180451600 182383312 184309888 186225456 188130960 190028592 
981.590 191917232 193787984 195627472 197421888 199165280 200863056 
984.482 202530992 204189264 205853232 207531200 209223472 210928608 
987.375 212649344 214396560 216186432 218035840 219953568 221937472 
990.268 223975584 226053920 228163920 230306224 232489312 234722272 
993.160 237007024 239335504 241691488 244058688 246430576 248813744 
996.053 251226368 253687776 256210864 258795680 261432256 264108064 
998.946 266817696 269568192 272376992 275263264 278238400 281301536 
1001.839 284442144 287649088 290919360 294262656 297697376 301241024 
1004.731 304898624 308658880 312496672 316386912 320314208 324278400 
1007.624 328289152 332354176 336464224 340588384 344675552 348667904 
1010.517 352517568 356189440 359658912 362901184 365874944 368521760 
1013.409 370776352 372579584 373900032 374740192 375130112 375108768 
1016.302 374708288 373947168 372832832 371376416 369605408 367564096 
1019.195 365308640 362893120 360353664 357711712 354981888 352186304 
1022.087 349368736 346595328 343938400 341467424 339227488 337234112 
1024.980 335480448 333947392 332615808 331466944 330478720 329613856 
1027.873 328807104 327972128 327007968 325812608 324307936 322439456 
1030.766 320174816 317497920 314398752 310874496 306937024 302623296 
1033.659 297999904 293151424 288172352 283141152 278105120 273079776 
1036.552 268054480 263007104 257917072 252775760 247587632 242369056 
1039.446 237144480 231947248 226823712 221827168 217015856 212439728 
1042.339 208119936 204038896 200132064 196304592 192442336 188443024 
1045.232 184244960 179832192 175239536 170535408 165810688 161156432 
1048.125 156649216 152352640 148308656 144539376 141050640 137831776 
1051.018 134859888 132102800 129527744 127106072 124816472 122648200 
1053.911 120596544 118659288 116832216 115106472 113470248 111911416 
1056.804 110419456 108987640 107612008 106288456 105010656 103769880 
1059.697 102555904 101361064 100182832 99024792 97895088 96803256 95757696 
1063.072 94763600 93823096 92937936 92110536 91343456 90637488 89988024 
1066.448 89381816 88796696 88206112 87582968 86906928 86169624 85375408 
1069.823 84539720 83683952 82833232 82011584 81239872 80537040 79918192 
1073.198 79393608 78968880 78642888 78409128 78255672 78169104 78134832 
1076.573 78137096 78159752 78182280 78179344 78123968 77989288 77755648 
1079.948 77416696 76981632 76474816 75928752 75382328 74872920 74432216 
1083.324 74089640 73870576 73798152 73895560 74183376 74679152 75397376 
1086.699 76347360 77534168 78956720 80604896 82453000 84450968 86526232 
1090.074 88576104 90477688 92113440 93377664 94202800 94571920 94518696 
1093.449 94122592 93487616 92737504 91990576 91345128 90882784 90655656 
1096.825 90691296 90995008 91551552 92327120 93266224 94297240 95327768 
1100.200 96244776 96932256 97271616 97159960 96532616 95368336 93698800 
1103.575 91598024 89177032 86561944 83869560 81208632 78661472 76282624 
1106.950 74105080 72140504 70384648 68822112 67431104 66186420 65062164 
1110.326 64035804 63088096 62203512 61369992 60577492 59816404 59078740 
1113.701 58357788 57649760 56955008 56277776 55625104 55004128 54421896 
1117.076 53883432 53391492 52947868 52554356 52212800 51925396 51693860 
1120.451 51518780 51399412 51332992 51315092 51337540 51387588 51444844 
1123.827 51479160 51454688 51330304 51067112 50639220 50036744 49271136 
1127.202 48370592 47378672 46343552 45308644 44311060 43374856 42511432 
1130.577 41722272 41001356 40338388 39720760 39136312 38575032 38029084 
1133.952 37494876 36972436 36464712 35975796 35509616 35069328 34656116 
1137.328 34270940 33914652 33589052 33296640 33040036 32820568 32638036 
1140.703 32490716 32376252 32293368 32242614 32226164 32247290 32308142 
1144.078 32408524 32545424 32713306 32905910 33116200 33338178 33565960 
1147.453 33792792 34011176 34212856 34389920 34537064 34652132 34737296 
1150.829 34796492 34836016 34861684 34878992 34892848 34908972 34932708 
1154.204 34970304 35026728 35104316 35202400 35317252 35443136 35574056 
1157.579 35705372 35833888 35956972 36071772 36173856 36256868 36314108 
1160.954 36338644 36325168 36270628 36173420 36033392 35850800 35627028 
1164.330 35364444 35066744 34739988 34390888 34026260 33652632 33274964 
1167.705 32897584 32525066 32162790 31817642 31497526 31209834 30960080 
1171.080 30751262 30583852 30456952 30369708 30322558 30317868 30359510 
1174.455 30451478 30598004 30803226 31070436 31404126 31808980 32290082 
1177.831 32852158 33498850 34233684 35060960 35987712 37025256 38189728 
1181.206 39499052 40971096 42620964 44458004 46487568 48711476 51129728 
1184.581 53739152 56530452 59485468 62568440 65724956 68886640 71965320 
1187.956 74866224 77496176 79760264 81576496 82879944 83625456 83797816 
1191.332 83413296 82520752 81192616 79518576 77597984 75520576 73366896 
1194.707 71200344 69060744 66969552 64930596 62936052 60972932 59029920 
1198.082 57103500 55200524 53338888 51542808 49841184 48259716 46817308 
1201.457 45525320 44386548 43397152 42549292 41833608 41239608 40755080 
1204.833 40366276 40056044 39804132 39590364 39395528 39204340 39007216 
1208.208 38799528 38580316 38350828 38113000 37869876 37625404 37386488 
1211.583 37162500 36964784 36806148 36698544 36652500 36677632 36782380 
1214.958 36974964 37263612 37655140 38153876 38760620 39472560 40284728 
1218.333 41192136 42192364 43286332 44478084 45772732 47175364 48689828 
1221.709 50319552 52068960 53945668 55959856 58124052 60449824 62944136 
1225.084 65608056 68434592 71409080 74506512 77692720 80920712 84125904 
1228.459 87233560 90156440 92800392 95081512 96924760 98274544 99101840 
1231.834 99406616 99224536 98625472 97721400 96656408 95587000 94686000 
1235.210 94112880 94001200 94465360 95586840 97421656 100007592 103363912 
1238.585 107493416 112375632 117965224 124182264 130904016 137982000 
1241.478 145228896 152427136 159353440 165762880 171410544 176082368 
1244.371 179595424 181831856 182749472 182380240 180820544 178208128 
1247.264 174720608 170548000 165880592 160909232 155789392 150629904 
1250.157 145479920 140321024 135078272 129640280 123903272 117793960 
1253.050 111299616 104475336 97441192 90363768 83416344 76773528 70578816 
1256.426 64924432 59859792 55385940 51467820 48044520 45043964 42395104 
1259.801 40029192 37891240 35940200 34146252 32491860 30966770 29563480 
1263.176 28274638 27091026 26000468 24991216 24052974 23178228 22363632 
1266.551 21607810 20909902 20267926 19678138 19136308 18638974 18184738 
1269.927 17774398 17409900 17092920 16823770 16601190 16423730 16291130 
1273.302 16205654 16171742 16194476 16277645 16422354 16625943 16881742 
1276.677 17179366 17505686 17843162 18170020 18463030 18697844 18854884 
1280.052 18924340 18907244 18815714 18667578 18482632 18273820 18046900 
1283.427 17799872 17527318 17225490 16896348 16547766 16192619 15845424 
1286.803 15517807 15218093 14951713 14722069 14533007 14387967 14289063 
1290.178 14235102 14220242 14236094 14272696 14323274 14385844 14463016 
1293.553 14559800 14680596 14826590 14995304 15183195 15387577 15609536 
1296.928 15854085 16128859 16441040 16795770 17195876 17642730 18137752 
1300.304 18682832 19278266 19919298 20591368 21270634 21922494 22507942 
1303.679 22992086 23346896 23557466 23622360 23551972 23365252 23086284 
1307.054 22744710 22370820 21995300 21647512 21349840 21116440 20951452 
1310.429 20849652 20799560 20787014 20799770 20828308 20865922 20908198 
1313.805 20950686 20989320 21020444 21041798 21052822 21053832 21044372 
1317.180 21022218 20983652 20924156 20842004 20739952 20626388 20512610 
1320.555 20410116 20327818 20269038 20233628 20219638 20227032 20259698 
1323.930 20326118 20436476 20601616 20830706 21130564 21506972 21964592 
1327.306 22505360 23125630 23811328 24537618 25265724 25951996 26555198 
1330.681 27042680 27399614 27629390 27751794 27795240 27792274 27774258 
1334.056 27766558 27790578 27863704 27998614 28204660 28485878 28841028 
1337.431 29265118 29751430 30294986 30894542 31553500 32278232 33077006 
1340.807 33956784 34920644 35966832 37085772 38258112 39450208 40618768 
1344.182 41711804 42674880 43465484 44056192 44438332 44618772 44612308 
1347.557 44433192 44088572 43577960 42896204 42040088 41014796 39837936 
1350.932 38539184 37159792 35745412 34339676 32984372 31713620 30554418 
1354.308 29528652 28650392 27926066 27353314 26922556 26619590 26430102 
1357.683 26345070 26360668 26477748 26696994 27014292 27417402 27888434 
1361.058 28405432 28950208 29513686 30098064 30715554 31383146 32119512 
1364.433 32938580 33848060 34847432 35925732 37057552 38196928 39281732 
1367.809 40235212 40974484 41432284 41562392 41348052 40800504 39952680 
1371.184 38851704 37547652 36097660 34562820 33005822 31498204 30109678 
1374.559 28897934 27902958 27139310 26601552 26272940 26137614 26189312 
1377.934 26435982 26900452 27619292 28643844 30031342 31843100 34129480 
1381.310 36906240 40128392 43662224 47297308 50738268 53652504 55736592 
1384.685 56722744 56437020 54828236 51999376 48216800 43863416 39393464 
1388.060 35196684 31529806 28508592 26121040 24285120 22891448 21840326 
1391.435 21050250 20458740 20021192 19700120 19461400 19277296 19125332 
1394.811 18994950 18888696 18819036 18801320 18845266 18949850 19100402 
1398.186 19271442 19430942 19553240 19628182 19664722 19686076 19719224 
1401.561 19786530 19896822 20045552 20216514 20389420 20544848 20669824 
1404.936 20760562 20820278 20857092 20880420 20901626 20933858 20991024 
1408.312 21087258 21232568 21429200 21669768 21939570 22223104 22509896 
1411.687 22800264 23105116 23442114 23827464 24271454 24776828 25341410 
1415.062 25963076 26643652 27389626 28207066 29093958 30034610 30994170 
1418.437 31925578 32786086 33553720 34235264 34854720 35440836 36009776 
1421.813 36564796 37102444 37624104 38146424 38705884 39351200 40131628 
1425.188 41086724 42236692 43588624 45142884 46898688 48849424 50973876 
1428.563 53230632 55551704 57853528 60059884 62117336 64010880 65761380 
1431.938 67419344 69048000 70709536 72464632 74370552 76486152 78875024 
1435.313 81596208 84686552 88142024 91904216 95883824 99998544 104189176 
1438.689 108414728 112618112 116705752 120513448 123812360 126364064 
1441.582 127934200 128354296 127552416 125545992 122434408 118368808 
1444.475 113549120 108189464 102491368 96653960 90849664 85235112 79970448 
1447.850 75198848 71030760 67517920 64640492 62322484 60462468 58976668 
1451.225 57817944 56984516 56503960 56411212 56724520 57438148 58522868 
1454.601 59936056 61633512 63549532 65593368 67647528 69589472 71339496 
1457.976 72885904 74282592 75602472 76910904 78256944 79669416 81161776 
1461.351 82731512 84361512 86007904 87591488 89009152 90136584 90867224 
1464.726 91153480 91026832 90586344 89950968 89229888 88495416 87784528 
1468.102 87115176 86491168 85904480 85326968 84702584 83946576 82954624 
1471.477 81645512 80006896 78131144 76192736 74387424 72859448 71662624 
1474.852 70782968 70175080 69801760 69653448 69751728 70129984 70818920 
1478.227 71828160 73145208 74741568 76586376 78659248 80953608 83479464 
1481.603 86257224 89312952 92671592 96360376 100413864 104878680 109808568 
1484.978 115247592 121207832 127627896 134334448 141049712 147363776 
1487.871 152770624 156753312 158817776 158618992 156065152 151368624 
1490.764 145017712 137626208 129808056 122017640 114507840 107391400 
1493.657 100665968 94289336 88243464 82554568 77308760 72633480 68649496 
1497.032 65428084 62968648 61217864 60092380 59509216 59404424 59728796 
1500.407 60443920 61515496 62903308 64559640 66433652 68456272 70543224 
1503.783 72588872 74425176 75816064 76449480 75970240 74127920 70934272 
1507.158 66715800 61955620 57075952 52322300 47776024 43442300 39314124 
1510.533 35395788 31724740 28355274 25332666 22688742 20428176 18531802 
1513.908 16964492 15679747 14622952 13727510 12926270 12166236 11422463 
1517.284 10710525 10075573 9569870 9224240 9032717 8945782 8884633 8760400 
1521.141 8513494 8147500 7726125 7336227 7038131 6850633 6752523 6703695 
1524.999 6661029 6595290 6496430 6369617 6226370 6074838 5918891 5762497 
1528.856 5616765 5503799 5450447 5479337 5597432 5788654 6012345 6208354 
1532.713 6319319 6307989 6178980 5975962 5763269 5597398 5509906 5514134 
1536.571 5611831 5801783 6079811 6433170 6831750 7215940 7509708 7648623 
1540.428 7613519 7441648 7203846 6970078 6776653 6622876 6479109 6307183 
1544.286 6077862 5788285 5463231 5148110 4889778 4717475 4639570 4643187 
1548.143 4702636 4785242 4861162 4910487 4925836 4913235 4885589 4858783 
1552.000 4845246 4851747 4879859 4926170 4985926 5058261 5150458 5279866 
1555.858 5471552 5749671 6124637 6571372 7013279 7310380 7311459 6955735 
1559.715 6324530 5591894 4913336 4380201 4013158 3790928 3674927 3623169 
1563.573 3600851 3584413 3566641 3553812 3559725 3597176 3673189 3785848 
1567.430 3925750 4075230 4210040 4303762 4333914 4291950 4189665 4058005 
1571.288 3937452 3864067 3865939 3956010 4132561 4378963 4666798 4960622 
1575.145 5220707 5417567 5540511 5602668 5631803 5658892 5709986 5801783 
1579.002 5947073 6156025 6435995 6789947 7214761 7702010 8239882 8817541 
1582.860 9426919 10060211 10705431 11343210 11943440 12471386 12895925 
1586.235 13195850 13368032 13427901 13408046 13351494 13306702 13325254 
1589.610 13453089 13731067 14191587 14850487 15702385 16710641 17811160 
1592.986 18907036 19883848 20633616 21060962 21107188 20760250 20055372 
1596.361 19068930 17897612 16650626 15424241 14292899 13312441 12514182 
1599.736 11910405 11498430 11266081 11196104 11271725 11481418 11817717 
1603.111 12275087 12846538 13518917 14271498 15077764 15903711 16709127 
1606.487 17451254 18079682 18543836 18800594 18817168 18580318 18097194 
1609.862 17395828 16520711 15528623 14487304 13460916 12504770 11659899 
1613.237 10945193 10362187 9896013 9520284 9198281 8888151 8556816 8188287 
1617.094 7793655 7405820 7065544 6805665 6641650 6575173 6595626 6685827 
1620.952 6823874 6987183 7154731 7307853 7434098 7529699 7599930 7657694 
1624.809 7719514 7802190 7916970 8066615 8243427 8430920 8606190 8748973 
1628.667 8849564 8912907 8956775 9004436 9078966 9196521 9364111 9581692 
1632.524 9843374 10138992 10449984 10747850 10990762 11127193 11115567 
1635.899 10945125 10647090 10279396 9902861 9559912 9267191 9021553 8808040 
1639.757 8610144 8416089 8224888 8045519 7893586 7784716 7728587 7728182 
1643.614 7778070 7867134 7975789 8077654 8139364 8122721 7999515 7763633 
1647.472 7441682 7084067 6752052 6501206 6368037 6373551 6521353 6799606 
1651.329 7169856 7554715 7843517 7914169 7709632 7280560 6746701 6217093 
1655.187 5749302 5362649 5053535 4812781 4631599 4502886 4420166 4376854 
1659.044 4366880 4384552 4424116 4478547 4536601 4580397 4589338 4544636 
1662.901 4439849 4287165 4116772 3967713 3872659 3853837 3916823 4052520 
1666.759 4239349 4448585 4650019 4812714 4913135 4937900 4886494 4771875 
1670.616 4617769 4456017 4316780 4225095 4194750 4223523 4290812 4358279 
1674.474 4382075 4325515 4180699 3973464 3753260 3568244 3446491 3395328 
1678.331 3403810 3454774 3532967 3633694 3764490 3940796 4176517 4473157 
1682.188 4808057 5131581 5365937 5426727 5269905 4924428 4485343 4054326 
1686.046 3701827 3452269 3295792 3206092 3151153 3102427 3037391 2945209 
1689.903 2827699 2700019 2585309 2509252 2495522 2559111 2704487 2922959 
1693.761 3193441 3480892 3738388 3923510 4015833 4032320 4017304 4024127 
1697.618 4090114 4225297 4408685 4587496 4690410 4648445 4441924 4117207 
1701.476 3762485 3456778 3241876 3126589 3094351 3114074 3145646 3152221 
1705.333 3109035 3011533 2875460 2727093 2592175 2485858 2411818 2365441 
1709.190 2339989 2331627 2343187 2382998 2462732 2591509 2772474 3001156 
1713.048 3266313 3554581 3851698 4146644 4430308 4690344 4907974 5055814 
1716.905 5101708 5023601 4822631 4529570 4193814 3868112 3593467 3390453 
1720.763 3263675 3205458 3201218 3231628 3277296 3322001 3354656 3372020 
1724.620 3378197 3383874 3402375 3445422 3521009 3630052 3766061 3916221 
1728.478 4066400 4205724 4331539 4450728 4578254 4730538 4916754 5130709 
1732.335 5342489 5500544 5537089 5398108 5078777 4635920 4163169 3743535 
1736.192 3430026 3236702 3151386 3145913 3184529 3231628 3257499 3249621 
1740.050 3214136 3171245 3142742 3143076 3174482 3228390 3290984 3350048 
1743.907 3401640 3450866 3510253 3592799 3707776 3855877 4030180 4217835 
1747.765 4404401 4578522 4729700 4847291 4917525 4923054 4848262 4688903 
1751.622 4458930 4190434 3925215 3704267 3553946 3483130 3482228 3526954 
1755.479 3583445 3617823 3608301 3550572 3459817 3360700 3280000 3234899 
1759.337 3229525 3254996 3291352 3313287 3294356 3218009 3082338 2903678 
1763.194 2710155 2534714 2407653 2347851 2361776 2441306 2566944 2710388 
1767.052 2842340 2943674 3009264 3050604 3086443 3135233 3204656 3287879 
1770.909 3364039 3405247 3389384 3309213 3178221 3023144 2872958 2746798 
1774.767 2651511 2585875 2545212 2526382 2529748 2557844 2611908 2688683 
1778.624 2778743 2867388 2938303 2980138 2990247 2976835 2954983 2942006 
1782.481 2949879 2980905 3027548 3074763 3106265 3108735 3078934 3024712 
1786.339 2963724 2917321 2906113 2945442 3042362 3194776 3390419 3609571 
1790.196 3825223 4005700 4122358 4153501 4093224 3953870 3764122 3558522 
1794.054 3365308 3203855 3080970 2995218 2940205 2909249 2897574 2903678 
1797.911 2927896 2970363 3027882 3092716 3151686 3188935 3191806 3153422 
1801.769 3076198 2970730 2852513 2738096 2640210 2567577 2523349 2507119 
1805.626 2515918 2545812 2593509 2655578 2728726 2809390 2892371 2972164 
1809.483 3042830 3097989 3132663 3142675 3127790 3090714 3039360 2985609 
1813.341 2942140 2920824 2929096 2968127 3032186 3109235 3186699 3252358 
1817.198 3299932 3329380 3345741 3356526 3368246 3386412 3414764 3457346 
1821.056 3518904 3604459 3716398 3852066 4000985 4145272 4262671 4335555 
1824.913 4357074 4336424 4295028 4260596 4255979 4291582 4362629 4450393 
1828.771 4528967 4571189 4559938 4493947 4387899 4265615 4151093 4062788 
1832.628 4009379 3991822 4005433 4043858 4100215 4168589 4245070 4326652 
1836.485 4411229 4497328 4583913 4671487 4762629 4863340 4982609 5130977 
1840.343 5319277 5554405 5837346 6159789 6503123 6840972 7142167 7381385 
1844.200 7547466 7647949 7703999 7740595 7778475 7826311 7882857 7939175 
1848.058 7985070 8012070 8016424 7999481 7964889 7916498 7856000 7782455 
1851.915 7693780 7588263 7466424 7331037 7186564 7037457 6887157 6736942 
1855.772 6586980 6437609 6288961 6142616 5999579 5860686 5725698 5593170 
1859.630 5462057 5331386 5201827 5075023 4953115 4838947 4735294 4645866 
1863.487 4575710 4531177 4519793 4546913 4614755 4719451 4850574 4990083 
1867.345 5116292 5207226 5244048 5217454 5130273 4996820 4837607 4675272 
1871.202 4528565 4409020 4321633 4264712 4231955 4214356 4202947 4190602 
1875.060 4173372 4150156 4121723 4088809 4051550 4008543 3957916 3898334 
1878.917 3830371 3756001 3678770 3602354 3528925 3459583 3393358 3328712 
1882.774 3264043 3199516 3136234 3077332 3027147 2991081 2974533 2981839 
1886.632 3014802 3071760 3144878 3221013 3284374 3318829 3314956 3273591 
1890.489 3207060 3134699 3076832 3049637 3059380 3102194 3165705 3234499 
1894.347 3293889 3334021 3352653 3352853 3341734 3326609 3314222 3309347 
1898.204 3314956 3332519 3361936 3401673 3447961 3496257 3541886 3582442 
1902.062 3617589 3649365 3681677 3717467 3758106 3803797 3853904 3908331 
1905.919 3967579 4032320 4101687 4171165 4233527 4279167 4299646 4291147 
1909.776 4256213 4202947 4141860 4083190 4033056 3993795 3964971 3947483 
1913.634 3944374 3961360 4004430 4075029 4166916 4266083 4351886 4403196 
1917.491 4406409 4360554 4278665 4181770 4094395 4034360 4008877 4014629 
1921.349 4040581 4071751 4092622 4091552 4062888 4007071 3929963 3840800 
1925.206 3750419 3668879 3603757 3559358 3535974 3530094 3535506 3546062 
1929.063 3556117 3562698 3564335 3560861 3552309 3539214 3522077 3503138 
1932.921 3485134 3472275 3467666 3472242 3483965 3497961 3509384 3514595 
1936.778 3514929 3515029 3523447 3548434 3595906 3666740 3757672 3860356 
1940.636 3964068 4057537 4129851 4172269 4180866 4157549 4110450 4052253 
1944.493 3998009 3961125 3949690 3965673 4003393 4053122 4103426 4145807 
1948.351 4176383 4195921 4207564 4214724 4219475 4222754 4225597 4230984 
1952.208 4243899 4269965 4312765 4372603 4443096 4514637 4576714 4621117 
1956.065 4645498 4651593 4645766 4633977 4621051 4609665 4601862 4600255 
1959.923 4608291 4630260 4668707 4722231 4786046 4853690 4918798 4979693 
1963.780 5038819 5101206 5169737 5243276 5314011 5370231 5400524 5398813 
1967.638 5367882 5317767 5262426 5214403 5180333 5161287 5154783 5156426 
1971.495 5164071 5177952 5198474 5225000 5254143 5280437 5299756 5312032 
1975.353 5321658 5336418 5362582 5402067 5449508 5493732 5521719 5525209 
1979.210 5501651 5455279 5393043 5321893 5245490 5163937 5076532 4984352 
1983.067 4890147 4801792 4725681 4668405 4631432 4612913 4609162 4617065 
1986.925 4635920 4668339 4717675 4785811 4871349 4968733 5069156 5163836 
1990.782 5244450 5306028 5345307 5362582 5359228 5340107 5312334 5283522 
1994.640 5262862 5256289 5266216 5289559 5320350 5350808 5375296 5393076 
1998.497 5407905 5425921 5452763 5490008 5534504 5579711 5618511 5645733 
2002.354 5660973 5666344 5665472 5660436 5650634 5634925 5612267 5584410 
2006.212 5556117 5532994 5519504 5515880 5517692 5516819 5506685 5483162 
2010.069 5447595 5405053 5362045 5324912 5297005 5280470 5277351 5291370 
2013.927 5326354 5386568 5472089 5576925 5689474 5796881 5886916 5954060 
2017.784 6000083 6031999 6059080 6087371 6119429 6153774 6187146 6217430 
2021.642 6244992 6271716 6300223 6330985 6362825 6392381 6417533 6437340 
2025.499 6452910 6464916 6472954 6473728 6461957 6433876 6388917 6332061 
2029.356 6273363 6223816 6192524 6182273 6191146 6212488 6239009 6266640 
2033.214 6294609 6324564 6358790 6396819 6435591 6471138 6500062 6522597 
2037.071 6540862 6559228 6580623 6605618 6632599 6659078 6683102 6704805 
2040.929 6726038 6747475 6768340 6785235 6792707 6786447 6765951 6734081 
2044.786 6697200 6662207 6633003 6608646 6584962 6555427 6515433 6464614 
2048.644 6406234 6346417 6290172 6240051 6196120 6156664 6120000 6085691 
2052.501 6055350 6030488 6011539 5997059 5983924 5969815 5953993 5939549 
2056.358 5930715 5932932 5949022 5977440 6012950 6048126 6077022 6096175 
2060.216 6106323 6110927 6114489 6119866 6128636 6139793 6151320 6161671 
2064.073 6168829 6171081 6166007 6150917 6123730 6084112 6034418 5979725 
2067.931 5925307 5875833 5833282 5795974 5759911 5721972 5680309 5636569 
2071.788 5594344 5557358 5527088 5501920 5477793 5450514 5417869 5381905 
2075.646 5346548 5317063 5297039 5286105 5281308 5277049 5268933 5255081 
2079.503 5236033 5214470 5192774 5172420 5153106 5134833 5117969 5105195 
2083.360 5099797 5104659 5119981 5142679 5166854 5186302 5196864 5197937 
2087.218 5191935 5183686 5176477 5171246 5166082 5157331 5142176 5120014 
2091.075 5093495 5067078 5045154 5029701 5019713 5012539 5004462 4993803 
2094.933 4980866 4967325 4955696 4947083 4941419 4936895 4932069 4926539 
2098.790 4921044 4917256 4916318 4917994 4920943 4923925 4926472 4929622 
2102.647 4936593 4950702 4973760 5005735 5044216 5086086 5128362 5170408 
2106.505 5212793 5257396 5304888 5355068 5405355 5453165 5496853 5536250 
2110.362 5573603 5611294 5651507 5695047 5740505 5786035 5830394 5873347 
2114.220 5916103 5960711 6008280 6058844 6110994 6163116 6214001 6263715 
2118.077 6313537 6365044 6418945 6474804 6531545 6587418 6642154 6695955 
2121.935 6750369 6806742 6865545 6925905 6986341 7045540 7103230 7160221 
2125.792 7217860 7276686 7335687 7392338 7444210 7489986 7530980 7570865 
2129.649 7615003 7666126 7725315 7789438 7853605 7912448 7962965 8005286 
2133.507 8041873 8075493 8107326 8136292 8159385 8174577 8182512 8187375 
2137.364 8195613 8213273 8243529 8284560 8331135 8376971 8417508 8451866 
2141.222 8482713 8513596 8548130 8586487 8625692 8661452 8690150 8709622 
2145.079 8720575 8724395 8722265 8714659 8701374 8682680 8660337 8639076 
2148.937 8624001 8618661 8624137 8637420 8654286 8669835 8682308 8693498 
2152.794 8706207 8723211 8744375 8765506 8780078 8783290 8774601 8759555 
2156.651 8748230 8751880 8778185 8827145 8889875 8954272 9006364 9036371 
2160.509 9040600 9019692 8976833 8916560 8842835 8760671 8674162 8588684 
2164.366 8507345 8430176 8355723 8279629 8199226 8114314 8028338 7948117 
2168.224 7880698 7830055 7795004 7769165 7743125 7709058 7662922 7606809 
2172.081 7546792 7491132 7445895 7413235 7391125 7375015 7359614 7341180 
2175.938 7316884 7285412 7245722 7195996 7136575 7069147 6998160 6930518 
2179.796 6874062 6832760 6807314 6793817 6784797 6773254 6755383 6731355 
2183.653 6704435 6678660 6656252 6636603 6616787 6594516 6568815 6542510 
2187.511 6520041 6507428 6508168 6522564 6547791 6578873 6610798 6639732 
2191.368 6663284 6679569 6687341 6685760 6673882 6652988 6626274 6598856 
2195.226 6576047 6561650 6556940 6560170 6567537 6574399 6578133 6577023 
2199.083 6571405 6561852 6548599 6531713 6511061 6486441 6459569 6431152 
2202.940 6402300 6372206 6338516 6298979 6252791 6201633 6151186 6108608 
2206.798 6080449 6069798 6074603 6089119 6105584 6117580 6123024 6123898 
2210.655 6124570 6129107 6139155 6152127 6163486 6167721 6162478 6148934 
2214.513 6131526 6116673 6109751 6113447 6127259 6147153 6169031 6187919 
2218.370 6199616 6201095 6190844 6168863 6136970 6098998 6060961 6027900 
2222.228 6004316 5991684 5987451 5987284 5985873 5979255 5966959 5950668 
2226.085 5933973 5920000 5910394 5903777 5898571 5892659 5885338 5876975 
2229.942 5868646 5860552 5851249 5838185 5818372 5790400 5755312 5716264 
2233.800 5678631 5647277 5625593 5615053 5615053 5624620 5642544 5667821 
2237.657 5699445 5735502 5772872 5808231 5838185 5861459 5878889 5892928 
2241.515 5905825 5919261 5932562 5943345 5948719 5947073 5938978 5926953 
2245.372 5914962 5906397 5902937 5904415 5909453 5916171 5923560 5931488 
2249.229 5940389 5949962 5958427 5963836 5963197 5955034 5939784 5919731 
2253.087 5898201 5878587 5862836 5851350 5843290 5837211 5832073 5827137 
2256.944 5821730 5815216 5806082 5793321 5776129 5755412 5733286 5713310 
2260.802 5697968 5688634 5684371 5682995 5681451 5678161 5673730 5670675 
2264.659 5672454 5681484 5698236 5720730 5744668 5765686 5780360 5787445 
2268.517 5787949 5783684 5777741 5772234 5768138 5765385 5763538 5761591 
2272.374 5758501 5753163 5744534 5732077 5715761 5696289 5674871 5652917 
2276.231 5631669 5611899 5593438 5576422 5560580 5546015 5533464 5523229 
2280.089 5515678 5509940 5504873 5499470 5493061 5486283 5480780 5478599 
2283.946 5481518 5490242 5504369 5522491 5543196 5565816 5590082 5616598 
2287.804 5645935 5678194 5712806 5749167 5786773 5825760 5867000 5911939 
2291.661 5961450 6016209 6075745 6138583 6203313 6268254 6332364 6394667 
2295.519 6455197 6513415 6569891 6625063 6680276 6737548 6798058 6862583 
2299.376 6930450 6999675 7067699 7132028 7191684 7247440 7301822 7358064 
2303.233 7419841 7489413 7568303 7656852 7754964 7862512 7979300 8104828 
2307.091 8238025 8376869 8518934 8661790 8803644 8944226 9083331 9221634 
2310.948 9358897 9494206 9625967 9752819 9874285 9991582 10107518 10226167 
2314.806 10351363 10486336 10632829 10791156 10959974 11137289 11320151 
2318.181 11505166 11688489 11866476 12035815 12194417 12341044 12475103 
2321.556 12596173 12702879 12793574 12866368 12921116 12960133 12988503 
2324.931 13013870 13045521 13091174 13156538 13243159 13348999 13468195 
2328.307 13593030 13715439 13827107 13921525 13994098 14042315 14067127 
2331.682 14072261 14064800 14053575 14046833 14051761 14072398 14109328 
2335.057 14160366 14222467 14292283 14367623 14447601 14531362 14617744 
2338.432 14704588 14788845 14866911 14935938 14994172 15040614 15074917 
2341.808 15095260 15097627 15074883 15015918 14907235 14735676 14490798 
2345.183 14170499 13784385 13357201 12924735 12530791 12221918 12035883 
2348.558 11999503 12124632 12406670 12826061 13349888 13941677 14562027 
2351.933 15176848 15762681 16305475 16799902 17245830 17645734 18003106 
2355.309 18321340 18605702 18862254 19096870 19314500 19517334 19704626 
2358.684 19874310 20024732 20156118 20270704 20370910 20458426 20532100 
2362.059 20588100 20621454 20629098 20610406 20568576 20509624 20438350 
2365.434 20358408 20269906 20170278 20055510 19922178 19768636 19594522 
2368.810 19400348 19186174 18951926 18696876 18420922 18125246 17812438 
2372.185 17486438 17151446 16810888 16467607 16124181 15782883 15446798 
2375.560 15119687 14805129 14506112 14225447 13964054 13722894 13502887 
2378.935 13305574 13133349 12988606 12873091 12787363 12730448 12700184 
2382.311 12693463 12707383 12738705 12783950 12839098 12899510 12959724 
2385.686 13014928 13061330 13097116 13121669 13136115 13141169 13137037 
2389.061 13123069 13097970 13061125 13012367 12952897 12884594 12809613 
2392.436 12729799 12645976 12558996 12469817 12380248 12292742 12209957 
2395.812 12134377 12067361 12009416 11960436 11920894 11891607 11875091 
2399.187 11873900 11890450 11925662 11978998 12048488 12131548 12225566 
2402.562 12329249 12442164 12564794 12697796 12842203 12998370 13167024 
2405.937 13348385 13542504 13749397 13968195 14197784 14436571 14683681 
2409.313 14938853 15202685 15476121 15759107 16050668 16347861 16646082 
2412.688 16940064 17224594 17495098 17747784 17979242 18186328 18365614 
2416.063 18514512 18630880 18715106 18769282 18797134 18803570 18792878 
2419.438 18768384 18732230 18685322 18628424 18562094 18487648 18406610 
2422.813 18320854 18232282 18143588 18057712 17978344 17910526 17859010 
2426.189 17827940 17820378 17837674 17879658 17945366 18033604 18143866 
2429.564 18275892 18429944 18605770 18802808 19020152 19256896 19512622 
2432.939 19787258 20080982 20394140 20725946 21074944 21439782 21818932 
2436.314 22212084 22619904 23043516 23484256 23942742 24419166 24913202 
2439.690 25425262 25956356 26508952 27085208 27687620 28317078 28973266 
2443.065 29654678 30359546 31086202 31833724 32600888 33386372 34187728 
2446.440 35001696 35824572 36652464 37482268 38311708 39138236 39959836 
2449.815 40773388 41576104 42365184 43138904 43896112 44635700 45356272 
2453.191 46054324 46724500 47359932 47953268 48498168 48988600 49420140 
2456.566 49787932 50086644 50309696 50450160 50501260 50457456 50315612 
2459.941 50074408 49734240 49297004 48765892 48145756 47442712 46665796 
2463.316 45825716 44934008 44003572 43046108 42072760 41094660 40121560 
2466.692 39164016 38233040 37338716 36490948 35697892 34965568 34297648 
2470.067 33695640 33159684 32688546 32280446 31932886 31642444 31404306 
2473.442 31213394 31063140 30947200 30859642 30794476 30746496 30710648 
2476.817 30681810 30655246 30627084 30593914 30553812 30505718 30448778 
2480.193 30382392 30305680 30217862 30118272 30007448 29886750 29758526 
2483.568 29625340 29489392 29352354 29215288 29078972 28944506 28813446 
2486.943 28687344 28567756 28455240 28348872 28246420 28145052 28042118 
2490.318 27935606 27824596 27709306 27589916 27466604 27338742 27205200 
2493.694 27064402 26915506 26757708 26591232 26416720 26234924 26046414 
2497.069 25851514 25650340 25442688 25228358 25007326 24779320 24544348 
2500.444 24303130 24056896 23807196 23556486 23306794 23060320 22818492 
2503.819 22582486 22352678 22129724 21914408 21707768 21510350 21322242 
2507.195 21142460 20969118 20799560 20631844 20464746 20298480 20134424 
2510.570 19974354 19819162 19668950 19522568 19377550 19232060 19084752 
2513.945 18935936 18786928 18640218 18498090 18362608 18235392 18116746 
2517.320 18007112 17906174 17813370 17728284 17650460 17579172 17514898 
2520.696 17458050 17410210 17372964 17347650 17334926 17333996 17343272 
2524.071 17360308 17383240 17409970 17439320 17470294 17501996 17533320 
2527.446 17563060 17589936 17612882 17631860 17646734 17657466 17664022 
2530.821 17665886 17662436 17653324 17639522 17622544 17605050 17589730 
2534.197 17578552 17572202 17570132 17570926 17572996 17575168 17577172 
2537.572 17579482 17583450 17590110 17600634 17615850 17636416 17662712 
2540.947 17694772 17731978 17772844 17815166 17856628 17895194 17929446 
2544.322 17959698 17987428 18014434 18042688 18073532 18107350 18143486 
2547.698 18181212 18218874 18255434 18289716 18320648 18347502 18370178 
2551.073 18388464 18403222 18415460 18426730 18437964 18449824 18462166 
2554.448 18475028 18488234 18501926 18516622 18532458 18548710 18563960 
2557.823 18575546 18580456 18575892 18560260 18532700 18494008 18445330 
2561.198 18388152 18323448 18251908 18174304 18091632 18005180 17916532 
2564.574 17827214 17738638 17651530 17566440 17484024 17405244 17331788 
2567.949 17265482 17207910 17159992 17122112 17093748 17073966 17062284 
2571.324 17058080 17061422 17072070 17089854 17114152 17143964 17178366 
2574.699 17216666 17258140 17302342 17348892 17397208 17446424 17496270 
2578.075 17547086 17599770 17655740 17716170 17781890 17852796 17927858 
2581.450 18005834 18086036 18168428 18253810 18343286 18437480 18536400 
2584.825 18638766 18742850 18847480 18952064 19057158 19163700 19272932 
2588.200 19384722 19498030 19610848 19720610 19825614 19925058 20019182 
2591.576 20109022 20195756 20280494 20363860 20446200 20527758 20609086 
2594.951 20690638 20772728 20855458 20938552 21021662 21104926 21188764 
2598.326 21274150 21362266 21454160 21550042 21650160 21754272 21862660 
2601.701 21976270 22096600 22225370 22364296 22514188 22674954 22845592 
2605.077 23025032 23212096 23405570 23604622 23808072 24014628 24222612 
2608.452 24430488 24637270 24842396 25045760 25247252 25445990 25640076 
2611.827 25826864 26003178 26165978 26313386 26444646 26559636 26658908 
2615.202 26742872 26811628 26865168 26903484 26927350 26937926 26936586 
2618.578 26925588 26906374 26880712 26849940 26815822 26779944 26744388 
2621.953 26710700 26680152 26652706 26628222 26605536 26584046 26563652 
2625.328 26545512 26531246 26522934 26522230 26530224 26547168 26572388 
2628.703 26605288 26644956 26690756 26742414 26799786 26862628 26930700 
2632.079 27003786 27081118 27161954 27245204 27329530 27413766 27497030 
2635.454 27579252 27661170 27744164 27830106 27920164 28015188 28114828 
2638.829 28218028 28323018 28428884 28534458 28639634 28744796 28850164 
2642.204 28956016 29062180 29168580 29274758 29381248 29488470 29597176 
2645.580 29708250 29822118 29939532 30060530 30185504 30315060 30449418 
2648.955 30588866 30733694 30883372 31037300 31194916 31355650 31519402 
2652.330 31686246 31857040 32032430 32213390 32400884 32595926 32799308 
2655.705 33011648 33233180 33463810 33702652 33948868 34201312 34459540 
2659.081 34723084 34992144 35266540 35545932 35829464 36115700 36402988 
2662.456 36690212 36976620 37262244 37547292 37832456 38117664 38403024 
2665.831 38688100 38972964 39257868 39543472 39830892 40120652 40413368 
2669.206 40709084 41007800 41309352 41614320 41923552 42237680 42557112 
2672.582 42881468 43209644 43539760 43869792 44198244 44523748 44845092 
2675.957 45161524 45471932 45775420 46071604 46360692 46644364 46925084 
2679.332 47206536 47492276 47785900 48090344 48408264 48741608 49092576 
2682.707 49462948 49854040 50266728 50701252 51156976 51632992 52128544 
2686.083 52643216 53177040 53730040 54301880 54891320 55496280 56114604 
2689.458 56743700 57382104 58029552 58686616 59354736 60036104 60732372 
2692.833 61444836 62174260 62920884 63684216 64463080 65256000 66060760 
2696.208 66875508 67698872 68529856 69368464 70214968 71069856 71933448 
2699.583 72805096 73684248 74570080 75462112 76359448 77261576 78166808 
2702.959 79072816 79975584 80870848 81752928 82617048 83457984 84270584 
2706.334 85049600 85789568 86484416 87128576 87717696 88248296 88718336 
2709.709 89126872 89473456 89757568 89979096 90138096 90235848 90274392 
2713.084 90256480 90184864 90061240 89885920 89657608 89373800 89032256 
2716.460 88631560 88171448 87653760 87081688 86459792 85793608 85089744 
2719.835 84355872 83600040 82830872 82056816 81285736 80524680 79780288 
2723.210 79058584 78365752 77707928 77089928 76516384 75990208 75512808 
2726.585 75084528 74705080 74374528 74093296 73862088 73681568 73551680 
2729.961 73471104 73437480 73447760 73498576 73587320 73711960 73870576 
2733.336 74061384 74282088 74529952 74801704 75093984 75403848 75728568 
2736.711 76065408 76411280 76762800 77115528 77465408 77808432 78141816 
2740.086 78463824 78773200 79069872 79353712 79624992 79884488 80133952 
2743.462 80375976 80613712 80850616 81089448 81332240 81579496 81831376 
2746.837 82087392 82346808 82608912 82872728 83136104 83396552 83651008 
2750.212 83896128 84129920 84351576 84562024 84763640 84959456 85153272 
2753.587 85348744 85549392 85758688 85979800 86214680 86464240 86727496 
2756.963 87001408 87281552 87562784 87840256 88109064 88365200 88604904 
2760.338 88823360 89016144 89177968 89303544 89388736 89430376 89426272 
2763.713 89375136 89276240 89129352 88934976 88694680 88411864 88091248 
2767.088 87739680 87363800 86970272 86565496 86154832 85743872 85338224 
2770.464 84942816 84563552 84204616 83868992 83558224 83272352 83010648 
2773.839 82772848 82557896 82365272 82193480 82039448 81898784 81764728 
2777.214 81629880 81486432 81326928 81144640 80933480 80688160 80404008 
2780.589 80077816 79708344 79297144 78848240 78368768 77865912 77347960 
2783.965 76822080 76293760 75767336 75246256 74733104 74229840 73737640 
2787.340 73256240 72784104 72318664 71856928 71396472 70936296 70476424 
2790.715 70018856 69565712 69119048 68681392 68253520 67836680 67431576 
2794.090 67039148 66660164 66295064 65944576 65608284 65286076 64977616 
2797.466 64682408 64399816 64128736 63867764 63614780 63367152 63122696 
2800.841 62879176 62635572 62391104 62145280 61897272 61645424 61388196 
2804.216 61123412 60850140 60568808 60280960 59989160 59696560 59405716 
2807.591 59118604 58836268 58559304 58288020 58022848 57764460 57512736 
2810.967 57267656 57028156 56792864 56560568 56330248 56101556 55875324 
2814.342 55652632 55434388 55222196 55016916 54820040 54633924 54461900 
2817.717 54308564 54179232 54079772 54015152 53990012 54007012 54067764 
2821.092 54172364 54319904 54508588 54735276 54996272 55287372 55603448 
2824.468 55939164 56289096 56646672 57004956 57357112 57694864 58010960 
2827.843 58297608 58547896 58756064 58917540 59028632 59087432 59093204 
2831.218 59047004 58951320 58809896 58627868 58410508 58163256 57891496 
2834.593 57599668 57292076 56972688 56644252 56309616 55970296 55627096 
2837.969 55279696 54927716 54570352 54207536 53839736 53467784 53092936 
2841.344 52715976 52337060 51955832 51571384 51183104 50791228 50397132 
2844.719 50003320 49613504 49231500 48861324 48506504 48170116 47854372 
2848.094 47561260 47292280 47048728 46831696 46641412 46478496 46342516 
2851.469 46233188 46149348 46089656 46051932 46033620 46031780 46043384 
2854.845 46065560 46095884 46132140 46172380 46214760 46256816 46295736 
2858.220 46328288 46350736 46359328 46350332 46319808 46264664 46182000 
2861.595 46069356 45925552 45750276 45544600 45310412 45051204 44771144 
2864.970 44474448 44166660 43853736 43541480 43236984 42947156 42678536 
2868.346 42437444 42228876 42056292 41921400 41824272 41763380 41735364 
2871.721 41735912 41760464 41803400 41860060 41926652 42000044 42078416 
2875.096 42161328 42248304 42339616 42434924 42533908 42635948 42740684 
2878.471 42847708 42957068 43069012 43183624 43300716 43419564 43539280 
2881.847 43658488 43776368 43892116 44005444 44116448 44225832 44334216 
2885.222 44442260 44550808 44659784 44768792 44876944 44982808 45084656 
2888.597 45181268 45271500 45355428 45433564 45506664 45575844 45641576 
2891.972 45704000 45763236 45819528 45873400 45925844 45978292 46032112 
2895.348 46088480 46148428 46212588 46281768 46357152 46439888 46530752 
2898.723 46630084 46736820 46848936 46963220 47076312 47185408 47288032 
2902.098 47383028 47469212 47545988 47612056 47665672 47705164 47728832 
2905.473 47735784 47725764 47699284 47657092 47600408 47530204 47447924 
2908.849 47355460 47254708 47148844 47039976 46930656 46822100 46714500 
2912.224 46607032 46498668 46387864 46273952 46156976 46037456 45916492 
2915.599 45795596 45676392 45560276 45448936 45343804 45246052 45156928 
2918.974 45077232 45007912 44950212 44905128 44874632 44860704 44864968 
2922.350 44888480 44930956 44990492 45063448 45145052 45229728 45311332 
2925.725 45384416 45444452 45487756 45512588 45518220 45505524 45476716 
2929.100 45434516 45383164 45327328 45272308 45224764 45191820 45180860 
2932.475 45200240 45257196 45358300 45508872 45712356 45970372 46282872 
2935.851 46648532 47064124 47524992 48025688 48559192 49118212 49695936 
2939.226 50286256 50884460 51487552 52092796 52697832 53298844 53889848 
2942.601 54462688 55006648 55508140 55952996 56325908 56612280 56800568 
2945.976 56883428 56859104 56732976 56517280 56230672 55894240 55530996 
2949.352 55162300 54804476 54469900 54165196 53892476 53650628 53436156 
2952.727 53245244 53073088 52915644 52769512 52631624 52500020 52373508 
2956.102 52251068 52132768 52018684 51909116 51804872 51706696 51615528 
2959.477 51532096 51456632 51388744 51327396 51271280 51218892 51169688 
2962.853 51123800 51082392 51047320 51020640 51003832 50998168 51004544 
2966.228 51023436 51055408 51101440 51161672 51235896 51322028 51416716 
2969.603 51515272 51612132 51702332 51781876 51848704 51902576 51944772 
2972.978 51977824 52004828 52029552 52055664 52086404 52123724 52167216 
2976.354 52213248 52253156 52274724 52262052 52197368 52065040 51852660 
2979.729 51554036 51170356 50709928 50187684 49622048 49033888 48444380 
2983.104 47871092 47328936 46828192 46373928 45967320 45605984 45286248 
2986.479 45003756 44755716 44540232 44355752 44199160 44063012 43933140 
2989.854 43789488 43606648 43356400 43015124 42567056 42008548 41349696 
2993.230 40612840 39829696 39032044 38250480 37507844 36816640 36180444 
2996.605 35595240 35052808 34543192 34057188 33588404 33132218 32686618 
2999.980 32250896 31825342 31409968 31005200 30610446 30225074 29847956 
3003.355 29477868 29114048 28756196 28404972 28061488 27727916 27406004 
3006.731 27097376 26802924 26522618 26255762 26000680 25755766 25519074 
3010.106 25289042 25064154 24843624 24626750 24413382 24203800 23998870 
3013.481 23799288 23605988 23419872 23241424 23070698 22907864 22752496 
3016.856 22604546 22463730 22329900 22202496 22080530 21963096 21848200 
3020.232 21733998 21618466 21499590 21375562 21245024 21107432 20963032 
3023.607 20813188 20660650 20508860 20362160 20224982 20101212 19993470 
3026.982 19902926 19829394 19770718 19723142 19682022 19641078 19593482 
3030.357 19532548 19452286 19348242 19218624 19064048 18887796 18694074 
3033.733 18488304 18275650 18060234 17845614 17634794 17430076 17233696 
3037.108 17047294 16871924 16707817 16554339 16410585 16275512 16148666 
3040.483 16029833 15919179 15816525 15720697 15630247 15542806 15456240 
3043.858 15369314 15282027 15195411 15111007 15030221 14953736 14880729 
3047.234 14810340 14740681 14670588 14599513 14527525 14454555 14380706 
3050.609 14305466 14228151 14148008 14064492 13977536 13887518 13794715 
3053.984 13699366 13601406 13500528 13396975 13291499 13185569 13081169 
3057.359 12979968 12882921 12790195 12701242 12615036 12531166 12449597 
3060.735 12371384 12297821 12230132 12168485 12112980 12062830 12017012 
3064.110 11974842 11936050 11900529 11868315 11839134 11812303 11787075 
3067.485 11762153 11736417 11708879 11678653 11644719 11606364 11563044 
3070.860 11514625 11461958 11406543 11350046 11294441 11240985 11189883 
3074.236 11140859 11093064 11045411 10997695 10950019 10902721 10856448 
3077.611 10811300 10766769 10721834 10675479 10626275 10573852 10517769 
3080.986 10458197 10395716 10331037 10265045 10198757 10133429 10069808 
3084.361 10008772 9950117 9893538 9838290 9783928 9730488 9678952 9630709 
3088.219 9587145 9549276 9517033 9488923 9463388 9438330 9412731 9386525 
3092.076 9360760 9336757 9316241 9299958 9287738 9278598 9271118 9264112 
3095.934 9256733 9248880 9241129 9234359 9229486 9226609 9225965 9226914 
3099.791 9228538 9229892 9229824 9227489 9222412 9214425 9203696 9190971 
3103.648 9176791 9162104 9147824 9134897 9124171 9116286 9111651 9110196 
3107.506 9111515 9114662 9118655 9122276 9124780 9125626 9125220 9123527 
3111.363 9121430 9119467 9117741 9116624 9115948 9116117 9117234 9119501 
3115.221 9123088 9127758 9133070 9138112 9142206 9144913 9145726 9144642 
3119.078 9141597 9136826 9130262 9122039 9112057 9101060 9089455 9077917 
3122.936 9067090 9056974 9047197 9037014 9025376 9011844 8996284 8979336 
3126.793 8962221 8946459 8933133 8922816 8915579 8910979 8907969 8905940 
3130.650 8904350 8902963 8902051 8901712 8902321 8903910 8906649 8910269 
3134.508 8914632 8919705 8925353 8931610 8938375 8945579 8952817 8959988 
3138.365 8966347 8971726 8975954 8979336 8982313 8985391 8989011 8993442 
3142.223 8998956 9005688 9013773 9023583 9035626 9050479 9068376 9089218 
3146.080 9112260 9136183 9159600 9181428 9200853 9217877 9233208 9248033 
3149.938 9263130 9279716 9298028 9318509 9340615 9364213 9388657 9413612 
3153.795 9438635 9463355 9487806 9511987 9536440 9561673 9588195 9616515 
3157.652 9647004 9679664 9714562 9751565 9790672 9831816 9874895 9919573 
3161.510 9965340 10012196 10059634 10107892 10157545 10209138 10263009 
3164.885 10319467 10377933 10437697 10497469 10556164 10613033 10667940 
3168.260 10720883 10772102 10821627 10869187 10914341 10956543 10994976 
3171.635 11029097 11058700 11083479 11103432 11118729 11129471 11135896 
3175.011 11138377 11137052 11132190 11123929 11112542 11098537 11082901 
3178.386 11067096 11052821 11041706 11034841 11032428 11033890 11037866 
3181.761 11043100 11048436 11053670 11058904 11065362 11073282 11083411 
3185.136 11095341 11108667 11122740 11137561 11153403 11171285 11192432 
3188.512 11217694 11247922 11283185 11322804 11366202 11412257 11460053 
3191.887 11509113 11558824 11609256 11660681 11713236 11767261 11822586 
3195.262 11878191 11932780 11984857 12032885 12076218 12115433 12151958 
3198.637 12187772 12225157 12265372 12309070 12356009 12405443 12456723 
3202.013 12509749 12564624 12621585 12680738 12741605 12803162 12864559 
3205.388 12925007 12984679 13043984 13103467 13163744 13224440 13284768 
3208.763 13343430 13399640 13453089 13504595 13555460 13606979 13660247 
3212.138 13715610 13772688 13830869 13890290 13950471 14011824 14074657 
3215.514 14138492 14202679 14265848 14326766 14384919 14440270 14493607 
3218.889 14546197 14599068 14652767 14707672 14763990 14822030 14882478 
3222.264 14946260 15014065 15086100 15161442 15238614 15315183 15389636 
3225.639 15460498 15527593 15591367 15652610 15711935 15769759 15826112 
3229.015 15880959 15934646 15987685 16041419 16096363 16153172 16211707 
3232.390 16270766 16329041 16385294 16438492 16488394 16535616 16580880 
3235.765 16625391 16670287 16716357 16764292 16814334 16866240 16919532 
3239.140 16973898 17028684 17083926 17139518 17195948 17253726 17313030 
3242.516 17373654 17434628 17494820 17552710 17607292 17658432 17706678 
3245.891 17753860 17801980 17853072 17908592 17969160 18034848 18105002 
3249.266 18178864 18255366 18333540 18413178 18493352 18574060 18654850 
3252.641 18735344 18815334 18894854 18973422 19051308 19128724 19206018 
3256.017 19283426 19361544 19440784 19521180 19602738 19684968 19767180 
3259.392 19848920 19929498 20008600 20086222 20162296 20237100 20310874 
3262.767 20383550 20455508 20527062 20598628 20671458 20746556 20825040 
3266.142 20907572 20994570 21085204 21178500 21273070 21367728 21461782 
3269.518 21555370 21649080 21744030 21841336 21941836 22045250 22151236 
3272.893 22258224 22365308 22471336 22575820 22678828 22781268 22884044 
3276.268 22988454 23095124 23204372 23315884 23429174 23543124 23656962 
3279.643 23770098 23882246 23993688 24104948 24216798 24329762 24444474 
3283.019 24560934 24679178 24799454 24921730 25047058 25176038 25309624 
3286.394 25448626 25592698 25741106 25892942 26046802 26201630 26357322 
3289.769 26513814 26671554 26830872 26991834 27154372 27318100 27483160 
3293.144 27649764 27818872 27991438 28168668 28351030 28538208 28729822 
3296.520 28925204 29123260 29323640 29525850 29729076 29933144 30137058 
3299.895 30340430 30543468 30747242 30953604 31165046 31384002 31612008 
3303.270 31849552 32096286 32350834 32611604 32877534 33147526 33421080 
3306.645 33698036 33977564 34259536 34543556 34830020 35119512 35413260 
3310.021 35712388 36017520 36328880 36646012 36968756 37296904 37631184 
3313.396 37972452 38321620 38678900 39043936 39415340 39791820 40171604 
3316.771 40554780 40941604 41333108 41730660 42134636 42544908 42960544 
3320.146 43380236 43802972 44227956 44654532 45082632 45511740 45941716 
3323.521 46372452 46804092 47236976 47671512 48108000 48545448 48982404 
3326.897 49416576 49845868 50268812 50684684 51093948 51497144 51894660 
3330.272 52285896 52669812 53044600 53408692 53761204 54101316 54428468 
3333.647 54741968 55039560 55319320 55578476 55815748 56030340 56223696 
3337.022 56397512 56553888 56694276 56818732 56926568 57016516 57087176 
3340.398 57137700 57167220 57174968 57159928 57120584 57055284 56962492 
3343.773 56841316 56691444 56513244 56307052 56073128 55811908 55523652 
3347.148 55208688 54868124 54503668 54117452 53711476 53287980 52848128 
3350.523 52393056 51923152 51438728 50939968 50427312 49901280 49363044 
3353.899 48814164 48256532 47692776 47125760 46557824 45991592 45428592 
3357.274 44869924 44316640 43769292 43228568 42695020 42168920 41650204 
3360.649 41138260 40632380 40131844 39636644 39147696 38666728 38195624 
3364.024 37736708 37291196 36860176 36443020 36038540 35645588 35262948 
3367.400 34889048 34523392 34164928 33813420 33468462 33130110 32798770 
3370.775 32474898 32159186 31851978 31553358 31262814 30979544 30702432 
3374.150 30430546 30163198 29899918 29640380 29384296 29131480 28881892 
3377.525 28635314 28392202 28152830 27917938 27688328 27464274 27246194 
3380.901 27033300 26824810 26619274 26414996 26210288 26003600 25793952 
3384.276 25581486 25366702 25151180 24936714 24725300 24518442 24316798 
3387.651 24120884 23930592 23745564 23565510 23389520 23216674 23045226 
3391.026 22872868 22697472 22517678 22333424 22146180 21958772 21774792 
3394.402 21596564 21424918 21258978 21095778 20932260 20766124 20596926 
3397.777 20426162 20257026 20092398 19934772 19784658 19640420 19499556 
3401.152 19359014 19216270 19070246 18921158 18769940 18618292 18467870 
3404.527 18320128 18176272 18036850 17902376 17772602 17646422 17522246 
3407.903 17397622 17270862 17140174 17005150 16866586 16726136 16585836 
3411.278 16448060 16314419 16185809 16062358 15943205 15827348 15713722 
3414.653 15601328 15489477 15378411 15268540 15160617 15055707 14954457 
3418.028 14856830 14761831 14667881 14573162 14476033 14375295 14270744 
3421.404 14163036 14052890 13941540 13829980 13718345 13607183 13496701 
3424.779 13387133 13279404 13174298 13072393 12974437 12880293 12789308 
3428.154 12700457 12612716 12524891 12436333 12346566 12255693 12164430 
3431.529 12073527 11983733 11895626 11809001 11723720 11639001 11554264 
3434.905 11469102 11383583 11298148 11213172 11129300 11046839 10965922 
3438.280 10887261 10811504 10739733 10673509 10613406 10559389 10510335 
3441.655 10464001 10417809 10370162 10320043 10268031 10215311 10162701 
3445.030 10109825 10054243 9992429 9920217 9835002 9736316 9626948 9512088 
3448.888 9397630 9289668 9191682 9105222 9029876 8964047 8905364 8851931 
3452.745 8802325 8755296 8709487 8663785 8616702 8567021 8514542 8459265 
3456.603 8402104 8344374 8286992 8230696 8175422 8120087 8063847 8005354 
3460.460 7943730 7878471 7809982 7739583 7668655 7599795 7534655 7474783 
3464.317 7420616 7371275 7325443 7281403 7237097 7191583 7144423 7095484 
3468.175 7044933 6992772 6938968 6883689 6827442 6771100 6716415 6664663 
3472.032 6616787 6572246 6529291 6485432 6438080 6385656 6327993 6267144 
3475.890 6206338 6149069 6099166 6058475 6027665 6005391 5988526 5973107 
3479.747 5953993 5926449 5886715 5832610 5764579 5685613 5601191 5517289 
3483.604 5439811 5373049 5318271 5274433 5238179 5205382 5171246 5132151 
3487.462 5085918 5031914 4971045 4905025 4837105 4770669 4708832 4654808 
3491.319 4610636 4577049 4553509 4538241 4528431 4520195 4510218 4494851 
3495.177 4471851 4439748 4398911 4351853 4302324 4256112 4218672 4194215 
3499.034 4185216 4190501 4206360 4226066 4242427 4248316 4238178 4208869 
3502.892 4160460 4095198 4018074 3935580 3855108 3784410 3729966 3695545 
3506.749 3681376 3683582 3693841 3702429 3699254 3677132 3633828 3572420 
3510.606 3499898 3424917 3355324 3295926 3248286 3210565 3180190 3154156 
3514.464 3130994 3110103 3092049 3077232 3065219 3055076 3045299 3034722 
3518.321 3024145 3015303 3010932 3014469 3028115 3051872 3083239 3117678 
3522.179 3149117 3171712 3180757 3174750 3154690 3123852 3086543 3046901 
3526.036 3007262 2968294 2928663 2886300 2838738 2785080 2725159 2660279 
3529.894 2592542 2524049 2457500 2395758 2341721 2298816 2269504 2254882 
3533.751 2253850 2262510 2274734 2282827 2280263 2262710 2229304 2183279 
3537.608 2129901 2076130 2027758 1989211 1963249 1951300 1954295 1973234 
3541.466 2009050 2062147 2131566 2214017 2303646 2391527 2467863 2521450 
3545.323 2542713 2525682 2468663 2376068 2257713 2127703 2001827 1893890 
3549.181 1813961 1765985 1747122 1748452 1758267 1763856 1755372 1727760 
3553.038 1681889 1622985 1558801 1497321 1445656 1407891 1385986 1379637 
3556.896 1386883 1404301 1427604 1452437 1474147 1489540 1497886 1500346 
3560.753 1500978 1506431 1525317 1566051 1637286 1745325 1892159 2074399 
3564.610 2280296 2490057 2675614 2804054 2846910 2785246 2619242 2366574 
3568.468 2061281 1740468 1436713 1173468 961619 801954 688739 612417 563644 
3572.807 533620 515606 504858 497361 490130 481771 471720 460641 450094 
3577.147 441835 436229 433012 429994 425085 415998 402831 386879 372486 
3581.487 365589 373216 403926 465948 565767 707855 891125 1107325 1338090 
3585.826 1557637 1733349 1832694 1834292 1732850 1544569 1300999 1041756 
3589.684 804078 612948 482202 413112 398851 425948 478752 541548 598813 
3594.023 638265 651837 635976 592542 528378 453377 378721 313760 264390 
3598.363 231138 209921 192518 170242 135804 85991 22896 -46550 -111647 
3602.702 -161233 -184020 -171434 -119199 -27135 100109 252753 415998 571739 
3607.042 701516 788311 822104 803082 742306 658176 571739 500910 454571 
3611.382 432680 426611 424190 413411 388405 351794 314854 293567 302619 
3615.721 351197 439314 556677 683098 791796 856962 856729 782236 639062 
3620.061 446445 230176 16401 -172726 -323665 -429403 -486797 -495071 -452871 
3624.400 -357898 -206640 3180 270026 584479 923432 1247065 1502075 1629071 
3628.740 1586602 1372889 1033121 638896 259715 -55197 -287276 -441717 
3632.597 -539021 -605036 -663565 -728900 -803651 -880273 -947427 -996455 
3636.455 -1025016 -1037974 -1043395 -1049609 -1060286 -1074432 -1087091 
3639.830 -1093139 -1090694 -1081671 -1070268 -1058931 -1045246 -1019595 
3643.205 -966702 -869295 -713518 -492953 -211476 117674 472018 822336 
3647.063 1138651 1391171 1553880 1608884 1546664 1368801 1089952 738456 
3650.920 352821 -26141 -359918 -621117 -796143 -882952 -892607 -845023 
3654.778 -770312 -701212 -668329 -691056 -770808 -890491 -1022240 -1139606 
3658.635 -1223505 -1267282 -1275244 -1259221 -1233153 -1206951 -1185308 
3662.010 -1166109 -1143803 -1111978 -1066169 -1003893 -922002 -814598 
3665.385 -671372 -478357 -222504 104583 502735 963910 1475211 2026526 
3669.243 2619075 3271187 4019411 4905159 5971864 7256234 8786265 10583223 
3673.100 12649455 14950993 17366032 19657232 21491304 22498310 22443316 
3676.476 21322380 19341070 16798594 13983969 11143068 8452406 6045607 
3679.851 4018943 2413384 1220682 385718 -170341 -532468 -771172 -929871 
3683.708 -1031528 -1082596 -1083422 -1035297 -944055 -820187 -678915 -537730 
3687.566 -415335 -331578 -301779 -333697 -425961 -567480 -741833 -930797 
3691.423 -1118687 -1293050 -1446176 -1574257 -1676721 -1753850 -1807109 
3694.798 -1837993 -1849013 -1843140 -1823904 -1794571 -1755962 -1706986 
3698.174 -1645100 -1568017 -1477746 -1381213 -1291134 -1224529 -1196609 
3701.549 -1215773 -1279407 -1374707 -1481873 -1579836 -1653154 -1692497 
3704.924 -1694907 -1662165 -1597729 -1505087 -1387555 -1248648 -1093536 
3708.299 -929144 -766376 -618403 -499407 -424206 -405139 -449297 -556494 
3712.157 -718149 -918133 -1133988 -1344285 -1530676 -1679658 -1785265 
3715.532 -1845977 -1865476 -1849508 -1805294 -1739725 -1658303 -1565145 
3718.907 -1463150 -1355087 -1244585 -1136467 -1036156 -948915 -877926 
3722.282 -822502 -779606 -744115 -712889 -686590 -670512 -674879 -710706 
3726.140 -783806 -891285 -1018141 -1142019 -1236358 -1278481 -1255686 
3729.515 -1166142 -1018670 -827562 -610827 -383059 -152124 79098 310311 
3733.373 535444 737029 885880 947241 891491 709482 420541 69819 -289296 
3737.712 -610793 -865393 -1043560 -1146645 -1179261 -1144002 -1039561 
3741.087 -863872 -618999 -318433 6461 308289 523369 594964 503398 283322 
3745.427 10039 -239161 -409840 -483388 -466574 -381768 -258169 -126056 
3749.284 -15672 49471 52951 -13319 -149475 -347039 -588128 -847966 -1096478 
3753.624 -1306727 -1461961 -1555273 -1591391 -1582114 -1543322 -1491483 
3756.999 -1440595 -1403144 -1388281 -1402979 -1451955 -1536091 -1650513 
3760.375 -1781965 -1911695 -2018499 -2083565 -2097744 -2061536 -1985715 
3763.750 -1887844 -1788334 -1705369 -1648763 -1617866 -1602780 -1590368 
3767.125 -1569668 -1537345 -1499308 -1469655 -1465363 -1500332 -1580298 
3770.500 -1698834 -1840896 -1986276 -2118188 -2225468 -2304049 -2356219 
3773.875 -2386965 -2401464 -2401529 -2385647 -2350122 -2291985 -2212150 
3777.251 -2118089 -2022886 -1943825 -1897444 -1892265 -1927266 -1989904 
3780.626 -2061734 -2123925 -2164314 -2179513 -2174930 -2160556 -2147664 
3784.001 -2145389 -2157456 -2182249 -2214392 -2248114 -2278702 -2304510 
3787.376 -2326031 -2344685 -2362283 -2378858 -2393951 -2406143 -2413886 
3790.752 -2414973 -2407296 -2388118 -2354670 -2304774 -2237862 -2156533 
3794.127 -2065955 -1974501 -1891968 -1826049 -1779787 -1748900 -1722465 
3797.502 -1685467 -1623643 -1528629 -1400700 -1250862 -1099849 -976752 
3800.877 -910992 -920084 -1001083 -1129163 -1268835 -1384846 -1455918 
3804.253 -1476656 -1456479 -1416553 -1383988 -1387291 -1444822 -1559070 
3807.628 -1713983 -1884248 -2043531 -2173842 -2267990 -2325471 -2349101 
3811.003 -2341060 -2300324 -2223589 -2108296 -1955271 -1773023 -1577888 
3814.378 -1395382 -1253571 -1174007 -1162342 -1200376 -1254265 -1283073 
3817.754 -1258362 -1170075 -1027958 -858416 -700418 -598849 -588558 -683315 
3821.611 -865955 -1096279 -1326019 -1517370 -1652724 -1731838 -1767116 
3824.986 -1775762 -1777114 -1785001 -1805624 -1836706 -1869798 -1893683 
3828.362 -1899127 -1881774 -1842909 -1789060 -1728571 -1669393 -1616579 
3831.737 -1569932 -1524601 -1472726 -1407173 -1323145 -1220994 -1104013 
3835.112 -979761 -856861 -743487 -647287 -574429 -529258 -514267 -529986 
3838.969 -574693 -644343 -733861 -837218 -948651 -1064616 -1182995 -1304282 
3842.827 -1430423 -1563131 -1701772 -1842546 -1976744 -2093259 -2180469 
3846.202 -2228995 -2232621 -2189436 -2099656 -1964012 -1781437 -1549397 
3849.577 -1264507 -925507 -539352 -125592 280404 621508 831797 855036 674137 
3853.917 327951 -101974 -527537 -891781 -1173082 -1377217 -1521761 -1625195 
3857.774 -1699495 -1748537 -1769954 -1758602 -1711475 -1630245 -1522124 
3861.150 -1397926 -1271048 -1153288 -1054435 -982670 -944187 -942038 -974041 
3865.007 -1029909 -1090859 -1132071 -1131642 -1076448 -967429 -820220 
3868.382 -666211 -544911 -490107 -518635 -619164 -758868 -897997 -1007298 
3872.240 -1079489 -1125858 -1169612 -1234706 -1336721 -1473915 -1627439 
3875.615 -1767512 -1865575 -1901766 -1868511 -1771538 -1626944 -1459947 
3878.990 -1298369 -1169249 -1093404 -1077076 -1110887 -1171363 -1230311 
3882.365 -1260773 -1246963 -1187489 -1097271 -1004654 -942303 -940253 
3885.741 -1010240 -1140234 -1296750 -1440760 -1540383 -1578252 -1555240 
3889.116 -1486166 -1396406 -1313631 -1263350 -1262293 -1313994 -1409518 
3892.491 -1531931 -1662462 -1782823 -1878013 -1936799 -1949532 -1910112 
3895.866 -1815985 -1669393 -1478736 -1257106 -1023165 -796507 -594448 
3899.242 -429436 -305918 -220451 -164346 -128673 -108036 -103531 -123108 
3903.099 -178257 -279958 -432448 -630745 -860102 -1101336 -1334376 -1543718 
3906.957 -1720749 -1862738 -1971071 -2049401 -2101866 -2132201 -2143807 
3910.332 -2140608 -2126431 -2104503 -2076112 -2039210 -1989343 -1919942 
3913.707 -1826049 -1707020 -1569107 -1424281 -1289912 -1182863 -1115382 
3917.082 -1091685 -1107219 -1151933 -1213692 -1282611 -1351817 -1416850 
3920.458 -1473717 -1517568 -1543024 -1545996 -1527110 -1492803 -1455258 
3923.833 -1429763 -1430423 -1464636 -1529751 -1614400 -1701706 -1773947 
3927.208 -1816975 -1823607 -1792789 -1729627 -1642261 -1542232 -1442973 
3930.583 -1357366 -1299294 -1279836 -1305240 -1374343 -1478571 -1603110 
3933.958 -1729363 -1841358 -1927794 -1984429 -2013387 -2021500 -2016949 
3937.334 -2006395 -1993038 -1976249 -1952698 -1918095 -1870260 -1810211 
3940.709 -1743652 -1680417 -1631467 -1607138 -1613311 -1648895 -1705732 
3944.084 -1769822 -1826280 -1861550 -1868115 -1845317 -1799586 -1742035 
3947.459 -1685302 -1641601 -1618163 -1618131 -1639818 -1679394 -1731112 
3950.835 -1789588 -1850069 -1908001 -1959163 -2000524 -2029580 -2045806 
3954.210 -2050852 -2047818 -2040398 -2032153 -2025029 -2019851 -2015465 
3957.585 -2010188 -2002372 -1991026 -1976183 -1959064 -1941879 -1927266 
3960.960 -1918293 -1917897 -1927827 -1948476 -1977997 -2012925 -2048378 
3964.336 -2079542 -2102624 -2115352 -2118056 -2112022 -2099557 -2083070 
3967.711 -2064702 -2045971 -2028327 -2013288 -2002273 -1996303 -1995412 
3971.086 -1998249 -2002273 -2004416 -2002569 -1995610 -1984528 -1971334 
3974.461 -1959394 -1950785 -1947157 -1949037 -1955370 -1964606 -1975161 
3977.837 -1985319 -1993565 -1998447 -1999106 -1995313 -1987431 -1977569 
3981.212 -1968003 -1961043 -1958405 -1960582 -1966750 -1975326 -1984792 
3984.587 -1994060 -2002470 -2009990 -2016125 -2020049 -2020511 -2017015 
3987.962 -2009232 -1998447 -1987200 -1978162 -1973412 -1973412 -1977173 
3991.338 -1982153 -1986507 -1988255 -1987793 -1986045 -1985451 -1987364 
3994.713 -1992840 -2001250 -2011837 -2023710 -2036209 -2049302 -2063317 
3998.088 -2078058 -2093226 -2107702 -2120364 -2130618 -2138037 
##END=
